SpectraSuite Data File
++++++++++++++++++++++++++++++++++++
Date: Mon Jun 15 06:58:12 PDT 2015
User: introlabs
Dark Spectrum Present: Yes
Reference Spectrum Present: Yes
Number of Sampled Component Spectra: 1
Spectrometers: USB4H08886
Integration Time (usec): 44366 (USB4H08886)
Spectra Averaged: 20 (USB4H08886)
Boxcar Smoothing: 5 (USB4H08886)
Correct for Electrical Dark: Yes (USB4H08886)
Strobe/Lamp Enabled: No (USB4H08886)
Correct for Detector Non-linearity: Yes (USB4H08886)
Correct for Stray Light: Yes (USB4H08886)
Number of Pixels in Processed Spectrum: 3648
>>>>>Begin Processed Spectral Data<<<<<
178.14	-0.000
178.36	-0.000
178.57	-0.000
178.79	-0.000
179.01	-0.164
179.22	-0.000
179.44	-0.000
179.65	-0.000
179.87	-0.000
180.08	0.640
180.30	0.337
180.52	1.163
180.73	0.526
180.95	0.142
181.16	0.070
181.38	0.036
181.59	0.010
181.81	-0.001
182.03	-0.002
182.24	0.001
182.46	-0.004
182.67	-0.001
182.89	-0.002
183.10	0.004
183.32	0.013
183.54	0.006
183.75	0.008
183.97	0.012
184.18	0.009
184.40	0.006
184.61	0.008
184.83	0.020
185.04	0.011
185.26	0.004
185.48	-0.010
185.69	-0.018
185.91	-0.030
186.12	-0.030
186.34	-0.032
186.55	-0.035
186.77	-0.036
186.98	-0.031
187.20	-0.025
187.42	-0.026
187.63	-0.015
187.85	-0.010
188.06	-0.017
188.28	-0.007
188.49	-0.010
188.71	-0.008
188.92	-0.001
189.14	0.008
189.36	0.000
189.57	-0.014
189.79	-0.016
190.00	-0.018
190.22	-0.017
190.43	-0.014
190.65	-0.007
190.86	-0.005
191.08	-0.012
191.29	-0.017
191.51	-0.013
191.72	-0.008
191.94	-0.010
192.16	-0.008
192.37	-0.011
192.59	-0.005
192.80	-0.001
193.02	-0.006
193.23	-0.006
193.45	-0.002
193.66	-0.007
193.88	-0.015
194.09	-0.015
194.31	-0.015
194.52	-0.018
194.74	-0.010
194.95	-0.023
195.17	-0.029
195.38	-0.020
195.60	-0.023
195.81	-0.019
196.03	-0.014
196.25	-0.019
196.46	-0.022
196.68	-0.022
196.89	-0.016
197.11	-0.028
197.32	-0.024
197.54	-0.017
197.75	-0.022
197.97	-0.020
198.18	-0.028
198.40	-0.026
198.61	-0.019
198.83	-0.009
199.04	-0.006
199.26	-0.003
199.47	-0.000
199.69	0.013
199.90	-0.001
200.12	-0.008
200.33	-0.002
200.55	0.003
200.76	-0.006
200.98	-0.011
201.19	-0.018
201.41	-0.018
201.62	-0.018
201.84	-0.019
202.05	-0.033
202.27	-0.027
202.48	-0.024
202.70	-0.035
202.91	-0.035
203.13	-0.034
203.34	-0.037
203.56	-0.039
203.77	-0.040
203.99	-0.046
204.20	-0.041
204.42	-0.039
204.63	-0.033
204.85	-0.024
205.06	-0.022
205.28	-0.029
205.49	-0.024
205.71	-0.010
205.92	-0.013
206.14	-0.013
206.35	-0.013
206.56	-0.010
206.78	-0.012
206.99	-0.014
207.21	-0.014
207.42	-0.010
207.64	-0.002
207.85	-0.006
208.07	-0.015
208.28	-0.010
208.50	-0.012
208.71	-0.009
208.93	-0.017
209.14	-0.014
209.36	-0.011
209.57	-0.021
209.79	-0.014
210.00	-0.022
210.22	-0.017
210.43	-0.018
210.64	-0.021
210.86	-0.018
211.07	-0.023
211.29	-0.020
211.50	-0.015
211.72	-0.021
211.93	-0.021
212.15	-0.022
212.36	-0.022
212.58	-0.024
212.79	-0.022
213.01	-0.022
213.22	-0.017
213.43	-0.009
213.65	-0.004
213.86	-0.007
214.08	-0.011
214.29	-0.013
214.51	-0.018
214.72	-0.014
214.94	-0.011
215.15	-0.015
215.36	-0.018
215.58	-0.026
215.79	-0.029
216.01	-0.036
216.22	-0.036
216.44	-0.030
216.65	-0.028
216.87	-0.027
217.08	-0.030
217.29	-0.031
217.51	-0.030
217.72	-0.029
217.94	-0.025
218.15	-0.030
218.37	-0.029
218.58	-0.027
218.80	-0.026
219.01	-0.027
219.22	-0.025
219.44	-0.023
219.65	-0.030
219.87	-0.021
220.08	-0.012
220.30	-0.017
220.51	-0.015
220.72	-0.019
220.94	-0.024
221.15	-0.020
221.37	-0.018
221.58	-0.018
221.79	-0.021
222.01	-0.019
222.22	-0.027
222.44	-0.029
222.65	-0.031
222.87	-0.035
223.08	-0.029
223.29	-0.026
223.51	-0.029
223.72	-0.032
223.94	-0.037
224.15	-0.037
224.36	-0.035
224.58	-0.034
224.79	-0.038
225.01	-0.035
225.22	-0.030
225.44	-0.029
225.65	-0.033
225.86	-0.036
226.08	-0.037
226.29	-0.029
226.51	-0.028
226.72	-0.028
226.93	-0.028
227.15	-0.028
227.36	-0.028
227.58	-0.025
227.79	-0.032
228.00	-0.031
228.22	-0.025
228.43	-0.027
228.65	-0.032
228.86	-0.035
229.07	-0.036
229.29	-0.037
229.50	-0.036
229.72	-0.037
229.93	-0.039
230.14	-0.036
230.36	-0.035
230.57	-0.038
230.78	-0.038
231.00	-0.036
231.21	-0.035
231.43	-0.034
231.64	-0.032
231.85	-0.032
232.07	-0.033
232.28	-0.032
232.50	-0.032
232.71	-0.032
232.92	-0.032
233.14	-0.033
233.35	-0.036
233.56	-0.038
233.78	-0.040
233.99	-0.044
234.21	-0.042
234.42	-0.041
234.63	-0.044
234.85	-0.046
235.06	-0.046
235.27	-0.047
235.49	-0.045
235.70	-0.044
235.91	-0.043
236.13	-0.043
236.34	-0.042
236.56	-0.042
236.77	-0.042
236.98	-0.039
237.20	-0.039
237.41	-0.037
237.62	-0.038
237.84	-0.038
238.05	-0.037
238.26	-0.037
238.48	-0.036
238.69	-0.036
238.91	-0.036
239.12	-0.037
239.33	-0.037
239.55	-0.037
239.76	-0.037
239.97	-0.036
240.19	-0.035
240.40	-0.035
240.61	-0.034
240.83	-0.034
241.04	-0.033
241.25	-0.033
241.47	-0.033
241.68	-0.033
241.89	-0.033
242.11	-0.032
242.32	-0.032
242.53	-0.032
242.75	-0.033
242.96	-0.033
243.17	-0.032
243.39	-0.032
243.60	-0.031
243.81	-0.031
244.03	-0.030
244.24	-0.029
244.45	-0.029
244.67	-0.029
244.88	-0.029
245.09	-0.029
245.31	-0.029
245.52	-0.030
245.73	-0.029
245.95	-0.029
246.16	-0.029
246.37	-0.028
246.59	-0.029
246.80	-0.029
247.01	-0.029
247.23	-0.029
247.44	-0.028
247.65	-0.027
247.87	-0.027
248.08	-0.027
248.29	-0.027
248.51	-0.027
248.72	-0.027
248.93	-0.027
249.15	-0.027
249.36	-0.027
249.57	-0.026
249.78	-0.026
250.00	-0.026
250.21	-0.025
250.42	-0.025
250.64	-0.025
250.85	-0.025
251.06	-0.025
251.28	-0.024
251.49	-0.024
251.70	-0.023
251.92	-0.024
252.13	-0.024
252.34	-0.023
252.55	-0.023
252.77	-0.023
252.98	-0.023
253.19	-0.022
253.41	-0.022
253.62	-0.022
253.83	-0.023
254.05	-0.023
254.26	-0.023
254.47	-0.022
254.68	-0.022
254.90	-0.022
255.11	-0.022
255.32	-0.022
255.54	-0.023
255.75	-0.023
255.96	-0.022
256.17	-0.022
256.39	-0.022
256.60	-0.021
256.81	-0.021
257.03	-0.021
257.24	-0.021
257.45	-0.021
257.66	-0.021
257.88	-0.020
258.09	-0.020
258.30	-0.020
258.51	-0.021
258.73	-0.021
258.94	-0.021
259.15	-0.021
259.37	-0.021
259.58	-0.021
259.79	-0.021
260.00	-0.021
260.22	-0.021
260.43	-0.021
260.64	-0.021
260.85	-0.021
261.07	-0.021
261.28	-0.021
261.49	-0.021
261.71	-0.021
261.92	-0.021
262.13	-0.021
262.34	-0.021
262.56	-0.021
262.77	-0.021
262.98	-0.021
263.19	-0.022
263.41	-0.022
263.62	-0.022
263.83	-0.022
264.04	-0.022
264.26	-0.022
264.47	-0.022
264.68	-0.022
264.89	-0.022
265.11	-0.022
265.32	-0.022
265.53	-0.022
265.74	-0.022
265.96	-0.022
266.17	-0.022
266.38	-0.022
266.59	-0.022
266.81	-0.022
267.02	-0.022
267.23	-0.022
267.44	-0.022
267.65	-0.022
267.87	-0.022
268.08	-0.022
268.29	-0.022
268.50	-0.022
268.72	-0.022
268.93	-0.022
269.14	-0.022
269.35	-0.022
269.57	-0.023
269.78	-0.023
269.99	-0.023
270.20	-0.023
270.41	-0.023
270.63	-0.023
270.84	-0.024
271.05	-0.024
271.26	-0.024
271.48	-0.024
271.69	-0.024
271.90	-0.024
272.11	-0.024
272.32	-0.024
272.54	-0.024
272.75	-0.023
272.96	-0.023
273.17	-0.023
273.39	-0.023
273.60	-0.023
273.81	-0.023
274.02	-0.023
274.23	-0.023
274.45	-0.022
274.66	-0.023
274.87	-0.023
275.08	-0.023
275.29	-0.023
275.51	-0.023
275.72	-0.023
275.93	-0.023
276.14	-0.023
276.35	-0.023
276.57	-0.024
276.78	-0.024
276.99	-0.024
277.20	-0.024
277.41	-0.024
277.63	-0.024
277.84	-0.024
278.05	-0.023
278.26	-0.023
278.47	-0.023
278.69	-0.023
278.90	-0.023
279.11	-0.023
279.32	-0.023
279.53	-0.023
279.74	-0.023
279.96	-0.023
280.17	-0.023
280.38	-0.023
280.59	-0.023
280.80	-0.023
281.02	-0.023
281.23	-0.023
281.44	-0.023
281.65	-0.022
281.86	-0.023
282.07	-0.022
282.29	-0.022
282.50	-0.022
282.71	-0.022
282.92	-0.022
283.13	-0.022
283.35	-0.021
283.56	-0.021
283.77	-0.021
283.98	-0.021
284.19	-0.021
284.40	-0.020
284.62	-0.020
284.83	-0.020
285.04	-0.020
285.25	-0.020
285.46	-0.019
285.67	-0.019
285.88	-0.019
286.10	-0.019
286.31	-0.019
286.52	-0.018
286.73	-0.018
286.94	-0.018
287.15	-0.018
287.37	-0.018
287.58	-0.017
287.79	-0.017
288.00	-0.017
288.21	-0.016
288.42	-0.016
288.63	-0.016
288.85	-0.016
289.06	-0.016
289.27	-0.016
289.48	-0.016
289.69	-0.015
289.90	-0.015
290.11	-0.015
290.33	-0.015
290.54	-0.015
290.75	-0.015
290.96	-0.015
291.17	-0.014
291.38	-0.014
291.59	-0.014
291.81	-0.014
292.02	-0.014
292.23	-0.014
292.44	-0.014
292.65	-0.014
292.86	-0.014
293.07	-0.014
293.28	-0.014
293.50	-0.014
293.71	-0.014
293.92	-0.013
294.13	-0.013
294.34	-0.013
294.55	-0.013
294.76	-0.013
294.97	-0.013
295.19	-0.013
295.40	-0.013
295.61	-0.013
295.82	-0.013
296.03	-0.013
296.24	-0.013
296.45	-0.013
296.66	-0.013
296.87	-0.013
297.09	-0.013
297.30	-0.012
297.51	-0.012
297.72	-0.012
297.93	-0.012
298.14	-0.012
298.35	-0.012
298.56	-0.012
298.77	-0.012
298.99	-0.012
299.20	-0.012
299.41	-0.012
299.62	-0.012
299.83	-0.012
300.04	-0.012
300.25	-0.012
300.46	-0.012
300.67	-0.012
300.88	-0.012
301.10	-0.012
301.31	-0.012
301.52	-0.012
301.73	-0.012
301.94	-0.012
302.15	-0.011
302.36	-0.012
302.57	-0.012
302.78	-0.011
302.99	-0.011
303.20	-0.012
303.41	-0.011
303.63	-0.011
303.84	-0.011
304.05	-0.011
304.26	-0.011
304.47	-0.011
304.68	-0.011
304.89	-0.011
305.10	-0.011
305.31	-0.011
305.52	-0.011
305.73	-0.011
305.94	-0.011
306.15	-0.011
306.37	-0.011
306.58	-0.011
306.79	-0.011
307.00	-0.011
307.21	-0.011
307.42	-0.011
307.63	-0.011
307.84	-0.011
308.05	-0.011
308.26	-0.011
308.47	-0.011
308.68	-0.011
308.89	-0.011
309.10	-0.011
309.31	-0.011
309.52	-0.011
309.73	-0.011
309.95	-0.011
310.16	-0.011
310.37	-0.011
310.58	-0.011
310.79	-0.011
311.00	-0.011
311.21	-0.011
311.42	-0.011
311.63	-0.011
311.84	-0.011
312.05	-0.011
312.26	-0.011
312.47	-0.011
312.68	-0.011
312.89	-0.011
313.10	-0.011
313.31	-0.010
313.52	-0.010
313.73	-0.010
313.94	-0.010
314.15	-0.010
314.36	-0.011
314.57	-0.010
314.78	-0.010
314.99	-0.011
315.21	-0.011
315.42	-0.010
315.63	-0.010
315.84	-0.010
316.05	-0.010
316.26	-0.010
316.47	-0.010
316.68	-0.010
316.89	-0.010
317.10	-0.010
317.31	-0.010
317.52	-0.010
317.73	-0.010
317.94	-0.010
318.15	-0.010
318.36	-0.011
318.57	-0.011
318.78	-0.011
318.99	-0.010
319.20	-0.010
319.41	-0.011
319.62	-0.010
319.83	-0.010
320.04	-0.010
320.25	-0.010
320.46	-0.010
320.67	-0.010
320.88	-0.010
321.09	-0.010
321.30	-0.010
321.51	-0.010
321.72	-0.010
321.93	-0.010
322.14	-0.010
322.35	-0.010
322.56	-0.010
322.77	-0.010
322.98	-0.010
323.19	-0.010
323.40	-0.010
323.61	-0.010
323.82	-0.010
324.03	-0.010
324.24	-0.010
324.45	-0.010
324.66	-0.010
324.87	-0.010
325.08	-0.009
325.29	-0.010
325.50	-0.010
325.71	-0.009
325.92	-0.009
326.13	-0.009
326.34	-0.009
326.55	-0.009
326.76	-0.009
326.97	-0.009
327.18	-0.009
327.39	-0.009
327.60	-0.009
327.80	-0.010
328.01	-0.010
328.22	-0.010
328.43	-0.010
328.64	-0.010
328.85	-0.009
329.06	-0.009
329.27	-0.009
329.48	-0.009
329.69	-0.010
329.90	-0.010
330.11	-0.010
330.32	-0.009
330.53	-0.009
330.74	-0.009
330.95	-0.009
331.16	-0.009
331.37	-0.009
331.58	-0.009
331.79	-0.009
332.00	-0.009
332.21	-0.009
332.42	-0.009
332.63	-0.009
332.83	-0.009
333.04	-0.009
333.25	-0.009
333.46	-0.009
333.67	-0.009
333.88	-0.009
334.09	-0.009
334.30	-0.009
334.51	-0.009
334.72	-0.009
334.93	-0.009
335.14	-0.009
335.35	-0.009
335.56	-0.009
335.77	-0.009
335.98	-0.009
336.18	-0.009
336.39	-0.009
336.60	-0.009
336.81	-0.009
337.02	-0.009
337.23	-0.009
337.44	-0.009
337.65	-0.009
337.86	-0.009
338.07	-0.009
338.28	-0.009
338.49	-0.009
338.70	-0.009
338.91	-0.009
339.11	-0.009
339.32	-0.009
339.53	-0.009
339.74	-0.009
339.95	-0.009
340.16	-0.009
340.37	-0.009
340.58	-0.009
340.79	-0.009
341.00	-0.009
341.21	-0.009
341.41	-0.009
341.62	-0.008
341.83	-0.008
342.04	-0.009
342.25	-0.008
342.46	-0.008
342.67	-0.008
342.88	-0.009
343.09	-0.009
343.30	-0.009
343.50	-0.009
343.71	-0.009
343.92	-0.009
344.13	-0.009
344.34	-0.009
344.55	-0.009
344.76	-0.008
344.97	-0.009
345.18	-0.008
345.38	-0.008
345.59	-0.008
345.80	-0.008
346.01	-0.008
346.22	-0.008
346.43	-0.008
346.64	-0.008
346.85	-0.008
347.06	-0.008
347.26	-0.008
347.47	-0.008
347.68	-0.008
347.89	-0.008
348.10	-0.008
348.31	-0.008
348.52	-0.008
348.73	-0.008
348.93	-0.008
349.14	-0.008
349.35	-0.008
349.56	-0.008
349.77	-0.008
349.98	-0.008
350.19	-0.008
350.39	-0.008
350.60	-0.008
350.81	-0.008
351.02	-0.008
351.23	-0.008
351.44	-0.008
351.65	-0.008
351.86	-0.008
352.06	-0.008
352.27	-0.008
352.48	-0.008
352.69	-0.008
352.90	-0.008
353.11	-0.007
353.31	-0.007
353.52	-0.007
353.73	-0.008
353.94	-0.008
354.15	-0.008
354.36	-0.008
354.57	-0.008
354.77	-0.008
354.98	-0.008
355.19	-0.008
355.40	-0.008
355.61	-0.008
355.82	-0.008
356.02	-0.008
356.23	-0.007
356.44	-0.007
356.65	-0.007
356.86	-0.007
357.07	-0.008
357.27	-0.008
357.48	-0.008
357.69	-0.008
357.90	-0.008
358.11	-0.008
358.32	-0.008
358.52	-0.008
358.73	-0.008
358.94	-0.008
359.15	-0.008
359.36	-0.008
359.56	-0.008
359.77	-0.008
359.98	-0.008
360.19	-0.008
360.40	-0.007
360.61	-0.007
360.81	-0.007
361.02	-0.007
361.23	-0.007
361.44	-0.007
361.65	-0.007
361.85	-0.007
362.06	-0.007
362.27	-0.007
362.48	-0.007
362.69	-0.007
362.89	-0.007
363.10	-0.007
363.31	-0.007
363.52	-0.007
363.73	-0.007
363.93	-0.007
364.14	-0.007
364.35	-0.007
364.56	-0.007
364.77	-0.007
364.97	-0.007
365.18	-0.007
365.39	-0.007
365.60	-0.007
365.81	-0.007
366.01	-0.007
366.22	-0.007
366.43	-0.007
366.64	-0.007
366.84	-0.007
367.05	-0.007
367.26	-0.007
367.47	-0.007
367.68	-0.007
367.88	-0.007
368.09	-0.007
368.30	-0.007
368.51	-0.007
368.71	-0.007
368.92	-0.007
369.13	-0.007
369.34	-0.007
369.55	-0.007
369.75	-0.007
369.96	-0.007
370.17	-0.007
370.38	-0.007
370.58	-0.007
370.79	-0.007
371.00	-0.007
371.21	-0.007
371.41	-0.007
371.62	-0.007
371.83	-0.007
372.04	-0.007
372.24	-0.007
372.45	-0.007
372.66	-0.007
372.87	-0.007
373.07	-0.006
373.28	-0.007
373.49	-0.007
373.70	-0.006
373.90	-0.006
374.11	-0.006
374.32	-0.006
374.53	-0.006
374.73	-0.006
374.94	-0.006
375.15	-0.006
375.36	-0.007
375.56	-0.007
375.77	-0.007
375.98	-0.007
376.19	-0.007
376.39	-0.007
376.60	-0.007
376.81	-0.007
377.02	-0.007
377.22	-0.007
377.43	-0.007
377.64	-0.007
377.84	-0.006
378.05	-0.006
378.26	-0.006
378.47	-0.006
378.67	-0.006
378.88	-0.006
379.09	-0.006
379.30	-0.006
379.50	-0.006
379.71	-0.006
379.92	-0.006
380.12	-0.007
380.33	-0.007
380.54	-0.007
380.75	-0.007
380.95	-0.007
381.16	-0.007
381.37	-0.007
381.57	-0.007
381.78	-0.007
381.99	-0.007
382.20	-0.006
382.40	-0.006
382.61	-0.006
382.82	-0.006
383.02	-0.006
383.23	-0.006
383.44	-0.006
383.64	-0.006
383.85	-0.006
384.06	-0.006
384.27	-0.006
384.47	-0.006
384.68	-0.006
384.89	-0.006
385.09	-0.006
385.30	-0.006
385.51	-0.006
385.71	-0.006
385.92	-0.006
386.13	-0.006
386.33	-0.006
386.54	-0.006
386.75	-0.006
386.95	-0.006
387.16	-0.006
387.37	-0.006
387.58	-0.006
387.78	-0.006
387.99	-0.006
388.20	-0.006
388.40	-0.006
388.61	-0.006
388.82	-0.006
389.02	-0.006
389.23	-0.006
389.44	-0.006
389.64	-0.006
389.85	-0.006
390.06	-0.006
390.26	-0.006
390.47	-0.006
390.68	-0.006
390.88	-0.006
391.09	-0.006
391.30	-0.006
391.50	-0.006
391.71	-0.006
391.92	-0.006
392.12	-0.006
392.33	-0.006
392.53	-0.006
392.74	-0.006
392.95	-0.006
393.15	-0.006
393.36	-0.006
393.57	-0.006
393.77	-0.006
393.98	-0.006
394.19	-0.006
394.39	-0.006
394.60	-0.006
394.81	-0.006
395.01	-0.006
395.22	-0.006
395.43	-0.006
395.63	-0.006
395.84	-0.006
396.04	-0.006
396.25	-0.006
396.46	-0.006
396.66	-0.006
396.87	-0.006
397.08	-0.006
397.28	-0.006
397.49	-0.006
397.69	-0.006
397.90	-0.006
398.11	-0.006
398.31	-0.006
398.52	-0.006
398.73	-0.006
398.93	-0.006
399.14	-0.006
399.34	-0.006
399.55	-0.006
399.76	-0.006
399.96	-0.006
400.17	-0.006
400.37	-0.006
400.58	-0.006
400.79	-0.006
400.99	-0.006
401.20	-0.006
401.41	-0.006
401.61	-0.006
401.82	-0.006
402.02	-0.006
402.23	-0.006
402.44	-0.006
402.64	-0.006
402.85	-0.006
403.05	-0.006
403.26	-0.006
403.47	-0.006
403.67	-0.006
403.88	-0.006
404.08	-0.006
404.29	-0.006
404.50	-0.006
404.70	-0.006
404.91	-0.006
405.11	-0.006
405.32	-0.006
405.52	-0.006
405.73	-0.006
405.94	-0.006
406.14	-0.006
406.35	-0.006
406.55	-0.006
406.76	-0.006
406.97	-0.006
407.17	-0.006
407.38	-0.006
407.58	-0.006
407.79	-0.006
407.99	-0.006
408.20	-0.006
408.41	-0.005
408.61	-0.005
408.82	-0.005
409.02	-0.005
409.23	-0.005
409.43	-0.005
409.64	-0.005
409.84	-0.005
410.05	-0.005
410.26	-0.005
410.46	-0.005
410.67	-0.005
410.87	-0.005
411.08	-0.005
411.28	-0.005
411.49	-0.005
411.69	-0.005
411.90	-0.005
412.11	-0.005
412.31	-0.006
412.52	-0.006
412.72	-0.006
412.93	-0.006
413.13	-0.005
413.34	-0.005
413.54	-0.006
413.75	-0.006
413.95	-0.006
414.16	-0.006
414.37	-0.006
414.57	-0.005
414.78	-0.005
414.98	-0.005
415.19	-0.005
415.39	-0.005
415.60	-0.005
415.80	-0.005
416.01	-0.005
416.21	-0.005
416.42	-0.005
416.62	-0.005
416.83	-0.005
417.03	-0.005
417.24	-0.006
417.44	-0.006
417.65	-0.006
417.86	-0.006
418.06	-0.006
418.27	-0.005
418.47	-0.005
418.68	-0.005
418.88	-0.005
419.09	-0.005
419.29	-0.005
419.50	-0.005
419.70	-0.005
419.91	-0.005
420.11	-0.005
420.32	-0.005
420.52	-0.005
420.73	-0.005
420.93	-0.005
421.14	-0.005
421.34	-0.005
421.55	-0.005
421.75	-0.005
421.96	-0.005
422.16	-0.005
422.37	-0.005
422.57	-0.005
422.78	-0.005
422.98	-0.005
423.19	-0.005
423.39	-0.005
423.60	-0.005
423.80	-0.005
424.01	-0.005
424.21	-0.005
424.42	-0.005
424.62	-0.005
424.83	-0.005
425.03	-0.005
425.23	-0.005
425.44	-0.005
425.64	-0.005
425.85	-0.005
426.05	-0.005
426.26	-0.005
426.46	-0.005
426.67	-0.005
426.87	-0.005
427.08	-0.005
427.28	-0.005
427.49	-0.005
427.69	-0.005
427.90	-0.005
428.10	-0.005
428.31	-0.005
428.51	-0.005
428.71	-0.005
428.92	-0.005
429.12	-0.005
429.33	-0.005
429.53	-0.005
429.74	-0.005
429.94	-0.005
430.15	-0.005
430.35	-0.005
430.56	-0.005
430.76	-0.005
430.96	-0.005
431.17	-0.005
431.37	-0.005
431.58	-0.005
431.78	-0.005
431.99	-0.005
432.19	-0.005
432.40	-0.005
432.60	-0.005
432.80	-0.005
433.01	-0.005
433.21	-0.005
433.42	-0.005
433.62	-0.005
433.83	-0.005
434.03	-0.005
434.23	-0.005
434.44	-0.005
434.64	-0.005
434.85	-0.005
435.05	-0.005
435.26	-0.005
435.46	-0.005
435.66	-0.005
435.87	-0.005
436.07	-0.005
436.28	-0.005
436.48	-0.005
436.69	-0.005
436.89	-0.005
437.09	-0.005
437.30	-0.005
437.50	-0.005
437.71	-0.005
437.91	-0.005
438.11	-0.005
438.32	-0.005
438.52	-0.005
438.73	-0.005
438.93	-0.005
439.13	-0.005
439.34	-0.005
439.54	-0.005
439.75	-0.005
439.95	-0.005
440.15	-0.005
440.36	-0.005
440.56	-0.005
440.77	-0.005
440.97	-0.005
441.17	-0.005
441.38	-0.005
441.58	-0.005
441.79	-0.005
441.99	-0.005
442.19	-0.005
442.40	-0.005
442.60	-0.005
442.81	-0.005
443.01	-0.005
443.21	-0.005
443.42	-0.005
443.62	-0.005
443.82	-0.005
444.03	-0.005
444.23	-0.005
444.44	-0.005
444.64	-0.005
444.84	-0.004
445.05	-0.004
445.25	-0.005
445.45	-0.005
445.66	-0.005
445.86	-0.005
446.06	-0.005
446.27	-0.005
446.47	-0.004
446.68	-0.004
446.88	-0.005
447.08	-0.005
447.29	-0.005
447.49	-0.005
447.69	-0.005
447.90	-0.005
448.10	-0.005
448.30	-0.005
448.51	-0.005
448.71	-0.005
448.91	-0.005
449.12	-0.005
449.32	-0.005
449.52	-0.005
449.73	-0.005
449.93	-0.004
450.14	-0.004
450.34	-0.004
450.54	-0.004
450.75	-0.004
450.95	-0.005
451.15	-0.005
451.36	-0.004
451.56	-0.004
451.76	-0.004
451.97	-0.004
452.17	-0.004
452.37	-0.004
452.58	-0.004
452.78	-0.004
452.98	-0.004
453.19	-0.004
453.39	-0.004
453.59	-0.004
453.79	-0.005
454.00	-0.004
454.20	-0.005
454.40	-0.005
454.61	-0.005
454.81	-0.005
455.01	-0.005
455.22	-0.005
455.42	-0.005
455.62	-0.005
455.83	-0.005
456.03	-0.005
456.23	-0.005
456.44	-0.005
456.64	-0.005
456.84	-0.005
457.04	-0.005
457.25	-0.004
457.45	-0.004
457.65	-0.004
457.86	-0.004
458.06	-0.004
458.26	-0.004
458.47	-0.004
458.67	-0.004
458.87	-0.004
459.07	-0.004
459.28	-0.004
459.48	-0.004
459.68	-0.004
459.89	-0.004
460.09	-0.004
460.29	-0.004
460.49	-0.004
460.70	-0.004
460.90	-0.004
461.10	-0.004
461.31	-0.004
461.51	-0.004
461.71	-0.004
461.91	-0.004
462.12	-0.004
462.32	-0.004
462.52	-0.004
462.72	-0.004
462.93	-0.004
463.13	-0.004
463.33	-0.004
463.53	-0.004
463.74	-0.004
463.94	-0.005
464.14	-0.004
464.35	-0.004
464.55	-0.004
464.75	-0.004
464.95	-0.004
465.16	-0.004
465.36	-0.004
465.56	-0.005
465.76	-0.004
465.97	-0.004
466.17	-0.004
466.37	-0.004
466.57	-0.004
466.78	-0.004
466.98	-0.004
467.18	-0.004
467.38	-0.004
467.59	-0.004
467.79	-0.004
467.99	-0.004
468.19	-0.004
468.39	-0.005
468.60	-0.005
468.80	-0.005
469.00	-0.005
469.20	-0.005
469.41	-0.005
469.61	-0.005
469.81	-0.005
470.01	-0.005
470.22	-0.005
470.42	-0.005
470.62	-0.005
470.82	-0.004
471.02	-0.004
471.23	-0.004
471.43	-0.004
471.63	-0.004
471.83	-0.004
472.04	-0.004
472.24	-0.004
472.44	-0.004
472.64	-0.004
472.84	-0.004
473.05	-0.004
473.25	-0.004
473.45	-0.004
473.65	-0.004
473.85	-0.004
474.06	-0.004
474.26	-0.004
474.46	-0.004
474.66	-0.004
474.86	-0.004
475.07	-0.004
475.27	-0.004
475.47	-0.004
475.67	-0.004
475.87	-0.004
476.08	-0.004
476.28	-0.004
476.48	-0.004
476.68	-0.004
476.88	-0.004
477.09	-0.004
477.29	-0.004
477.49	-0.004
477.69	-0.004
477.89	-0.004
478.09	-0.004
478.30	-0.004
478.50	-0.004
478.70	-0.004
478.90	-0.004
479.10	-0.004
479.31	-0.004
479.51	-0.004
479.71	-0.004
479.91	-0.004
480.11	-0.004
480.31	-0.004
480.52	-0.004
480.72	-0.003
480.92	-0.003
481.12	-0.004
481.32	-0.004
481.52	-0.004
481.72	-0.004
481.93	-0.004
482.13	-0.004
482.33	-0.004
482.53	-0.004
482.73	-0.004
482.93	-0.004
483.14	-0.004
483.34	-0.004
483.54	-0.004
483.74	-0.004
483.94	-0.003
484.14	-0.003
484.34	-0.003
484.55	-0.003
484.75	-0.003
484.95	-0.003
485.15	-0.003
485.35	-0.003
485.55	-0.004
485.75	-0.004
485.96	-0.004
486.16	-0.004
486.36	-0.004
486.56	-0.004
486.76	-0.004
486.96	-0.004
487.16	-0.004
487.36	-0.004
487.57	-0.004
487.77	-0.004
487.97	-0.004
488.17	-0.004
488.37	-0.004
488.57	-0.004
488.77	-0.004
488.97	-0.004
489.18	-0.004
489.38	-0.004
489.58	-0.004
489.78	-0.004
489.98	-0.004
490.18	-0.004
490.38	-0.004
490.58	-0.004
490.78	-0.004
490.98	-0.004
491.19	-0.004
491.39	-0.004
491.59	-0.004
491.79	-0.004
491.99	-0.004
492.19	-0.004
492.39	-0.004
492.59	-0.004
492.79	-0.004
492.99	-0.004
493.20	-0.004
493.40	-0.004
493.60	-0.004
493.80	-0.004
494.00	-0.004
494.20	-0.004
494.40	-0.004
494.60	-0.004
494.80	-0.003
495.00	-0.003
495.20	-0.003
495.40	-0.003
495.61	-0.003
495.81	-0.003
496.01	-0.003
496.21	-0.003
496.41	-0.003
496.61	-0.003
496.81	-0.003
497.01	-0.003
497.21	-0.003
497.41	-0.003
497.61	-0.003
497.81	-0.003
498.01	-0.003
498.21	-0.003
498.41	-0.003
498.61	-0.003
498.82	-0.004
499.02	-0.004
499.22	-0.004
499.42	-0.004
499.62	-0.003
499.82	-0.003
500.02	-0.003
500.22	-0.003
500.42	-0.003
500.62	-0.003
500.82	-0.003
501.02	-0.003
501.22	-0.003
501.42	-0.003
501.62	-0.003
501.82	-0.003
502.02	-0.003
502.22	-0.003
502.42	-0.003
502.62	-0.003
502.82	-0.004
503.02	-0.004
503.22	-0.003
503.42	-0.004
503.63	-0.004
503.83	-0.003
504.03	-0.003
504.23	-0.004
504.43	-0.003
504.63	-0.004
504.83	-0.003
505.03	-0.003
505.23	-0.003
505.43	-0.003
505.63	-0.003
505.83	-0.003
506.03	-0.003
506.23	-0.003
506.43	-0.003
506.63	-0.003
506.83	-0.003
507.03	-0.003
507.23	-0.003
507.43	-0.003
507.63	-0.003
507.83	-0.003
508.03	-0.003
508.23	-0.003
508.43	-0.003
508.63	-0.003
508.83	-0.003
509.03	-0.003
509.23	-0.003
509.43	-0.003
509.63	-0.003
509.83	-0.003
510.03	-0.004
510.23	-0.004
510.43	-0.003
510.63	-0.004
510.83	-0.004
511.03	-0.004
511.23	-0.004
511.43	-0.004
511.63	-0.004
511.83	-0.003
512.03	-0.003
512.22	-0.003
512.42	-0.003
512.62	-0.003
512.82	-0.004
513.02	-0.003
513.22	-0.003
513.42	-0.003
513.62	-0.003
513.82	-0.003
514.02	-0.003
514.22	-0.003
514.42	-0.003
514.62	-0.003
514.82	-0.003
515.02	-0.003
515.22	-0.003
515.42	-0.003
515.62	-0.003
515.82	-0.003
516.02	-0.003
516.22	-0.003
516.42	-0.003
516.62	-0.003
516.82	-0.003
517.01	-0.003
517.21	-0.003
517.41	-0.003
517.61	-0.003
517.81	-0.003
518.01	-0.003
518.21	-0.003
518.41	-0.003
518.61	-0.003
518.81	-0.003
519.01	-0.003
519.21	-0.003
519.41	-0.003
519.61	-0.003
519.81	-0.003
520.00	-0.003
520.20	-0.003
520.40	-0.003
520.60	-0.003
520.80	-0.003
521.00	-0.003
521.20	-0.003
521.40	-0.003
521.60	-0.003
521.80	-0.003
522.00	-0.003
522.20	-0.003
522.39	-0.003
522.59	-0.003
522.79	-0.003
522.99	-0.003
523.19	-0.003
523.39	-0.003
523.59	-0.003
523.79	-0.003
523.99	-0.003
524.19	-0.003
524.38	-0.003
524.58	-0.003
524.78	-0.003
524.98	-0.003
525.18	-0.003
525.38	-0.003
525.58	-0.004
525.78	-0.004
525.98	-0.004
526.18	-0.004
526.37	-0.003
526.57	-0.004
526.77	-0.003
526.97	-0.003
527.17	-0.003
527.37	-0.003
527.57	-0.003
527.77	-0.003
527.96	-0.003
528.16	-0.003
528.36	-0.003
528.56	-0.003
528.76	-0.003
528.96	-0.003
529.16	-0.003
529.36	-0.003
529.55	-0.003
529.75	-0.003
529.95	-0.003
530.15	-0.003
530.35	-0.003
530.55	-0.003
530.75	-0.003
530.94	-0.003
531.14	-0.003
531.34	-0.003
531.54	-0.003
531.74	-0.003
531.94	-0.003
532.13	-0.003
532.33	-0.003
532.53	-0.003
532.73	-0.003
532.93	-0.003
533.13	-0.003
533.33	-0.003
533.52	-0.003
533.72	-0.003
533.92	-0.003
534.12	-0.003
534.32	-0.003
534.52	-0.003
534.71	-0.003
534.91	-0.003
535.11	-0.003
535.31	-0.003
535.51	-0.003
535.71	-0.003
535.90	-0.003
536.10	-0.003
536.30	-0.003
536.50	-0.003
536.70	-0.003
536.89	-0.003
537.09	-0.003
537.29	-0.003
537.49	-0.003
537.69	-0.003
537.89	-0.003
538.08	-0.003
538.28	-0.003
538.48	-0.003
538.68	-0.003
538.88	-0.003
539.07	-0.003
539.27	-0.003
539.47	-0.003
539.67	-0.003
539.87	-0.003
540.06	-0.003
540.26	-0.003
540.46	-0.003
540.66	-0.003
540.86	-0.003
541.05	-0.003
541.25	-0.003
541.45	-0.003
541.65	-0.003
541.84	-0.003
542.04	-0.003
542.24	-0.003
542.44	-0.003
542.64	-0.003
542.83	-0.003
543.03	-0.003
543.23	-0.003
543.43	-0.003
543.62	-0.003
543.82	-0.003
544.02	-0.003
544.22	-0.003
544.42	-0.003
544.61	-0.003
544.81	-0.003
545.01	-0.003
545.21	-0.003
545.40	-0.003
545.60	-0.003
545.80	-0.003
546.00	-0.003
546.19	-0.003
546.39	-0.003
546.59	-0.003
546.79	-0.003
546.98	-0.003
547.18	-0.003
547.38	-0.003
547.58	-0.003
547.77	-0.003
547.97	-0.003
548.17	-0.003
548.37	-0.003
548.56	-0.003
548.76	-0.003
548.96	-0.003
549.16	-0.003
549.35	-0.003
549.55	-0.003
549.75	-0.003
549.95	-0.003
550.14	-0.003
550.34	-0.003
550.54	-0.003
550.73	-0.003
550.93	-0.003
551.13	-0.003
551.33	-0.003
551.52	-0.003
551.72	-0.003
551.92	-0.003
552.12	-0.003
552.31	-0.003
552.51	-0.002
552.71	-0.003
552.90	-0.003
553.10	-0.003
553.30	-0.003
553.50	-0.003
553.69	-0.003
553.89	-0.003
554.09	-0.003
554.28	-0.003
554.48	-0.003
554.68	-0.003
554.87	-0.003
555.07	-0.003
555.27	-0.003
555.47	-0.003
555.66	-0.003
555.86	-0.003
556.06	-0.003
556.25	-0.003
556.45	-0.003
556.65	-0.003
556.84	-0.003
557.04	-0.003
557.24	-0.003
557.43	-0.003
557.63	-0.003
557.83	-0.003
558.02	-0.003
558.22	-0.003
558.42	-0.003
558.61	-0.003
558.81	-0.003
559.01	-0.003
559.21	-0.003
559.40	-0.003
559.60	-0.003
559.80	-0.003
559.99	-0.003
560.19	-0.002
560.39	-0.002
560.58	-0.002
560.78	-0.002
560.97	-0.002
561.17	-0.002
561.37	-0.002
561.56	-0.002
561.76	-0.002
561.96	-0.002
562.15	-0.002
562.35	-0.003
562.55	-0.003
562.74	-0.003
562.94	-0.003
563.14	-0.003
563.33	-0.003
563.53	-0.003
563.73	-0.003
563.92	-0.003
564.12	-0.003
564.31	-0.003
564.51	-0.003
564.71	-0.003
564.90	-0.003
565.10	-0.003
565.30	-0.003
565.49	-0.003
565.69	-0.003
565.89	-0.003
566.08	-0.002
566.28	-0.002
566.47	-0.002
566.67	-0.002
566.87	-0.002
567.06	-0.002
567.26	-0.002
567.46	-0.002
567.65	-0.002
567.85	-0.002
568.04	-0.002
568.24	-0.002
568.44	-0.002
568.63	-0.002
568.83	-0.002
569.02	-0.002
569.22	-0.002
569.42	-0.002
569.61	-0.002
569.81	-0.002
570.00	-0.002
570.20	-0.002
570.40	-0.002
570.59	-0.002
570.79	-0.002
570.98	-0.002
571.18	-0.002
571.38	-0.002
571.57	-0.002
571.77	-0.002
571.96	-0.003
572.16	-0.003
572.35	-0.003
572.55	-0.003
572.75	-0.003
572.94	-0.003
573.14	-0.003
573.33	-0.003
573.53	-0.003
573.73	-0.003
573.92	-0.003
574.12	-0.003
574.31	-0.003
574.51	-0.003
574.70	-0.002
574.90	-0.002
575.09	-0.002
575.29	-0.002
575.49	-0.001
575.68	-0.001
575.88	-0.001
576.07	-0.000
576.27	-0.000
576.46	-0.000
576.66	-0.000
576.86	-0.000
577.05	-0.000
577.25	-0.000
577.44	-0.000
577.64	-0.000
577.83	-0.000
578.03	-0.000
578.22	-0.000
578.42	-0.000
578.61	-0.000
578.81	-0.000
579.00	-0.000
579.20	-0.000
579.40	-0.000
579.59	-0.000
579.79	-0.000
579.98	-0.000
580.18	-0.000
580.37	-0.000
580.57	-0.000
580.76	-0.000
580.96	-0.000
581.15	-0.000
581.35	-0.000
581.54	-0.000
581.74	-0.000
581.93	-0.000
582.13	-0.000
582.32	-0.000
582.52	-0.000
582.71	-0.000
582.91	-0.000
583.10	-0.000
583.30	-0.000
583.49	-0.000
583.69	-0.000
583.88	-0.000
584.08	-0.000
584.27	-0.000
584.47	-0.000
584.66	-0.000
584.86	-0.000
585.05	-0.000
585.25	-0.000
585.44	-0.000
585.64	-0.000
585.83	-0.000
586.03	-0.000
586.22	-0.000
586.42	-0.000
586.61	-0.001
586.81	-0.001
587.00	-0.001
587.20	-0.001
587.39	-0.001
587.59	-0.002
587.78	-0.002
587.98	-0.002
588.17	-0.002
588.37	-0.003
588.56	-0.003
588.76	-0.003
588.95	-0.002
589.15	-0.002
589.34	-0.002
589.54	-0.002
589.73	-0.002
589.92	-0.002
590.12	-0.002
590.31	-0.002
590.51	-0.002
590.70	-0.002
590.90	-0.002
591.09	-0.002
591.29	-0.002
591.48	-0.002
591.68	-0.002
591.87	-0.002
592.06	-0.002
592.26	-0.002
592.45	-0.002
592.65	-0.002
592.84	-0.002
593.04	-0.002
593.23	-0.002
593.43	-0.002
593.62	-0.002
593.81	-0.002
594.01	-0.002
594.20	-0.002
594.40	-0.002
594.59	-0.002
594.79	-0.002
594.98	-0.002
595.17	-0.003
595.37	-0.002
595.56	-0.003
595.76	-0.002
595.95	-0.002
596.14	-0.002
596.34	-0.002
596.53	-0.002
596.73	-0.002
596.92	-0.002
597.12	-0.002
597.31	-0.002
597.50	-0.002
597.70	-0.002
597.89	-0.002
598.09	-0.002
598.28	-0.002
598.47	-0.002
598.67	-0.002
598.86	-0.002
599.06	-0.002
599.25	-0.002
599.44	-0.002
599.64	-0.003
599.83	-0.003
600.03	-0.003
600.22	-0.003
600.41	-0.002
600.61	-0.002
600.80	-0.002
601.00	-0.002
601.19	-0.002
601.38	-0.003
601.58	-0.002
601.77	-0.002
601.96	-0.002
602.16	-0.002
602.35	-0.002
602.55	-0.002
602.74	-0.002
602.93	-0.002
603.13	-0.002
603.32	-0.002
603.51	-0.002
603.71	-0.002
603.90	-0.002
604.09	-0.002
604.29	-0.002
604.48	-0.002
604.68	-0.002
604.87	-0.002
605.06	-0.002
605.26	-0.002
605.45	-0.002
605.64	-0.002
605.84	-0.002
606.03	-0.002
606.22	-0.002
606.42	-0.002
606.61	-0.002
606.80	-0.002
607.00	-0.002
607.19	-0.002
607.38	-0.002
607.58	-0.002
607.77	-0.002
607.96	-0.002
608.16	-0.002
608.35	-0.003
608.54	-0.003
608.74	-0.003
608.93	-0.003
609.12	-0.003
609.32	-0.003
609.51	-0.003
609.70	-0.002
609.90	-0.003
610.09	-0.002
610.28	-0.002
610.48	-0.002
610.67	-0.002
610.86	-0.002
611.06	-0.002
611.25	-0.002
611.44	-0.002
611.64	-0.002
611.83	-0.002
612.02	-0.002
612.21	-0.002
612.41	-0.002
612.60	-0.002
612.79	-0.002
612.99	-0.002
613.18	-0.002
613.37	-0.002
613.57	-0.002
613.76	-0.002
613.95	-0.002
614.14	-0.002
614.34	-0.002
614.53	-0.002
614.72	-0.002
614.92	-0.002
615.11	-0.002
615.30	-0.002
615.49	-0.002
615.69	-0.002
615.88	-0.002
616.07	-0.002
616.26	-0.002
616.46	-0.002
616.65	-0.002
616.84	-0.002
617.04	-0.002
617.23	-0.002
617.42	-0.002
617.61	-0.002
617.81	-0.002
618.00	-0.002
618.19	-0.002
618.38	-0.002
618.58	-0.002
618.77	-0.002
618.96	-0.002
619.15	-0.001
619.35	-0.002
619.54	-0.002
619.73	-0.002
619.92	-0.002
620.12	-0.002
620.31	-0.002
620.50	-0.002
620.69	-0.002
620.89	-0.002
621.08	-0.002
621.27	-0.002
621.46	-0.002
621.66	-0.002
621.85	-0.002
622.04	-0.002
622.23	-0.002
622.43	-0.002
622.62	-0.002
622.81	-0.002
623.00	-0.002
623.19	-0.002
623.39	-0.002
623.58	-0.002
623.77	-0.002
623.96	-0.002
624.16	-0.002
624.35	-0.002
624.54	-0.002
624.73	-0.002
624.92	-0.002
625.12	-0.002
625.31	-0.002
625.50	-0.002
625.69	-0.002
625.88	-0.002
626.08	-0.001
626.27	-0.001
626.46	-0.002
626.65	-0.002
626.84	-0.002
627.04	-0.002
627.23	-0.001
627.42	-0.002
627.61	-0.001
627.80	-0.002
628.00	-0.002
628.19	-0.002
628.38	-0.002
628.57	-0.002
628.76	-0.001
628.96	-0.002
629.15	-0.002
629.34	-0.002
629.53	-0.002
629.72	-0.002
629.91	-0.002
630.11	-0.002
630.30	-0.002
630.49	-0.002
630.68	-0.002
630.87	-0.002
631.06	-0.001
631.26	-0.001
631.45	-0.001
631.64	-0.001
631.83	-0.001
632.02	-0.001
632.21	-0.001
632.41	-0.001
632.60	-0.001
632.79	-0.001
632.98	-0.001
633.17	-0.001
633.36	-0.001
633.55	-0.001
633.75	-0.001
633.94	-0.002
634.13	-0.002
634.32	-0.001
634.51	-0.001
634.70	-0.001
634.89	-0.001
635.09	-0.001
635.28	-0.001
635.47	-0.001
635.66	-0.001
635.85	-0.001
636.04	-0.001
636.23	-0.001
636.43	-0.001
636.62	-0.001
636.81	-0.001
637.00	-0.001
637.19	-0.001
637.38	-0.001
637.57	-0.002
637.76	-0.002
637.95	-0.002
638.15	-0.002
638.34	-0.002
638.53	-0.002
638.72	-0.002
638.91	-0.002
639.10	-0.001
639.29	-0.001
639.48	-0.001
639.67	-0.002
639.87	-0.001
640.06	-0.001
640.25	-0.001
640.44	-0.001
640.63	-0.001
640.82	-0.001
641.01	-0.001
641.20	-0.001
641.39	-0.001
641.58	-0.001
641.78	-0.001
641.97	-0.001
642.16	-0.001
642.35	-0.001
642.54	-0.001
642.73	-0.001
642.92	-0.001
643.11	-0.001
643.30	-0.001
643.49	-0.001
643.68	-0.001
643.87	-0.001
644.06	-0.001
644.25	-0.001
644.45	-0.001
644.64	-0.001
644.83	-0.001
645.02	-0.001
645.21	-0.001
645.40	-0.001
645.59	-0.001
645.78	-0.001
645.97	-0.001
646.16	-0.001
646.35	-0.001
646.54	-0.001
646.73	-0.001
646.92	-0.001
647.11	-0.001
647.30	-0.001
647.49	-0.001
647.68	-0.001
647.88	-0.001
648.07	-0.001
648.26	-0.001
648.45	-0.001
648.64	-0.001
648.83	-0.001
649.02	-0.001
649.21	-0.001
649.40	-0.001
649.59	-0.001
649.78	-0.001
649.97	-0.001
650.16	-0.001
650.35	-0.001
650.54	-0.002
650.73	-0.002
650.92	-0.002
651.11	-0.002
651.30	-0.002
651.49	-0.002
651.68	-0.002
651.87	-0.002
652.06	-0.002
652.25	-0.002
652.44	-0.001
652.63	-0.001
652.82	-0.001
653.01	-0.001
653.20	-0.000
653.39	-0.000
653.58	-0.000
653.77	-0.000
653.96	-0.000
654.15	-0.001
654.34	-0.001
654.53	-0.001
654.72	-0.001
654.91	-0.001
655.10	-0.001
655.29	-0.001
655.48	-0.001
655.67	-0.001
655.86	-0.001
656.05	-0.001
656.24	-0.001
656.43	-0.002
656.62	-0.002
656.81	-0.002
657.00	-0.002
657.19	-0.002
657.38	-0.002
657.57	-0.002
657.76	-0.002
657.95	-0.003
658.14	-0.002
658.33	-0.003
658.51	-0.002
658.70	-0.002
658.89	-0.002
659.08	-0.002
659.27	-0.002
659.46	-0.002
659.65	-0.002
659.84	-0.002
660.03	-0.002
660.22	-0.002
660.41	-0.001
660.60	-0.001
660.79	-0.001
660.98	-0.001
661.17	-0.001
661.36	-0.001
661.55	-0.001
661.74	-0.001
661.92	-0.001
662.11	-0.001
662.30	-0.001
662.49	-0.001
662.68	-0.001
662.87	-0.001
663.06	-0.001
663.25	-0.001
663.44	-0.001
663.63	-0.001
663.82	-0.001
664.01	-0.001
664.20	-0.001
664.38	-0.001
664.57	-0.001
664.76	-0.001
664.95	-0.001
665.14	-0.001
665.33	-0.001
665.52	-0.001
665.71	-0.001
665.90	-0.001
666.09	-0.001
666.28	-0.001
666.46	-0.001
666.65	-0.001
666.84	-0.001
667.03	-0.001
667.22	-0.001
667.41	-0.001
667.60	-0.001
667.79	-0.001
667.98	-0.001
668.16	-0.001
668.35	-0.001
668.54	-0.001
668.73	-0.001
668.92	-0.001
669.11	-0.001
669.30	-0.001
669.49	-0.001
669.67	-0.001
669.86	-0.001
670.05	-0.001
670.24	-0.001
670.43	-0.001
670.62	-0.001
670.81	-0.001
671.00	-0.001
671.18	-0.001
671.37	-0.001
671.56	-0.001
671.75	-0.001
671.94	-0.001
672.13	-0.001
672.32	-0.001
672.50	-0.001
672.69	-0.001
672.88	-0.001
673.07	-0.001
673.26	-0.001
673.45	-0.001
673.63	-0.001
673.82	-0.001
674.01	-0.001
674.20	-0.001
674.39	-0.001
674.58	-0.001
674.76	-0.001
674.95	-0.001
675.14	-0.001
675.33	-0.001
675.52	-0.001
675.71	-0.001
675.89	-0.001
676.08	-0.001
676.27	-0.001
676.46	-0.001
676.65	-0.001
676.84	-0.001
677.02	-0.001
677.21	-0.001
677.40	-0.001
677.59	-0.001
677.78	-0.001
677.96	-0.001
678.15	-0.001
678.34	-0.001
678.53	-0.001
678.72	-0.001
678.90	-0.001
679.09	-0.001
679.28	-0.001
679.47	-0.001
679.66	-0.001
679.84	-0.001
680.03	-0.001
680.22	-0.001
680.41	-0.001
680.60	-0.001
680.78	-0.001
680.97	-0.001
681.16	-0.001
681.35	-0.001
681.53	-0.001
681.72	-0.001
681.91	-0.001
682.10	-0.001
682.29	-0.001
682.47	-0.001
682.66	-0.001
682.85	-0.001
683.04	-0.001
683.22	-0.001
683.41	-0.001
683.60	-0.001
683.79	-0.001
683.97	-0.001
684.16	-0.001
684.35	-0.001
684.54	-0.001
684.72	-0.001
684.91	-0.001
685.10	-0.001
685.29	-0.001
685.47	-0.001
685.66	-0.001
685.85	-0.001
686.04	-0.001
686.22	-0.001
686.41	-0.001
686.60	-0.001
686.79	-0.001
686.97	-0.001
687.16	-0.001
687.35	-0.001
687.54	-0.001
687.72	-0.001
687.91	-0.001
688.10	-0.001
688.29	-0.001
688.47	-0.001
688.66	-0.001
688.85	-0.001
689.03	-0.001
689.22	-0.001
689.41	-0.001
689.60	-0.001
689.78	-0.001
689.97	-0.001
690.16	-0.001
690.34	-0.001
690.53	-0.001
690.72	-0.001
690.91	-0.001
691.09	-0.001
691.28	-0.001
691.47	-0.001
691.65	-0.001
691.84	-0.001
692.03	-0.001
692.21	-0.001
692.40	-0.001
692.59	-0.001
692.77	-0.001
692.96	-0.001
693.15	-0.001
693.34	-0.001
693.52	-0.001
693.71	-0.001
693.90	-0.001
694.08	-0.002
694.27	-0.001
694.46	-0.001
694.64	-0.001
694.83	-0.001
695.02	-0.001
695.20	-0.001
695.39	-0.001
695.58	-0.001
695.76	-0.001
695.95	-0.001
696.14	-0.001
696.32	-0.001
696.51	-0.001
696.70	-0.001
696.88	-0.001
697.07	-0.001
697.26	-0.001
697.44	-0.001
697.63	-0.001
697.81	-0.001
698.00	-0.001
698.19	-0.001
698.37	-0.001
698.56	-0.001
698.75	-0.001
698.93	-0.001
699.12	-0.001
699.31	-0.001
699.49	-0.001
699.68	-0.001
699.87	-0.001
700.05	-0.001
700.24	-0.001
700.42	-0.001
700.61	-0.001
700.80	-0.001
700.98	-0.001
701.17	-0.001
701.36	-0.001
701.54	-0.001
701.73	-0.001
701.91	-0.001
702.10	-0.001
702.29	-0.001
702.47	-0.001
702.66	-0.001
702.84	-0.001
703.03	-0.001
703.22	-0.001
703.40	-0.001
703.59	-0.001
703.77	-0.001
703.96	-0.001
704.15	-0.001
704.33	-0.001
704.52	-0.001
704.70	-0.001
704.89	-0.001
705.08	-0.001
705.26	-0.001
705.45	-0.001
705.63	-0.001
705.82	-0.001
706.00	-0.001
706.19	-0.001
706.38	-0.001
706.56	-0.001
706.75	-0.001
706.93	-0.001
707.12	-0.001
707.30	-0.001
707.49	-0.001
707.68	-0.001
707.86	-0.001
708.05	-0.001
708.23	-0.001
708.42	-0.001
708.60	-0.001
708.79	-0.001
708.98	-0.001
709.16	-0.001
709.35	-0.001
709.53	-0.001
709.72	-0.001
709.90	-0.001
710.09	-0.001
710.27	-0.001
710.46	-0.001
710.64	-0.001
710.83	-0.001
711.02	-0.001
711.20	-0.001
711.39	-0.001
711.57	-0.001
711.76	-0.001
711.94	-0.001
712.13	-0.001
712.31	-0.001
712.50	-0.001
712.68	-0.001
712.87	-0.001
713.05	-0.001
713.24	-0.001
713.42	-0.001
713.61	-0.001
713.79	-0.001
713.98	-0.001
714.16	-0.001
714.35	-0.001
714.54	-0.001
714.72	-0.001
714.91	-0.001
715.09	-0.001
715.28	-0.001
715.46	-0.001
715.65	-0.001
715.83	-0.001
716.02	-0.001
716.20	-0.001
716.39	-0.001
716.57	-0.001
716.76	-0.001
716.94	-0.001
717.12	-0.001
717.31	-0.001
717.49	-0.001
717.68	-0.001
717.86	-0.001
718.05	-0.001
718.23	-0.000
718.42	-0.001
718.60	-0.001
718.79	-0.001
718.97	-0.001
719.16	-0.001
719.34	-0.001
719.53	-0.001
719.71	-0.001
719.90	-0.001
720.08	-0.001
720.27	-0.001
720.45	-0.001
720.63	-0.001
720.82	-0.001
721.00	-0.001
721.19	-0.001
721.37	-0.001
721.56	-0.001
721.74	-0.001
721.93	-0.001
722.11	-0.001
722.30	-0.001
722.48	-0.001
722.66	-0.001
722.85	-0.001
723.03	-0.001
723.22	-0.001
723.40	-0.001
723.59	-0.001
723.77	-0.001
723.95	-0.002
724.14	-0.001
724.32	-0.001
724.51	-0.001
724.69	-0.002
724.88	-0.001
725.06	-0.001
725.24	-0.001
725.43	-0.001
725.61	-0.000
725.80	-0.001
725.98	-0.000
726.16	-0.000
726.35	-0.000
726.53	-0.000
726.72	-0.000
726.90	-0.001
727.09	-0.001
727.27	-0.001
727.45	-0.001
727.64	-0.001
727.82	-0.001
728.01	-0.001
728.19	-0.001
728.37	-0.001
728.56	-0.001
728.74	-0.001
728.92	-0.001
729.11	-0.001
729.29	-0.000
729.48	-0.001
729.66	-0.001
729.84	-0.001
730.03	-0.001
730.21	-0.001
730.40	-0.001
730.58	-0.001
730.76	-0.001
730.95	-0.001
731.13	-0.001
731.31	-0.002
731.50	-0.001
731.68	-0.002
731.86	-0.002
732.05	-0.002
732.23	-0.001
732.42	-0.001
732.60	-0.001
732.78	-0.001
732.97	-0.001
733.15	-0.002
733.33	-0.002
733.52	-0.002
733.70	-0.002
733.88	-0.002
734.07	-0.002
734.25	-0.002
734.43	-0.002
734.62	-0.002
734.80	-0.002
734.98	-0.001
735.17	-0.001
735.35	-0.001
735.53	-0.001
735.72	-0.001
735.90	-0.001
736.08	-0.001
736.27	-0.001
736.45	-0.001
736.63	-0.002
736.82	-0.001
737.00	-0.002
737.18	-0.001
737.37	-0.002
737.55	-0.002
737.73	-0.002
737.92	-0.001
738.10	-0.001
738.28	-0.001
738.46	-0.002
738.65	-0.001
738.83	-0.001
739.01	-0.001
739.20	-0.001
739.38	-0.000
739.56	-0.000
739.75	-0.000
739.93	-0.001
740.11	-0.001
740.29	-0.001
740.48	-0.001
740.66	-0.001
740.84	-0.001
741.03	-0.001
741.21	-0.002
741.39	-0.002
741.57	-0.002
741.76	-0.002
741.94	-0.001
742.12	-0.001
742.31	-0.001
742.49	-0.001
742.67	-0.001
742.85	-0.001
743.04	-0.001
743.22	-0.001
743.40	-0.001
743.58	-0.001
743.77	-0.002
743.95	-0.002
744.13	-0.002
744.31	-0.002
744.50	-0.002
744.68	-0.002
744.86	-0.002
745.04	-0.001
745.23	-0.001
745.41	-0.002
745.59	-0.001
745.77	-0.001
745.96	-0.001
746.14	-0.001
746.32	-0.001
746.50	-0.002
746.69	-0.002
746.87	-0.002
747.05	-0.003
747.23	-0.002
747.42	-0.002
747.60	-0.002
747.78	-0.002
747.96	-0.002
748.14	-0.002
748.33	-0.001
748.51	-0.002
748.69	-0.002
748.87	-0.002
749.06	-0.002
749.24	-0.002
749.42	-0.002
749.60	-0.002
749.78	-0.002
749.97	-0.002
750.15	-0.002
750.33	-0.002
750.51	-0.002
750.69	-0.001
750.88	-0.001
751.06	-0.001
751.24	-0.001
751.42	-0.001
751.60	-0.000
751.79	-0.001
751.97	-0.001
752.15	-0.001
752.33	-0.001
752.51	-0.001
752.69	-0.001
752.88	-0.001
753.06	-0.002
753.24	-0.001
753.42	-0.001
753.60	-0.002
753.78	-0.001
753.97	-0.002
754.15	-0.001
754.33	-0.001
754.51	-0.001
754.69	-0.001
754.87	-0.000
755.06	-0.001
755.24	-0.001
755.42	-0.001
755.60	-0.001
755.78	-0.001
755.96	-0.001
756.15	-0.001
756.33	-0.002
756.51	-0.002
756.69	-0.002
756.87	-0.002
757.05	-0.002
757.23	-0.001
757.42	-0.001
757.60	-0.001
757.78	-0.001
757.96	-0.001
758.14	-0.001
758.32	-0.000
758.50	-0.001
758.69	-0.001
758.87	-0.001
759.05	-0.001
759.23	-0.000
759.41	-0.001
759.59	-0.001
759.77	-0.001
759.95	-0.001
760.13	-0.001
760.32	-0.001
760.50	-0.001
760.68	-0.001
760.86	-0.002
761.04	-0.002
761.22	-0.003
761.40	-0.002
761.58	-0.001
761.76	-0.001
761.95	-0.001
762.13	-0.001
762.31	-0.001
762.49	-0.001
762.67	-0.001
762.85	-0.001
763.03	-0.000
763.21	0.000
763.39	0.000
763.57	0.000
763.75	0.000
763.94	0.001
764.12	0.001
764.30	0.001
764.48	0.001
764.66	0.001
764.84	0.000
765.02	0.000
765.20	-0.001
765.38	-0.001
765.56	-0.002
765.74	-0.002
765.92	-0.003
766.10	-0.003
766.28	-0.003
766.46	-0.003
766.65	-0.003
766.83	-0.003
767.01	-0.003
767.19	-0.002
767.37	-0.002
767.55	-0.002
767.73	-0.002
767.91	-0.002
768.09	-0.001
768.27	-0.002
768.45	-0.002
768.63	-0.001
768.81	-0.001
768.99	-0.001
769.17	-0.002
769.35	-0.002
769.53	-0.002
769.71	-0.003
769.89	-0.003
770.07	-0.003
770.25	-0.002
770.43	-0.002
770.61	-0.002
770.79	-0.003
770.97	-0.003
771.15	-0.002
771.33	-0.002
771.51	-0.002
771.69	-0.001
771.87	-0.000
772.05	0.000
772.24	-0.000
772.42	-0.000
772.60	0.000
772.78	0.001
772.96	0.001
773.14	0.001
773.32	0.000
773.49	-0.000
773.67	-0.000
773.85	-0.001
774.03	-0.001
774.21	-0.002
774.39	-0.002
774.57	-0.002
774.75	-0.003
774.93	-0.003
775.11	-0.003
775.29	-0.002
775.47	-0.003
775.65	-0.002
775.83	-0.003
776.01	-0.002
776.19	-0.002
776.37	-0.003
776.55	-0.002
776.73	-0.002
776.91	-0.002
777.09	-0.001
777.27	-0.002
777.45	-0.002
777.63	-0.002
777.81	-0.002
777.99	-0.003
778.17	-0.003
778.35	-0.002
778.53	-0.002
778.71	-0.003
778.89	-0.002
779.07	-0.003
779.24	-0.001
779.42	-0.001
779.60	-0.001
779.78	-0.001
779.96	-0.001
780.14	-0.001
780.32	-0.000
780.50	-0.000
780.68	0.000
780.86	0.000
781.04	0.000
781.22	-0.000
781.40	0.000
781.58	0.000
781.75	0.000
781.93	0.000
782.11	0.000
782.29	-0.000
782.47	-0.000
782.65	0.000
782.83	-0.000
783.01	-0.000
783.19	-0.001
783.37	-0.001
783.55	-0.001
783.72	-0.001
783.90	-0.001
784.08	-0.001
784.26	-0.000
784.44	-0.001
784.62	-0.001
784.80	-0.001
784.98	-0.001
785.16	-0.000
785.33	-0.000
785.51	-0.001
785.69	-0.000
785.87	-0.001
786.05	-0.001
786.23	-0.000
786.41	-0.000
786.59	-0.000
786.77	0.001
786.94	0.001
787.12	0.000
787.30	0.000
787.48	0.000
787.66	0.000
787.84	0.000
788.02	-0.000
788.19	-0.000
788.37	-0.000
788.55	-0.001
788.73	-0.001
788.91	-0.001
789.09	-0.001
789.27	-0.001
789.44	-0.001
789.62	-0.001
789.80	-0.001
789.98	-0.001
790.16	-0.001
790.34	-0.001
790.51	-0.000
790.69	-0.000
790.87	0.000
791.05	0.000
791.23	0.000
791.41	0.001
791.58	0.000
791.76	0.001
791.94	-0.000
792.12	-0.000
792.30	-0.000
792.48	-0.001
792.65	-0.000
792.83	-0.000
793.01	-0.001
793.19	-0.001
793.37	-0.002
793.54	-0.001
793.72	-0.002
793.90	-0.002
794.08	-0.001
794.26	-0.002
794.43	-0.001
794.61	-0.002
794.79	-0.002
794.97	-0.002
795.15	-0.002
795.32	-0.002
795.50	-0.002
795.68	-0.001
795.86	-0.002
796.04	-0.002
796.21	-0.002
796.39	-0.002
796.57	-0.001
796.75	-0.001
796.92	-0.001
797.10	-0.001
797.28	-0.001
797.46	-0.001
797.64	-0.001
797.81	-0.001
797.99	-0.000
798.17	-0.000
798.35	0.000
798.52	-0.000
798.70	-0.000
798.88	-0.000
799.06	0.000
799.23	0.000
799.41	0.000
799.59	-0.000
799.77	0.000
799.94	0.000
800.12	0.000
800.30	0.000
800.48	0.000
800.65	0.001
800.83	0.000
801.01	0.000
801.19	0.000
801.36	0.000
801.54	0.000
801.72	-0.000
801.90	-0.000
802.07	-0.000
802.25	-0.000
802.43	-0.001
802.60	-0.001
802.78	-0.001
802.96	-0.001
803.14	-0.001
803.31	-0.001
803.49	-0.001
803.67	-0.001
803.84	-0.001
804.02	-0.000
804.20	-0.000
804.38	-0.000
804.55	0.000
804.73	0.000
804.91	0.000
805.08	0.000
805.26	-0.000
805.44	-0.000
805.61	-0.000
805.79	-0.000
805.97	-0.001
806.15	-0.001
806.32	-0.001
806.50	-0.001
806.68	-0.002
806.85	-0.002
807.03	-0.001
807.21	-0.002
807.38	-0.002
807.56	-0.002
807.74	-0.002
807.91	-0.002
808.09	-0.001
808.27	-0.001
808.44	-0.001
808.62	-0.002
808.80	-0.002
808.97	-0.001
809.15	-0.001
809.33	-0.001
809.50	-0.001
809.68	-0.001
809.86	-0.001
810.03	-0.001
810.21	-0.001
810.39	-0.001
810.56	-0.001
810.74	-0.001
810.91	-0.001
811.09	-0.001
811.27	-0.001
811.44	-0.001
811.62	-0.001
811.80	-0.001
811.97	-0.001
812.15	-0.001
812.33	-0.001
812.50	-0.001
812.68	-0.002
812.85	-0.002
813.03	-0.001
813.21	-0.001
813.38	-0.002
813.56	-0.002
813.74	-0.002
813.91	-0.002
814.09	-0.002
814.26	-0.002
814.44	-0.001
814.62	-0.001
814.79	-0.001
814.97	-0.001
815.14	-0.001
815.32	-0.000
815.50	0.000
815.67	-0.000
815.85	-0.000
816.02	-0.000
816.20	-0.000
816.38	-0.000
816.55	-0.000
816.73	-0.001
816.90	-0.001
817.08	-0.001
817.26	-0.000
817.43	-0.001
817.61	-0.001
817.78	-0.000
817.96	-0.001
818.13	-0.001
818.31	-0.001
818.49	-0.001
818.66	-0.001
818.84	-0.001
819.01	-0.001
819.19	-0.001
819.36	-0.001
819.54	-0.001
819.71	-0.001
819.89	-0.001
820.07	-0.001
820.24	-0.001
820.42	-0.001
820.59	-0.001
820.77	-0.001
820.94	-0.001
821.12	-0.001
821.29	-0.001
821.47	-0.001
821.64	-0.001
821.82	-0.001
822.00	-0.001
822.17	-0.001
822.35	-0.001
822.52	-0.001
822.70	-0.001
822.87	-0.001
823.05	-0.001
823.22	-0.001
823.40	-0.001
823.57	-0.001
823.75	-0.000
823.92	-0.001
824.10	-0.001
824.27	-0.001
824.45	-0.001
824.62	-0.001
824.80	-0.000
824.97	-0.000
825.15	-0.000
825.32	-0.001
825.50	-0.001
825.67	-0.001
825.85	-0.001
826.02	-0.001
826.20	-0.001
826.37	-0.001
826.55	-0.001
826.72	-0.001
826.90	-0.002
827.07	-0.002
827.25	-0.002
827.42	-0.002
827.60	-0.002
827.77	-0.002
827.95	-0.003
828.12	-0.002
828.30	-0.002
828.47	-0.002
828.65	-0.002
828.82	-0.003
829.00	-0.002
829.17	-0.002
829.34	-0.001
829.52	-0.001
829.69	-0.001
829.87	-0.001
830.04	-0.001
830.22	-0.001
830.39	-0.001
830.57	-0.001
830.74	-0.001
830.92	-0.000
831.09	-0.001
831.26	-0.001
831.44	-0.001
831.61	-0.000
831.79	-0.001
831.96	-0.000
832.14	-0.000
832.31	-0.000
832.49	-0.000
832.66	0.001
832.83	-0.001
833.01	0.000
833.18	-0.001
833.36	-0.001
833.53	0.001
833.70	0.002
833.88	0.001
834.05	0.001
834.23	0.000
834.40	0.001
834.58	0.001
834.75	0.002
834.92	0.002
835.10	0.002
835.27	0.003
835.45	-0.001
835.62	0.001
835.79	-0.001
835.97	-0.001
836.14	-0.001
836.32	-0.002
836.49	-0.002
836.66	-0.003
836.84	-0.006
837.01	-0.007
837.18	-0.007
837.36	-0.005
837.53	-0.006
837.71	-0.004
837.88	-0.004
838.05	-0.003
838.23	-0.002
838.40	-0.002
838.58	-0.001
838.75	-0.001
838.92	-0.001
839.10	-0.001
839.27	-0.002
839.44	-0.002
839.62	-0.004
839.79	-0.003
839.96	-0.004
840.14	-0.004
840.31	-0.004
840.48	-0.003
840.66	-0.002
840.83	-0.001
841.01	-0.001
841.18	0.001
841.35	-0.001
841.53	0.001
841.70	0.001
841.87	0.002
842.05	0.003
842.22	0.003
842.39	0.002
842.57	0.000
842.74	-0.000
842.91	-0.003
843.09	-0.004
843.26	-0.004
843.43	-0.004
843.60	-0.006
843.78	-0.006
843.95	-0.008
844.12	-0.004
844.30	-0.006
844.47	-0.005
844.64	-0.007
844.82	-0.005
844.99	-0.005
845.16	-0.003
845.34	-0.004
845.51	-0.003
845.68	-0.002
845.85	-0.002
846.03	-0.003
846.20	-0.001
846.37	-0.001
846.55	0.002
846.72	0.002
846.89	0.003
847.06	0.002
847.24	0.003
847.41	0.003
847.58	0.000
847.76	-0.000
847.93	0.000
848.10	0.000
848.27	-0.000
848.45	-0.001
848.62	-0.000
848.79	-0.001
848.97	0.000
849.14	0.000
849.31	0.001
849.48	0.002
849.66	0.001
849.83	-0.001
850.00	0.000
850.17	0.001
850.35	-0.000
850.52	0.001
850.69	0.001
850.86	0.001
851.04	-0.000
851.21	-0.002
851.38	-0.002
851.55	-0.001
851.72	0.001
851.90	0.002
852.07	0.001
852.24	-0.001
852.41	-0.003
852.59	-0.003
852.76	-0.001
852.93	-0.001
853.10	-0.000
853.28	-0.002
853.45	-0.001
853.62	-0.004
853.79	-0.006
853.96	-0.006
854.14	-0.003
854.31	-0.003
854.48	-0.004
854.65	-0.007
854.82	-0.007
855.00	-0.006
855.17	-0.003
855.34	-0.007
855.51	-0.005
855.68	-0.005
855.86	-0.004
856.03	-0.002
856.20	0.000
856.37	-0.002
856.54	0.000
856.72	0.001
856.89	-0.001
857.06	-0.003
857.23	-0.000
857.40	-0.001
857.57	0.000
857.75	-0.001
857.92	-0.003
858.09	-0.006
858.26	-0.003
858.43	-0.008
858.60	-0.008
858.78	-0.005
858.95	-0.005
859.12	-0.003
859.29	-0.004
859.46	-0.007
859.63	-0.005
859.81	-0.009
859.98	-0.008
860.15	-0.008
860.32	-0.003
860.49	-0.005
860.66	-0.004
860.83	-0.007
861.01	-0.011
861.18	-0.008
861.35	-0.002
861.52	-0.003
861.69	0.001
861.86	0.002
862.03	0.000
862.21	0.001
862.38	0.001
862.55	0.001
862.72	0.005
862.89	0.008
863.06	0.008
863.23	0.006
863.40	0.005
863.58	0.001
863.75	0.003
863.92	0.004
864.09	0.001
864.26	0.003
864.43	-0.001
864.60	-0.002
864.77	-0.003
864.94	-0.005
865.11	-0.010
865.29	-0.010
865.46	-0.005
865.63	-0.006
865.80	-0.007
865.97	-0.010
866.14	-0.012
866.31	-0.010
866.48	-0.011
866.65	-0.009
866.82	-0.008
866.99	-0.004
867.16	-0.006
867.34	-0.010
867.51	-0.013
867.68	-0.013
867.85	-0.008
868.02	-0.006
868.19	-0.006
868.36	-0.005
868.53	-0.008
868.70	-0.009
868.87	-0.013
869.04	-0.013
869.21	-0.013
869.38	-0.011
869.55	-0.009
869.72	-0.013
869.89	-0.010
870.06	-0.007
870.24	-0.006
870.41	-0.009
870.58	-0.009
870.75	-0.006
870.92	-0.004
871.09	-0.005
871.26	-0.002
871.43	-0.005
871.60	0.001
871.77	-0.002
871.94	-0.006
872.11	-0.007
872.28	0.001
872.45	-0.001
872.62	0.001
872.79	0.009
872.96	0.011
873.13	0.010
873.30	0.014
873.47	0.010
873.64	0.011
873.81	0.011
873.98	0.007
874.15	-0.000
874.32	-0.000
874.49	-0.000
874.66	-0.010
874.83	-0.006
875.00	-0.008
875.17	-0.012
875.34	-0.010
875.51	-0.010
875.68	-0.007
875.85	-0.004
876.02	-0.001
876.19	0.001
876.36	-0.000
876.53	-0.000
876.70	-0.002
876.87	0.001
877.04	0.005
877.21	0.000
877.38	0.002
877.55	0.006
877.72	0.007
877.89	0.005
878.06	0.004
878.23	0.000
878.39	0.002
878.56	0.001
878.73	0.002
878.90	0.002
879.07	0.006
879.24	0.005
879.41	0.008
879.58	0.007
879.75	0.006
879.92	0.003
880.09	0.002
880.26	-0.000
880.43	-0.004
880.60	-0.010
880.77	-0.017
880.94	-0.022
881.11	-0.024
881.27	-0.026
881.44	-0.027
881.61	-0.022
881.78	-0.016
881.95	-0.009
882.12	-0.004
882.29	-0.004
882.46	0.001
882.63	0.006
882.80	0.007
882.97	0.009
883.14	-0.001
883.30	0.002
883.47	-0.004
883.64	-0.008
883.81	-0.010
883.98	-0.015
884.15	-0.011
884.32	-0.009
884.49	-0.006
884.66	-0.010
884.82	-0.012
884.99	-0.007
885.16	-0.008
885.33	-0.001
885.50	-0.004
885.67	-0.005
885.84	-0.001
886.01	-0.001
886.17	0.000
886.34	0.000
886.51	0.007
886.68	0.006
886.85	0.006
887.02	0.001
887.19	-0.010
887.36	-0.008
887.52	-0.005
887.69	-0.009
887.86	-0.006
888.03	-0.009
888.20	-0.011
888.37	-0.016
888.54	-0.007
888.70	-0.006
888.87	-0.000
889.04	0.012
889.21	0.015
889.38	0.004
889.55	0.012
889.71	0.050
889.88	0.021
890.05	0.001
890.22	-0.064
890.39	0.042
>>>>>End Processed Spectral Data<<<<<
