SpectraSuite Data File
++++++++++++++++++++++++++++++++++++
Date: Mon Jun 15 09:51:15 PDT 2015
User: introlabs
Dark Spectrum Present: Yes
Reference Spectrum Present: Yes
Number of Sampled Component Spectra: 1
Spectrometers: USB4H08886
Integration Time (usec): 44366 (USB4H08886)
Spectra Averaged: 20 (USB4H08886)
Boxcar Smoothing: 5 (USB4H08886)
Correct for Electrical Dark: Yes (USB4H08886)
Strobe/Lamp Enabled: No (USB4H08886)
Correct for Detector Non-linearity: Yes (USB4H08886)
Correct for Stray Light: Yes (USB4H08886)
Number of Pixels in Processed Spectrum: 3648
>>>>>Begin Processed Spectral Data<<<<<
178.14	0.594
178.36	0.594
178.57	0.594
178.79	-0.000
179.01	-0.943
179.22	-0.063
179.44	-0.453
179.65	-0.000
179.87	-0.000
180.08	-0.000
180.30	-0.000
180.52	-0.000
180.73	0.472
180.95	0.857
181.16	1.134
181.38	0.894
181.59	1.262
181.81	2.058
182.03	-0.000
182.24	-0.000
182.46	-0.000
182.67	-0.000
182.89	1.882
183.10	1.592
183.32	1.881
183.54	1.456
183.75	2.482
183.97	2.176
184.18	1.700
184.40	1.506
184.61	1.824
184.83	2.667
185.04	-0.000
185.26	-0.000
185.48	-0.000
185.69	-0.000
185.91	-0.000
186.12	-0.000
186.34	-0.000
186.55	-0.000
186.77	-0.000
186.98	-0.000
187.20	-0.000
187.42	-0.000
187.63	-0.000
187.85	-0.000
188.06	-0.000
188.28	-0.000
188.49	-0.000
188.71	-0.000
188.92	-0.000
189.14	-0.000
189.36	-0.000
189.57	-0.000
189.79	-0.000
190.00	-0.000
190.22	-0.000
190.43	1.861
190.65	1.679
190.86	-0.000
191.08	1.738
191.29	1.855
191.51	2.028
191.72	1.702
191.94	1.708
192.16	1.526
192.37	1.872
192.59	1.893
192.80	2.476
193.02	-0.000
193.23	1.738
193.45	-0.000
193.66	2.180
193.88	1.911
194.09	-0.000
194.31	-0.000
194.52	-0.000
194.74	-0.000
194.95	-0.000
195.17	-0.000
195.38	-0.000
195.60	-0.000
195.81	-0.000
196.03	-0.000
196.25	-0.000
196.46	-0.000
196.68	-0.000
196.89	-0.000
197.11	-0.000
197.32	-0.000
197.54	-0.000
197.75	-0.000
197.97	-0.000
198.18	-0.000
198.40	-0.000
198.61	-0.000
198.83	-0.000
199.04	-0.000
199.26	-0.000
199.47	-0.000
199.69	-0.000
199.90	-0.000
200.12	-0.000
200.33	-0.000
200.55	-0.000
200.76	-0.000
200.98	-0.000
201.19	-0.000
201.41	-0.000
201.62	-0.000
201.84	-0.000
202.05	-0.000
202.27	-0.000
202.48	-0.000
202.70	-0.000
202.91	-0.000
203.13	-0.000
203.34	-0.000
203.56	-0.000
203.77	-0.000
203.99	-0.000
204.20	-0.000
204.42	-0.000
204.63	2.341
204.85	1.535
205.06	1.342
205.28	1.402
205.49	1.354
205.71	1.294
205.92	1.530
206.14	1.459
206.35	1.415
206.56	1.301
206.78	1.411
206.99	1.734
207.21	1.772
207.42	1.602
207.64	1.438
207.85	1.522
208.07	1.928
208.28	1.592
208.50	1.684
208.71	1.884
208.93	2.012
209.14	1.704
209.36	1.445
209.57	1.455
209.79	1.656
210.00	1.669
210.22	1.430
210.43	1.384
210.64	1.485
210.86	1.472
211.07	1.390
211.29	1.437
211.50	1.486
211.72	1.449
211.93	1.478
212.15	1.544
212.36	1.912
212.58	-0.000
212.79	-0.000
213.01	-0.000
213.22	-0.000
213.43	-0.000
213.65	-0.000
213.86	-0.000
214.08	-0.000
214.29	-0.000
214.51	-0.000
214.72	-0.000
214.94	-0.000
215.15	2.123
215.36	2.065
215.58	-0.000
215.79	2.301
216.01	2.370
216.22	-0.000
216.44	-0.000
216.65	-0.000
216.87	-0.000
217.08	-0.000
217.29	-0.000
217.51	-0.000
217.72	-0.000
217.94	-0.000
218.15	-0.000
218.37	-0.000
218.58	-0.000
218.80	2.013
219.01	1.900
219.22	-0.000
219.44	-0.000
219.65	2.375
219.87	1.982
220.08	1.576
220.30	1.542
220.51	1.680
220.72	1.790
220.94	2.200
221.15	-0.000
221.37	-0.000
221.58	-0.000
221.79	2.902
222.01	-0.000
222.22	2.609
222.44	-0.000
222.65	-0.000
222.87	-0.000
223.08	-0.000
223.29	-0.000
223.51	-0.000
223.72	-0.000
223.94	-0.000
224.15	-0.000
224.36	2.815
224.58	-0.000
224.79	2.223
225.01	1.866
225.22	1.872
225.44	1.695
225.65	1.775
225.86	1.582
226.08	1.616
226.29	1.493
226.51	1.487
226.72	1.550
226.93	1.516
227.15	1.618
227.36	1.937
227.58	2.921
227.79	2.327
228.00	2.936
228.22	-0.000
228.43	-0.000
228.65	-0.000
228.86	-0.000
229.07	-0.000
229.29	-0.000
229.50	-0.000
229.72	-0.000
229.93	2.066
230.14	2.265
230.36	2.427
230.57	2.114
230.78	1.819
231.00	1.799
231.21	1.971
231.43	1.815
231.64	1.876
231.85	1.926
232.07	1.901
232.28	2.458
232.50	2.690
232.71	2.687
232.92	-0.000
233.14	-0.000
233.35	-0.000
233.56	3.096
233.78	-0.000
233.99	2.411
234.21	-0.000
234.42	-0.000
234.63	-0.000
234.85	-0.000
235.06	2.638
235.27	2.617
235.49	2.225
235.70	2.376
235.91	2.414
236.13	2.704
236.34	3.300
236.56	2.665
236.77	3.112
236.98	2.840
237.20	-0.000
237.41	-0.000
237.62	-0.000
237.84	-0.000
238.05	-0.000
238.26	3.416
238.48	2.821
238.69	3.380
238.91	3.786
239.12	-0.000
239.33	-0.000
239.55	2.673
239.76	2.831
239.97	2.666
240.19	2.745
240.40	2.382
240.61	2.332
240.83	2.291
241.04	2.315
241.25	2.305
241.47	2.406
241.68	2.494
241.89	2.629
242.11	2.433
242.32	2.459
242.53	2.512
242.75	2.667
242.96	3.924
243.17	-0.000
243.39	-0.000
243.60	-0.000
243.81	3.891
244.03	3.250
244.24	-0.000
244.45	-0.000
244.67	-0.000
244.88	-0.000
245.09	-0.000
245.31	-0.000
245.52	-0.000
245.73	-0.000
245.95	-0.000
246.16	-0.000
246.37	-0.000
246.59	-0.000
246.80	-0.000
247.01	-0.000
247.23	-0.000
247.44	-0.000
247.65	-0.000
247.87	-0.000
248.08	-0.000
248.29	-0.000
248.51	-0.000
248.72	-0.000
248.93	-0.000
249.15	-0.000
249.36	-0.000
249.57	-0.000
249.78	-0.000
250.00	-0.000
250.21	-0.000
250.42	3.928
250.64	3.302
250.85	3.323
251.06	3.393
251.28	3.341
251.49	3.180
251.70	3.014
251.92	3.165
252.13	2.835
252.34	2.867
252.55	2.884
252.77	3.036
252.98	3.284
253.19	3.238
253.41	3.619
253.62	3.191
253.83	3.169
254.05	3.108
254.26	3.039
254.47	3.578
254.68	3.355
254.90	3.985
255.11	-0.000
255.32	-0.000
255.54	-0.000
255.75	-0.000
255.96	-0.000
256.17	-0.000
256.39	-0.000
256.60	-0.000
256.81	-0.000
257.03	-0.000
257.24	-0.000
257.45	3.654
257.66	-0.000
257.88	3.863
258.09	3.544
258.30	3.896
258.51	3.589
258.73	3.447
258.94	3.893
259.15	5.056
259.37	-0.000
259.58	-0.000
259.79	3.990
260.00	3.676
260.22	3.420
260.43	3.785
260.64	-0.000
260.85	-0.000
261.07	-0.000
261.28	3.783
261.49	3.431
261.71	3.302
261.92	3.199
262.13	3.239
262.34	3.030
262.56	3.256
262.77	3.042
262.98	2.996
263.19	3.098
263.41	3.268
263.62	3.339
263.83	3.431
264.04	3.502
264.26	3.241
264.47	3.085
264.68	3.072
264.89	3.044
265.11	3.057
265.32	2.992
265.53	3.029
265.74	3.097
265.96	3.359
266.17	-0.000
266.38	-0.000
266.59	-0.000
266.81	-0.000
267.02	-0.000
267.23	-0.000
267.44	-0.000
267.65	-0.000
267.87	-0.000
268.08	-0.000
268.29	-0.000
268.50	-0.000
268.72	-0.000
268.93	-0.000
269.14	-0.000
269.35	3.620
269.57	3.577
269.78	3.463
269.99	3.680
270.20	-0.000
270.41	4.105
270.63	4.044
270.84	3.692
271.05	-0.000
271.26	-0.000
271.48	-0.000
271.69	-0.000
271.90	-0.000
272.11	-0.000
272.32	-0.000
272.54	-0.000
272.75	-0.000
272.96	-0.000
273.17	-0.000
273.39	4.033
273.60	3.362
273.81	3.274
274.02	3.079
274.23	3.304
274.45	3.413
274.66	3.346
274.87	3.182
275.08	3.115
275.29	3.103
275.51	3.186
275.72	3.323
275.93	3.289
276.14	3.267
276.35	3.397
276.57	3.301
276.78	3.260
276.99	3.437
277.20	3.607
277.41	-0.000
277.63	-0.000
277.84	3.978
278.05	4.050
278.26	-0.000
278.47	-0.000
278.69	-0.000
278.90	-0.000
279.11	-0.000
279.32	-0.000
279.53	-0.000
279.74	4.111
279.96	-0.000
280.17	-0.000
280.38	3.907
280.59	3.590
280.80	3.527
281.02	3.551
281.23	3.376
281.44	3.328
281.65	3.310
281.86	3.166
282.07	3.332
282.29	3.199
282.50	3.298
282.71	3.317
282.92	3.497
283.13	3.438
283.35	3.501
283.56	4.096
283.77	-0.000
283.98	-0.000
284.19	-0.000
284.40	-0.000
284.62	-0.000
284.83	-0.000
285.04	-0.000
285.25	-0.000
285.46	-0.000
285.67	-0.000
285.88	-0.000
286.10	-0.000
286.31	4.104
286.52	3.739
286.73	3.581
286.94	3.688
287.15	4.770
287.37	5.798
287.58	4.174
287.79	3.794
288.00	4.131
288.21	3.701
288.42	3.449
288.63	3.473
288.85	3.677
289.06	4.007
289.27	3.949
289.48	3.610
289.69	3.564
289.90	3.625
290.11	3.669
290.33	3.689
290.54	3.787
290.75	3.581
290.96	3.629
291.17	3.444
291.38	3.494
291.59	3.559
291.81	3.659
292.02	3.594
292.23	3.534
292.44	3.515
292.65	3.389
292.86	3.383
293.07	3.472
293.28	3.579
293.50	3.594
293.71	3.498
293.92	3.431
294.13	3.372
294.34	3.372
294.55	3.473
294.76	3.510
294.97	3.748
295.19	3.595
295.40	3.738
295.61	3.644
295.82	3.543
296.03	3.637
296.24	3.687
296.45	3.746
296.66	3.486
296.87	3.449
297.09	3.464
297.30	3.374
297.51	3.548
297.72	3.534
297.93	3.591
298.14	3.921
298.35	3.753
298.56	3.694
298.77	3.590
298.99	3.826
299.20	3.944
299.41	4.013
299.62	4.185
299.83	4.322
300.04	4.379
300.25	3.937
300.46	3.604
300.67	3.726
300.88	3.669
301.10	3.679
301.31	3.808
301.52	3.789
301.73	3.837
301.94	3.766
302.15	3.558
302.36	3.494
302.57	3.622
302.78	3.866
302.99	3.879
303.20	3.974
303.41	3.944
303.63	3.942
303.84	3.964
304.05	3.762
304.26	3.785
304.47	4.067
304.68	4.142
304.89	4.397
305.10	4.408
305.31	3.898
305.52	4.021
305.73	4.566
305.94	4.682
306.15	-0.000
306.37	-0.000
306.58	-0.000
306.79	-0.000
307.00	4.416
307.21	3.807
307.42	3.768
307.63	4.021
307.84	3.937
308.05	3.924
308.26	3.763
308.47	3.656
308.68	3.542
308.89	3.496
309.10	3.515
309.31	3.715
309.52	3.876
309.73	3.856
309.95	3.638
310.16	3.606
310.37	3.627
310.58	3.707
310.79	3.637
311.00	3.857
311.21	3.899
311.42	4.013
311.63	3.770
311.84	3.784
312.05	3.854
312.26	3.945
312.47	3.787
312.68	3.706
312.89	3.586
313.10	3.631
313.31	3.590
313.52	3.574
313.73	3.479
313.94	3.589
314.15	3.597
314.36	3.553
314.57	3.562
314.78	3.787
314.99	3.848
315.21	4.060
315.42	4.161
315.63	4.019
315.84	3.773
316.05	3.779
316.26	3.580
316.47	3.551
316.68	3.513
316.89	3.565
317.10	3.490
317.31	3.504
317.52	3.478
317.73	3.423
317.94	3.505
318.15	3.497
318.36	3.477
318.57	3.497
318.78	3.494
318.99	3.459
319.20	3.448
319.41	3.327
319.62	3.259
319.83	3.245
320.04	3.264
320.25	3.202
320.46	3.305
320.67	3.374
320.88	3.366
321.09	3.403
321.30	3.428
321.51	3.386
321.72	3.557
321.93	3.683
322.14	3.661
322.35	3.621
322.56	3.739
322.77	3.611
322.98	3.521
323.19	3.583
323.40	3.552
323.61	3.563
323.82	3.557
324.03	3.567
324.24	3.514
324.45	3.517
324.66	3.657
324.87	3.613
325.08	3.644
325.29	3.661
325.50	3.643
325.71	3.701
325.92	3.764
326.13	3.791
326.34	3.682
326.55	3.714
326.76	3.670
326.97	3.534
327.18	3.510
327.39	3.514
327.60	3.480
327.80	3.478
328.01	3.489
328.22	3.497
328.43	3.499
328.64	3.524
328.85	3.612
329.06	3.672
329.27	3.702
329.48	3.772
329.69	3.774
329.90	3.789
330.11	3.841
330.32	3.697
330.53	3.675
330.74	3.763
330.95	3.723
331.16	3.669
331.37	3.701
331.58	3.753
331.79	3.837
332.00	3.810
332.21	3.932
332.42	3.751
332.63	3.746
332.83	3.749
333.04	3.719
333.25	3.751
333.46	3.564
333.67	3.512
333.88	3.483
334.09	3.462
334.30	3.453
334.51	3.464
334.72	3.478
334.93	3.450
335.14	3.461
335.35	3.417
335.56	3.406
335.77	3.487
335.98	3.446
336.18	3.452
336.39	3.455
336.60	3.486
336.81	3.433
337.02	3.420
337.23	3.463
337.44	3.477
337.65	3.635
337.86	3.615
338.07	3.599
338.28	3.761
338.49	3.665
338.70	3.695
338.91	3.680
339.11	3.608
339.32	3.693
339.53	3.649
339.74	3.620
339.95	3.548
340.16	3.510
340.37	3.608
340.58	3.603
340.79	3.655
341.00	3.633
341.21	3.562
341.41	3.597
341.62	3.512
341.83	3.510
342.04	3.499
342.25	3.451
342.46	3.490
342.67	3.437
342.88	3.451
343.09	3.432
343.30	3.433
343.50	3.521
343.71	3.556
343.92	3.576
344.13	3.631
344.34	3.547
344.55	3.559
344.76	3.635
344.97	3.601
345.18	3.602
345.38	3.600
345.59	3.552
345.80	3.474
346.01	3.515
346.22	3.607
346.43	3.621
346.64	3.761
346.85	3.754
347.06	3.632
347.26	3.768
347.47	3.682
347.68	3.711
347.89	3.631
348.10	3.663
348.31	3.585
348.52	3.572
348.73	3.626
348.93	3.591
349.14	3.528
349.35	3.543
349.56	3.455
349.77	3.515
349.98	3.521
350.19	3.632
350.39	3.554
350.60	3.548
350.81	3.496
351.02	3.409
351.23	3.421
351.44	3.443
351.65	3.418
351.86	3.424
352.06	3.371
352.27	3.399
352.48	3.371
352.69	3.438
352.90	3.450
353.11	3.516
353.31	3.542
353.52	3.599
353.73	3.621
353.94	3.686
354.15	3.725
354.36	3.785
354.57	3.799
354.77	3.817
354.98	3.951
355.19	4.014
355.40	3.841
355.61	3.808
355.82	3.658
356.02	3.743
356.23	3.691
356.44	3.649
356.65	3.594
356.86	3.540
357.07	3.611
357.27	3.494
357.48	3.509
357.69	3.572
357.90	3.619
358.11	3.788
358.32	3.708
358.52	3.743
358.73	3.835
358.94	3.771
359.15	3.629
359.36	3.601
359.56	3.673
359.77	3.697
359.98	3.547
360.19	3.538
360.40	3.471
360.61	3.515
360.81	3.555
361.02	3.503
361.23	3.552
361.44	3.649
361.65	3.627
361.85	3.578
362.06	3.573
362.27	3.738
362.48	3.678
362.69	3.584
362.89	3.535
363.10	3.545
363.31	3.496
363.52	3.493
363.73	3.488
363.93	3.480
364.14	3.515
364.35	3.494
364.56	3.479
364.77	3.490
364.97	3.563
365.18	3.577
365.39	3.494
365.60	3.599
365.81	3.544
366.01	3.540
366.22	3.494
366.43	3.403
366.64	3.368
366.84	3.327
367.05	3.329
367.26	3.287
367.47	3.307
367.68	3.380
367.88	3.328
368.09	3.370
368.30	3.409
368.51	3.443
368.71	3.543
368.92	3.597
369.13	3.680
369.34	3.734
369.55	3.714
369.75	3.789
369.96	3.730
370.17	3.809
370.38	3.716
370.58	3.574
370.79	3.552
371.00	3.529
371.21	3.561
371.41	3.481
371.62	3.471
371.83	3.533
372.04	3.460
372.24	3.465
372.45	3.450
372.66	3.510
372.87	3.538
373.07	3.580
373.28	3.648
373.49	3.603
373.70	3.647
373.90	3.687
374.11	3.762
374.32	3.762
374.53	3.646
374.73	3.645
374.94	3.605
375.15	3.643
375.36	3.563
375.56	3.506
375.77	3.520
375.98	3.565
376.19	3.489
376.39	3.431
376.60	3.357
376.81	3.389
377.02	3.392
377.22	3.410
377.43	3.450
377.64	3.474
377.84	3.419
378.05	3.451
378.26	3.420
378.47	3.459
378.67	3.442
378.88	3.508
379.09	3.470
379.30	3.469
379.50	3.427
379.71	3.391
379.92	3.427
380.12	3.471
380.33	3.388
380.54	3.398
380.75	3.437
380.95	3.425
381.16	3.423
381.37	3.446
381.57	3.478
381.78	3.501
381.99	3.513
382.20	3.456
382.40	3.491
382.61	3.483
382.82	3.511
383.02	3.506
383.23	3.509
383.44	3.537
383.64	3.613
383.85	3.575
384.06	3.595
384.27	3.581
384.47	3.592
384.68	3.531
384.89	3.557
385.09	3.528
385.30	3.468
385.51	3.548
385.71	3.584
385.92	3.549
386.13	3.532
386.33	3.506
386.54	3.522
386.75	3.475
386.95	3.454
387.16	3.418
387.37	3.417
387.58	3.382
387.78	3.323
387.99	3.356
388.20	3.342
388.40	3.335
388.61	3.330
388.82	3.312
389.02	3.329
389.23	3.325
389.44	3.359
389.64	3.364
389.85	3.415
390.06	3.479
390.26	3.447
390.47	3.399
390.68	3.393
390.88	3.364
391.09	3.431
391.30	3.465
391.50	3.485
391.71	3.513
391.92	3.480
392.12	3.472
392.33	3.485
392.53	3.435
392.74	3.517
392.95	3.567
393.15	3.706
393.36	3.592
393.57	3.584
393.77	3.606
393.98	3.589
394.19	3.598
394.39	3.551
394.60	3.463
394.81	3.476
395.01	3.486
395.22	3.521
395.43	3.552
395.63	3.598
395.84	3.612
396.04	3.568
396.25	3.593
396.46	3.664
396.66	3.695
396.87	3.854
397.08	3.926
397.28	3.768
397.49	3.677
397.69	3.639
397.90	3.606
398.11	3.632
398.31	3.722
398.52	3.682
398.73	3.548
398.93	3.559
399.14	3.503
399.34	3.467
399.55	3.504
399.76	3.514
399.96	3.503
400.17	3.560
400.37	3.506
400.58	3.625
400.79	3.712
400.99	3.944
401.20	3.839
401.41	3.900
401.61	4.003
401.82	3.951
402.02	3.847
402.23	3.830
402.44	3.638
402.64	3.610
402.85	3.436
403.05	3.367
403.26	3.335
403.47	3.390
403.67	3.386
403.88	3.359
404.08	3.384
404.29	3.416
404.50	3.390
404.70	3.511
404.91	3.535
405.11	3.555
405.32	3.645
405.52	3.635
405.73	3.644
405.94	3.707
406.14	3.640
406.35	3.601
406.55	3.609
406.76	3.571
406.97	3.481
407.17	3.579
407.38	3.634
407.58	3.615
407.79	3.630
407.99	3.576
408.20	3.540
408.41	3.553
408.61	3.590
408.82	3.563
409.02	3.614
409.23	3.615
409.43	3.472
409.64	3.457
409.84	3.494
410.05	3.495
410.26	3.495
410.46	3.504
410.67	3.498
410.87	3.473
411.08	3.486
411.28	3.578
411.49	3.564
411.69	3.671
411.90	3.645
412.11	3.617
412.31	3.568
412.52	3.584
412.72	3.602
412.93	3.642
413.13	3.700
413.34	3.718
413.54	3.605
413.75	3.706
413.95	3.624
414.16	3.738
414.37	3.636
414.57	3.711
414.78	3.658
414.98	3.653
415.19	3.593
415.39	3.483
415.60	3.516
415.80	3.505
416.01	3.510
416.21	3.501
416.42	3.473
416.62	3.484
416.83	3.525
417.03	3.540
417.24	3.477
417.44	3.568
417.65	3.548
417.86	3.478
418.06	3.514
418.27	3.518
418.47	3.478
418.68	3.453
418.88	3.479
419.09	3.364
419.29	3.411
419.50	3.429
419.70	3.380
419.91	3.464
420.11	3.471
420.32	3.367
420.52	3.393
420.73	3.446
420.93	3.373
421.14	3.389
421.34	3.518
421.55	3.481
421.75	3.541
421.96	3.695
422.16	3.567
422.37	3.625
422.57	3.777
422.78	3.652
422.98	3.698
423.19	3.962
423.39	3.710
423.60	3.630
423.80	3.628
424.01	3.581
424.21	3.470
424.42	3.570
424.62	3.504
424.83	3.490
425.03	3.521
425.23	3.532
425.44	3.506
425.64	3.557
425.85	3.502
426.05	3.496
426.26	3.500
426.46	3.510
426.67	3.449
426.87	3.432
427.08	3.430
427.28	3.381
427.49	3.377
427.69	3.371
427.90	3.358
428.10	3.397
428.31	3.398
428.51	3.383
428.71	3.369
428.92	3.409
429.12	3.473
429.33	3.433
429.53	3.460
429.74	3.443
429.94	3.459
430.15	3.466
430.35	3.379
430.56	3.347
430.76	3.366
430.96	3.375
431.17	3.356
431.37	3.320
431.58	3.363
431.78	3.357
431.99	3.365
432.19	3.327
432.40	3.405
432.60	3.468
432.80	3.459
433.01	3.395
433.21	3.351
433.42	3.342
433.62	3.356
433.83	3.356
434.03	3.338
434.23	3.284
434.44	3.291
434.64	3.249
434.85	3.250
435.05	3.265
435.26	3.287
435.46	3.340
435.66	3.334
435.87	3.346
436.07	3.346
436.28	3.340
436.48	3.390
436.69	3.368
436.89	3.378
437.09	3.413
437.30	3.422
437.50	3.448
437.71	3.472
437.91	3.493
438.11	3.519
438.32	3.546
438.52	3.658
438.73	3.638
438.93	3.708
439.13	3.707
439.34	3.630
439.54	3.751
439.75	3.670
439.95	3.642
440.15	3.764
440.36	3.831
440.56	3.902
440.77	3.769
440.97	3.820
441.17	3.748
441.38	3.824
441.58	3.885
441.79	3.730
441.99	3.789
442.19	3.710
442.40	3.559
442.60	3.440
442.81	3.321
443.01	3.317
443.21	3.330
443.42	3.325
443.62	3.290
443.82	3.253
444.03	3.249
444.23	3.246
444.44	3.261
444.64	3.290
444.84	3.298
445.05	3.368
445.25	3.336
445.45	3.336
445.66	3.373
445.86	3.387
446.06	3.400
446.27	3.394
446.47	3.357
446.68	3.343
446.88	3.336
447.08	3.349
447.29	3.372
447.49	3.365
447.69	3.338
447.90	3.316
448.10	3.310
448.30	3.317
448.51	3.317
448.71	3.408
448.91	3.392
449.12	3.414
449.32	3.394
449.52	3.396
449.73	3.398
449.93	3.430
450.14	3.409
450.34	3.445
450.54	3.468
450.75	3.498
450.95	3.406
451.15	3.443
451.36	3.458
451.56	3.495
451.76	3.391
451.97	3.540
452.17	3.548
452.37	3.509
452.58	3.474
452.78	3.464
452.98	3.494
453.19	3.529
453.39	3.457
453.59	3.397
453.79	3.379
454.00	3.498
454.20	3.420
454.40	3.339
454.61	3.386
454.81	3.355
455.01	3.371
455.22	3.366
455.42	3.347
455.62	3.379
455.83	3.399
456.03	3.409
456.23	3.365
456.44	3.325
456.64	3.387
456.84	3.386
457.04	3.385
457.25	3.387
457.45	3.366
457.65	3.418
457.86	3.420
458.06	3.395
458.26	3.430
458.47	3.387
458.67	3.467
458.87	3.427
459.07	3.458
459.28	3.519
459.48	3.498
459.68	3.446
459.89	3.364
460.09	3.341
460.29	3.392
460.49	3.356
460.70	3.327
460.90	3.309
461.10	3.313
461.31	3.314
461.51	3.289
461.71	3.265
461.91	3.229
462.12	3.252
462.32	3.240
462.52	3.217
462.72	3.229
462.93	3.303
463.13	3.288
463.33	3.315
463.53	3.284
463.74	3.255
463.94	3.300
464.14	3.341
464.35	3.384
464.55	3.395
464.75	3.371
464.95	3.400
465.16	3.387
465.36	3.400
465.56	3.385
465.76	3.369
465.97	3.420
466.17	3.370
466.37	3.341
466.57	3.335
466.78	3.323
466.98	3.356
467.18	3.299
467.38	3.264
467.59	3.217
467.79	3.204
467.99	3.220
468.19	3.223
468.39	3.237
468.60	3.288
468.80	3.273
469.00	3.313
469.20	3.273
469.41	3.268
469.61	3.271
469.81	3.308
470.01	3.307
470.22	3.345
470.42	3.333
470.62	3.341
470.82	3.322
471.02	3.335
471.23	3.383
471.43	3.398
471.63	3.439
471.83	3.455
472.04	3.490
472.24	3.502
472.44	3.452
472.64	3.508
472.84	3.487
473.05	3.517
473.25	3.459
473.45	3.382
473.65	3.424
473.85	3.430
474.06	3.455
474.26	3.419
474.46	3.388
474.66	3.388
474.86	3.382
475.07	3.397
475.27	3.393
475.47	3.426
475.67	3.502
475.87	3.437
476.08	3.370
476.28	3.354
476.48	3.346
476.68	3.373
476.88	3.385
477.09	3.325
477.29	3.286
477.49	3.274
477.69	3.246
477.89	3.226
478.09	3.264
478.30	3.344
478.50	3.314
478.70	3.313
478.90	3.251
479.10	3.240
479.31	3.272
479.51	3.315
479.71	3.319
479.91	3.330
480.11	3.338
480.31	3.328
480.52	3.298
480.72	3.306
480.92	3.309
481.12	3.386
481.32	3.369
481.52	3.350
481.72	3.302
481.93	3.325
482.13	3.317
482.33	3.287
482.53	3.298
482.73	3.265
482.93	3.279
483.14	3.298
483.34	3.264
483.54	3.298
483.74	3.271
483.94	3.314
484.14	3.309
484.34	3.308
484.55	3.309
484.75	3.309
484.95	3.372
485.15	3.383
485.35	3.370
485.55	3.363
485.75	3.343
485.96	3.375
486.16	3.345
486.36	3.352
486.56	3.402
486.76	3.391
486.96	3.388
487.16	3.319
487.36	3.299
487.57	3.298
487.77	3.314
487.97	3.279
488.17	3.292
488.37	3.303
488.57	3.300
488.77	3.271
488.97	3.275
489.18	3.257
489.38	3.286
489.58	3.292
489.78	3.291
489.98	3.303
490.18	3.338
490.38	3.346
490.58	3.344
490.78	3.302
490.98	3.273
491.19	3.282
491.39	3.306
491.59	3.317
491.79	3.336
491.99	3.373
492.19	3.406
492.39	3.447
492.59	3.402
492.79	3.376
492.99	3.418
493.20	3.479
493.40	3.422
493.60	3.345
493.80	3.351
494.00	3.308
494.20	3.293
494.40	3.277
494.60	3.233
494.80	3.234
495.00	3.262
495.20	3.257
495.40	3.235
495.61	3.252
495.81	3.259
496.01	3.241
496.21	3.250
496.41	3.225
496.61	3.221
496.81	3.215
497.01	3.216
497.21	3.198
497.41	3.210
497.61	3.222
497.81	3.239
498.01	3.257
498.21	3.259
498.41	3.279
498.61	3.357
498.82	3.373
499.02	3.394
499.22	3.369
499.42	3.381
499.62	3.344
499.82	3.309
500.02	3.329
500.22	3.358
500.42	3.368
500.62	3.343
500.82	3.260
501.02	3.225
501.22	3.240
501.42	3.264
501.62	3.254
501.82	3.262
502.02	3.275
502.22	3.287
502.42	3.271
502.62	3.266
502.82	3.270
503.02	3.256
503.22	3.274
503.42	3.263
503.63	3.274
503.83	3.284
504.03	3.272
504.23	3.294
504.43	3.265
504.63	3.244
504.83	3.240
505.03	3.255
505.23	3.330
505.43	3.311
505.63	3.330
505.83	3.336
506.03	3.322
506.23	3.328
506.43	3.305
506.63	3.321
506.83	3.366
507.03	3.376
507.23	3.397
507.43	3.328
507.63	3.336
507.83	3.338
508.03	3.299
508.23	3.331
508.43	3.357
508.63	3.395
508.83	3.409
509.03	3.378
509.23	3.399
509.43	3.393
509.63	3.381
509.83	3.386
510.03	3.369
510.23	3.366
510.43	3.366
510.63	3.358
510.83	3.340
511.03	3.323
511.23	3.332
511.43	3.279
511.63	3.245
511.83	3.269
512.03	3.264
512.22	3.264
512.42	3.297
512.62	3.281
512.82	3.290
513.02	3.297
513.22	3.284
513.42	3.297
513.62	3.339
513.82	3.344
514.02	3.367
514.22	3.376
514.42	3.405
514.62	3.393
514.82	3.396
515.02	3.396
515.22	3.385
515.42	3.396
515.62	3.374
515.82	3.378
516.02	3.409
516.22	3.355
516.42	3.311
516.62	3.266
516.82	3.306
517.01	3.308
517.21	3.306
517.41	3.287
517.61	3.303
517.81	3.339
518.01	3.334
518.21	3.291
518.41	3.323
518.61	3.330
518.81	3.333
519.01	3.295
519.21	3.286
519.41	3.277
519.61	3.324
519.81	3.286
520.00	3.274
520.20	3.287
520.40	3.283
520.60	3.273
520.80	3.298
521.00	3.288
521.20	3.280
521.40	3.297
521.60	3.257
521.80	3.269
522.00	3.273
522.20	3.241
522.39	3.208
522.59	3.208
522.79	3.233
522.99	3.268
523.19	3.277
523.39	3.264
523.59	3.246
523.79	3.289
523.99	3.271
524.19	3.294
524.38	3.344
524.58	3.335
524.78	3.345
524.98	3.312
525.18	3.257
525.38	3.276
525.58	3.291
525.78	3.287
525.98	3.261
526.18	3.250
526.37	3.257
526.57	3.267
526.77	3.275
526.97	3.295
527.17	3.302
527.37	3.306
527.57	3.316
527.77	3.298
527.96	3.320
528.16	3.340
528.36	3.312
528.56	3.254
528.76	3.206
528.96	3.217
529.16	3.193
529.36	3.197
529.55	3.244
529.75	3.267
529.95	3.276
530.15	3.262
530.35	3.284
530.55	3.302
530.75	3.333
530.94	3.289
531.14	3.317
531.34	3.374
531.54	3.344
531.74	3.322
531.94	3.266
532.13	3.277
532.33	3.314
532.53	3.264
532.73	3.219
532.93	3.214
533.13	3.222
533.33	3.187
533.52	3.179
533.72	3.165
533.92	3.156
534.12	3.147
534.32	3.144
534.52	3.143
534.71	3.127
534.91	3.163
535.11	3.164
535.31	3.175
535.51	3.171
535.71	3.113
535.90	3.130
536.10	3.118
536.30	3.120
536.50	3.115
536.70	3.092
536.89	3.160
537.09	3.163
537.29	3.182
537.49	3.217
537.69	3.253
537.89	3.292
538.08	3.283
538.28	3.328
538.48	3.366
538.68	3.380
538.88	3.372
539.07	3.327
539.27	3.305
539.47	3.260
539.67	3.230
539.87	3.202
540.06	3.262
540.26	3.295
540.46	3.248
540.66	3.232
540.86	3.214
541.05	3.198
541.25	3.187
541.45	3.171
541.65	3.199
541.84	3.236
542.04	3.224
542.24	3.204
542.44	3.221
542.64	3.243
542.83	3.261
543.03	3.296
543.23	3.324
543.43	3.323
543.62	3.353
543.82	3.334
544.02	3.321
544.22	3.343
544.42	3.298
544.61	3.245
544.81	3.252
545.01	3.259
545.21	3.253
545.40	3.244
545.60	3.243
545.80	3.220
546.00	3.226
546.19	3.207
546.39	3.235
546.59	3.255
546.79	3.274
546.98	3.267
547.18	3.233
547.38	3.253
547.58	3.225
547.77	3.273
547.97	3.345
548.17	3.344
548.37	3.344
548.56	3.305
548.76	3.277
548.96	3.285
549.16	3.296
549.35	3.382
549.55	3.301
549.75	3.421
549.95	3.369
550.14	3.351
550.34	3.354
550.54	3.384
550.73	3.402
550.93	3.405
551.13	3.405
551.33	3.372
551.52	3.345
551.72	3.381
551.92	3.312
552.12	3.298
552.31	3.245
552.51	3.234
552.71	3.238
552.90	3.235
553.10	3.251
553.30	3.249
553.50	3.216
553.69	3.203
553.89	3.187
554.09	3.199
554.28	3.203
554.48	3.250
554.68	3.252
554.87	3.231
555.07	3.219
555.27	3.226
555.47	3.222
555.66	3.257
555.86	3.260
556.06	3.241
556.25	3.200
556.45	3.205
556.65	3.170
556.84	3.178
557.04	3.195
557.24	3.208
557.43	3.237
557.63	3.222
557.83	3.240
558.02	3.237
558.22	3.247
558.42	3.278
558.61	3.207
558.81	3.221
559.01	3.172
559.21	3.176
559.40	3.154
559.60	3.115
559.80	3.142
559.99	3.152
560.19	3.154
560.39	3.182
560.58	3.201
560.78	3.290
560.97	3.299
561.17	3.348
561.37	3.359
561.56	3.399
561.76	3.414
561.96	3.362
562.15	3.335
562.35	3.358
562.55	3.374
562.74	3.345
562.94	3.354
563.14	3.416
563.33	3.406
563.53	3.388
563.73	3.372
563.92	3.422
564.12	3.433
564.31	3.432
564.51	3.418
564.71	3.401
564.90	3.456
565.10	3.404
565.30	3.295
565.49	3.307
565.69	3.290
565.89	3.268
566.08	3.276
566.28	3.292
566.47	3.289
566.67	3.252
566.87	3.256
567.06	3.214
567.26	3.202
567.46	3.230
567.65	3.226
567.85	3.227
568.04	3.272
568.24	3.275
568.44	3.259
568.63	3.282
568.83	3.291
569.02	3.308
569.22	3.314
569.42	3.361
569.61	3.349
569.81	3.356
570.00	3.365
570.20	3.312
570.40	3.282
570.59	3.321
570.79	3.294
570.98	3.300
571.18	3.277
571.38	3.301
571.57	3.288
571.77	3.278
571.96	3.254
572.16	3.254
572.35	3.244
572.55	3.219
572.75	3.210
572.94	3.217
573.14	3.197
573.33	3.208
573.53	3.186
573.73	3.186
573.92	3.187
574.12	3.212
574.31	3.216
574.51	3.253
574.70	3.273
574.90	3.257
575.09	3.246
575.29	3.261
575.49	3.255
575.68	3.257
575.88	3.277
576.07	3.284
576.27	3.290
576.46	3.288
576.66	3.298
576.86	3.308
577.05	3.339
577.25	3.354
577.44	3.352
577.64	3.327
577.83	3.350
578.03	3.324
578.22	3.321
578.42	3.288
578.61	3.294
578.81	3.273
579.00	3.271
579.20	3.232
579.40	3.215
579.59	3.211
579.79	3.230
579.98	3.216
580.18	3.199
580.37	3.197
580.57	3.212
580.76	3.222
580.96	3.208
581.15	3.216
581.35	3.261
581.54	3.253
581.74	3.236
581.93	3.252
582.13	3.247
582.32	3.243
582.52	3.239
582.71	3.230
582.91	3.224
583.10	3.231
583.30	3.233
583.49	3.192
583.69	3.252
583.88	3.287
584.08	3.261
584.27	3.276
584.47	3.310
584.66	3.345
584.86	3.366
585.05	3.370
585.25	3.359
585.44	3.341
585.64	3.370
585.83	3.330
586.03	3.316
586.22	3.325
586.42	3.327
586.61	3.326
586.81	3.289
587.00	3.294
587.20	3.280
587.39	3.290
587.59	3.296
587.78	3.259
587.98	3.258
588.17	3.264
588.37	3.249
588.56	3.241
588.76	3.212
588.95	3.218
589.15	3.211
589.34	3.199
589.54	3.198
589.73	3.200
589.92	3.201
590.12	3.211
590.31	3.204
590.51	3.233
590.70	3.229
590.90	3.216
591.09	3.227
591.29	3.188
591.48	3.206
591.68	3.226
591.87	3.230
592.06	3.259
592.26	3.240
592.45	3.254
592.65	3.228
592.84	3.216
593.04	3.269
593.23	3.280
593.43	3.283
593.62	3.263
593.81	3.243
594.01	3.217
594.20	3.237
594.40	3.249
594.59	3.239
594.79	3.275
594.98	3.334
595.17	3.294
595.37	3.291
595.56	3.326
595.76	3.332
595.95	3.350
596.14	3.402
596.34	3.358
596.53	3.332
596.73	3.283
596.92	3.236
597.12	3.204
597.31	3.191
597.50	3.166
597.70	3.168
597.89	3.161
598.09	3.136
598.28	3.139
598.47	3.152
598.67	3.146
598.86	3.162
599.06	3.209
599.25	3.197
599.44	3.254
599.64	3.286
599.83	3.288
600.03	3.298
600.22	3.342
600.41	3.320
600.61	3.335
600.80	3.369
601.00	3.409
601.19	3.368
601.38	3.394
601.58	3.320
601.77	3.324
601.96	3.349
602.16	3.323
602.35	3.334
602.55	3.361
602.74	3.388
602.93	3.351
603.13	3.314
603.32	3.286
603.51	3.244
603.71	3.223
603.90	3.249
604.09	3.200
604.29	3.231
604.48	3.232
604.68	3.188
604.87	3.161
605.06	3.147
605.26	3.149
605.45	3.163
605.64	3.189
605.84	3.187
606.03	3.195
606.22	3.225
606.42	3.219
606.61	3.196
606.80	3.221
607.00	3.194
607.19	3.231
607.38	3.229
607.58	3.236
607.77	3.232
607.96	3.268
608.16	3.256
608.35	3.236
608.54	3.230
608.74	3.238
608.93	3.216
609.12	3.232
609.32	3.242
609.51	3.254
609.70	3.232
609.90	3.240
610.09	3.258
610.28	3.196
610.48	3.225
610.67	3.225
610.86	3.252
611.06	3.252
611.25	3.281
611.44	3.281
611.64	3.275
611.83	3.302
612.02	3.315
612.21	3.283
612.41	3.379
612.60	3.333
612.79	3.343
612.99	3.308
613.18	3.313
613.37	3.270
613.57	3.245
613.76	3.247
613.95	3.249
614.14	3.245
614.34	3.274
614.53	3.252
614.72	3.296
614.92	3.283
615.11	3.292
615.30	3.266
615.49	3.283
615.69	3.315
615.88	3.330
616.07	3.317
616.26	3.286
616.46	3.278
616.65	3.260
616.84	3.260
617.04	3.302
617.23	3.291
617.42	3.404
617.61	3.391
617.81	3.356
618.00	3.368
618.19	3.332
618.38	3.321
618.58	3.316
618.77	3.306
618.96	3.297
619.15	3.293
619.35	3.277
619.54	3.228
619.73	3.212
619.92	3.213
620.12	3.177
620.31	3.151
620.50	3.181
620.69	3.167
620.89	3.120
621.08	3.111
621.27	3.099
621.46	3.089
621.66	3.059
621.85	3.102
622.04	3.097
622.23	3.113
622.43	3.176
622.62	3.149
622.81	3.157
623.00	3.229
623.19	3.222
623.39	3.219
623.58	3.201
623.77	3.230
623.96	3.213
624.16	3.208
624.35	3.182
624.54	3.162
624.73	3.193
624.92	3.173
625.12	3.158
625.31	3.181
625.50	3.183
625.69	3.244
625.88	3.229
626.08	3.202
626.27	3.180
626.46	3.201
626.65	3.171
626.84	3.160
627.04	3.180
627.23	3.176
627.42	3.131
627.61	3.112
627.80	3.119
628.00	3.171
628.19	3.157
628.38	3.219
628.57	3.234
628.76	3.275
628.96	3.289
629.15	3.313
629.34	3.283
629.53	3.297
629.72	3.300
629.91	3.271
630.11	3.257
630.30	3.290
630.49	3.318
630.68	3.322
630.87	3.325
631.06	3.257
631.26	3.211
631.45	3.240
631.64	3.228
631.83	3.293
632.02	3.270
632.21	3.257
632.41	3.272
632.60	3.187
632.79	3.225
632.98	3.192
633.17	3.262
633.36	3.256
633.55	3.232
633.75	3.292
633.94	3.242
634.13	3.275
634.32	3.287
634.51	3.262
634.70	3.306
634.89	3.243
635.09	3.312
635.28	3.379
635.47	3.475
635.66	3.449
635.85	3.431
636.04	3.561
636.23	3.516
636.43	3.511
636.62	3.518
636.81	3.519
637.00	3.497
637.19	3.502
637.38	3.388
637.57	3.402
637.76	3.502
637.95	3.515
638.15	3.454
638.34	3.539
638.53	3.492
638.72	3.461
638.91	3.422
639.10	3.441
639.29	3.436
639.48	3.476
639.67	3.423
639.87	3.350
640.06	3.277
640.25	3.270
640.44	3.214
640.63	3.187
640.82	3.201
641.01	3.206
641.20	3.232
641.39	3.258
641.58	3.235
641.78	3.249
641.97	3.312
642.16	3.325
642.35	3.318
642.54	3.349
642.73	3.395
642.92	3.447
643.11	3.552
643.30	3.571
643.49	3.466
643.68	3.449
643.87	3.403
644.06	3.345
644.25	3.355
644.45	3.341
644.64	3.329
644.83	3.359
645.02	3.334
645.21	3.341
645.40	3.323
645.59	3.319
645.78	3.329
645.97	3.377
646.16	3.461
646.35	3.480
646.54	3.412
646.73	3.480
646.92	3.413
647.11	3.339
647.30	3.321
647.49	3.292
647.68	3.295
647.88	3.306
648.07	3.361
648.26	3.340
648.45	3.310
648.64	3.318
648.83	3.305
649.02	3.359
649.21	3.436
649.40	3.389
649.59	3.452
649.78	3.474
649.97	3.570
650.16	3.379
650.35	3.352
650.54	3.349
650.73	3.312
650.92	3.254
651.11	3.287
651.30	3.270
651.49	3.260
651.68	3.258
651.87	3.258
652.06	3.207
652.25	3.295
652.44	3.294
652.63	3.382
652.82	3.490
653.01	3.476
653.20	3.414
653.39	3.412
653.58	3.360
653.77	3.324
653.96	3.273
654.15	3.265
654.34	3.235
654.53	3.224
654.72	3.196
654.91	3.204
655.10	3.234
655.29	3.225
655.48	3.227
655.67	3.254
655.86	3.246
656.05	3.286
656.24	3.269
656.43	3.281
656.62	3.256
656.81	3.274
657.00	3.237
657.19	3.213
657.38	3.200
657.57	3.219
657.76	3.183
657.95	3.183
658.14	3.147
658.33	3.158
658.51	3.166
658.70	3.208
658.89	3.198
659.08	3.212
659.27	3.229
659.46	3.213
659.65	3.168
659.84	3.249
660.03	3.248
660.22	3.304
660.41	3.277
660.60	3.219
660.79	3.195
660.98	3.253
661.17	3.263
661.36	3.299
661.55	3.314
661.74	3.344
661.92	3.283
662.11	3.319
662.30	3.262
662.49	3.302
662.68	3.356
662.87	3.437
663.06	3.360
663.25	3.447
663.44	3.438
663.63	3.374
663.82	3.492
664.01	3.478
664.20	3.461
664.38	3.552
664.57	3.545
664.76	3.552
664.95	3.506
665.14	3.445
665.33	3.339
665.52	3.358
665.71	3.489
665.90	3.469
666.09	3.594
666.28	3.794
666.46	3.624
666.65	3.686
666.84	3.551
667.03	3.645
667.22	3.932
667.41	4.108
667.60	3.869
667.79	3.611
667.98	3.445
668.16	3.502
668.35	3.473
668.54	3.557
668.73	3.507
668.92	3.614
669.11	3.523
669.30	3.531
669.49	3.452
669.67	3.409
669.86	3.565
670.05	3.764
670.24	3.494
670.43	3.384
670.62	3.307
670.81	3.355
671.00	3.371
671.18	3.381
671.37	3.346
671.56	3.439
671.75	3.415
671.94	3.429
672.13	3.366
672.32	3.363
672.50	3.425
672.69	3.484
672.88	3.511
673.07	3.505
673.26	3.411
673.45	3.378
673.63	3.365
673.82	3.413
674.01	3.325
674.20	3.306
674.39	3.436
674.58	3.344
674.76	3.345
674.95	3.295
675.14	3.311
675.33	3.275
675.52	3.235
675.71	3.254
675.89	3.323
676.08	3.335
676.27	3.330
676.46	3.319
676.65	3.434
676.84	3.493
677.02	3.538
677.21	3.407
677.40	3.588
677.59	3.809
677.78	3.766
677.96	3.625
678.15	3.606
678.34	3.604
678.53	3.573
678.72	3.479
678.90	3.458
679.09	3.454
679.28	3.495
679.47	3.421
679.66	3.332
679.84	3.348
680.03	3.380
680.22	3.416
680.41	3.433
680.60	3.361
680.78	3.395
680.97	3.377
681.16	3.447
681.35	3.480
681.53	3.490
681.72	3.487
681.91	3.414
682.10	3.338
682.29	3.266
682.47	3.268
682.66	3.331
682.85	3.307
683.04	3.319
683.22	3.219
683.41	3.167
683.60	3.151
683.79	3.194
683.97	3.204
684.16	3.242
684.35	3.318
684.54	3.331
684.72	3.294
684.91	3.297
685.10	3.296
685.29	3.402
685.47	3.490
685.66	3.523
685.85	3.437
686.04	3.396
686.22	3.452
686.41	3.486
686.60	3.452
686.79	3.378
686.97	3.441
687.16	3.417
687.35	3.340
687.54	3.326
687.72	3.311
687.91	3.336
688.10	3.379
688.29	3.338
688.47	3.328
688.66	3.347
688.85	3.441
689.03	3.347
689.22	3.326
689.41	3.424
689.60	3.469
689.78	3.466
689.97	3.372
690.16	3.366
690.34	3.351
690.53	3.286
690.72	3.275
690.91	3.214
691.09	3.231
691.28	3.285
691.47	3.191
691.65	3.169
691.84	3.177
692.03	3.203
692.21	3.138
692.40	3.142
692.59	3.177
692.77	3.140
692.96	3.154
693.15	3.166
693.34	3.125
693.52	3.122
693.71	3.127
693.90	3.157
694.08	3.194
694.27	3.264
694.46	3.262
694.64	3.317
694.83	3.410
695.02	3.379
695.20	3.340
695.39	3.385
695.58	3.423
695.76	3.430
695.95	3.318
696.14	3.282
696.32	3.306
696.51	3.288
696.70	3.261
696.88	3.329
697.07	3.410
697.26	3.467
697.44	3.667
697.63	3.628
697.81	3.572
698.00	3.679
698.19	3.735
698.37	3.859
698.56	4.411
698.75	3.965
698.93	3.704
699.12	3.730
699.31	3.797
699.49	3.487
699.68	3.524
699.87	3.538
700.05	3.509
700.24	3.470
700.42	3.420
700.61	3.325
700.80	3.374
700.98	3.446
701.17	3.449
701.36	3.323
701.54	3.415
701.73	3.379
701.91	3.468
702.10	3.421
702.29	3.419
702.47	3.364
702.66	3.384
702.84	3.321
703.03	3.189
703.22	3.189
703.40	3.266
703.59	3.263
703.77	3.221
703.96	3.217
704.15	3.267
704.33	3.261
704.52	3.284
704.70	3.278
704.89	3.363
705.08	3.481
705.26	3.448
705.45	3.464
705.63	3.366
705.82	3.358
706.00	3.259
706.19	3.215
706.38	3.277
706.56	3.281
706.75	3.322
706.93	3.313
707.12	3.217
707.30	3.208
707.49	3.150
707.68	3.172
707.86	3.185
708.05	3.195
708.23	3.290
708.42	3.234
708.60	3.200
708.79	3.187
708.98	3.140
709.16	3.172
709.35	3.173
709.53	3.194
709.72	3.161
709.90	3.232
710.09	3.196
710.27	3.150
710.46	3.212
710.64	3.178
710.83	3.143
711.02	3.146
711.20	3.140
711.39	3.156
711.57	3.089
711.76	3.044
711.94	3.043
712.13	3.012
712.31	3.000
712.50	2.955
712.68	2.984
712.87	2.967
713.05	2.962
713.24	2.958
713.42	2.923
713.61	2.971
713.79	2.991
713.98	2.975
714.16	3.041
714.35	3.089
714.54	3.163
714.72	3.139
714.91	3.169
715.09	3.141
715.28	3.221
715.46	3.232
715.65	3.132
715.83	3.193
716.02	3.167
716.20	3.132
716.39	3.086
716.57	3.010
716.76	3.004
716.94	2.989
717.12	2.985
717.31	2.954
717.49	2.938
717.68	3.035
717.86	3.012
718.05	2.959
718.23	2.946
718.42	2.949
718.60	2.920
718.79	2.877
718.97	2.916
719.16	2.974
719.34	2.990
719.53	3.026
719.71	3.001
719.90	2.933
720.08	3.012
720.27	3.023
720.45	2.966
720.63	3.070
720.82	3.205
721.00	3.086
721.19	3.015
721.37	2.980
721.56	2.968
721.74	2.912
721.93	2.905
722.11	2.886
722.30	2.924
722.48	2.979
722.66	2.895
722.85	2.897
723.03	2.952
723.22	2.941
723.40	2.982
723.59	2.942
723.77	2.942
723.95	2.974
724.14	3.025
724.32	3.015
724.51	3.071
724.69	3.088
724.88	3.008
725.06	2.921
725.24	2.936
725.43	2.837
725.61	2.864
725.80	2.859
725.98	2.892
726.16	2.877
726.35	2.833
726.53	2.738
726.72	2.731
726.90	2.721
727.09	2.730
727.27	2.734
727.45	2.758
727.64	2.710
727.82	2.714
728.01	2.688
728.19	2.649
728.37	2.613
728.56	2.660
728.74	2.640
728.92	2.655
729.11	2.676
729.29	2.657
729.48	2.681
729.66	2.741
729.84	2.735
730.03	2.746
730.21	2.692
730.40	2.809
730.58	2.733
730.76	2.710
730.95	2.737
731.13	2.729
731.31	2.712
731.50	2.691
731.68	2.656
731.86	2.722
732.05	2.678
732.23	2.713
732.42	2.657
732.60	2.709
732.78	2.794
732.97	2.743
733.15	2.706
733.33	2.760
733.52	2.746
733.70	2.693
733.88	2.516
734.07	2.600
734.25	2.599
734.43	2.544
734.62	2.498
734.80	2.478
734.98	2.409
735.17	2.414
735.35	2.410
735.53	2.373
735.72	2.388
735.90	2.490
736.08	2.462
736.27	2.496
736.45	2.598
736.63	2.598
736.82	2.551
737.00	2.630
737.18	2.557
737.37	2.513
737.55	2.533
737.73	2.541
737.92	2.520
738.10	2.526
738.28	2.499
738.46	2.437
738.65	2.408
738.83	2.429
739.01	2.446
739.20	2.454
739.38	2.442
739.56	2.484
739.75	2.476
739.93	2.405
740.11	2.410
740.29	2.362
740.48	2.293
740.66	2.339
740.84	2.311
741.03	2.329
741.21	2.336
741.39	2.332
741.57	2.322
741.76	2.341
741.94	2.353
742.12	2.316
742.31	2.297
742.49	2.386
742.67	2.378
742.85	2.377
743.04	2.369
743.22	2.408
743.40	2.423
743.58	2.410
743.77	2.366
743.95	2.436
744.13	2.403
744.31	2.407
744.50	2.308
744.68	2.279
744.86	2.314
745.04	2.322
745.23	2.327
745.41	2.300
745.59	2.292
745.77	2.249
745.96	2.226
746.14	2.249
746.32	2.255
746.50	2.307
746.69	2.340
746.87	2.336
747.05	2.311
747.23	2.264
747.42	2.279
747.60	2.198
747.78	2.220
747.96	2.216
748.14	2.257
748.33	2.307
748.51	2.307
748.69	2.288
748.87	2.267
749.06	2.258
749.24	2.284
749.42	2.354
749.60	2.434
749.78	2.531
749.97	2.550
750.15	2.448
750.33	2.411
750.51	2.394
750.69	2.464
750.88	2.414
751.06	2.477
751.24	2.413
751.42	2.299
751.60	2.321
751.79	2.277
751.97	2.348
752.15	2.384
752.33	2.337
752.51	2.358
752.69	2.408
752.88	2.437
753.06	2.371
753.24	2.428
753.42	2.399
753.60	2.443
753.78	2.390
753.97	2.234
754.15	2.211
754.33	2.254
754.51	2.248
754.69	2.198
754.87	2.198
755.06	2.165
755.24	2.107
755.42	2.101
755.60	2.087
755.78	2.160
755.96	2.277
756.15	2.275
756.33	2.248
756.51	2.278
756.69	2.248
756.87	2.260
757.05	2.304
757.23	2.344
757.42	2.414
757.60	2.331
757.78	2.294
757.96	2.221
758.14	2.231
758.32	2.275
758.50	2.217
758.69	2.224
758.87	2.217
759.05	2.275
759.23	2.379
759.41	2.369
759.59	2.530
759.77	2.523
759.95	2.536
760.13	2.514
760.32	2.466
760.50	2.475
760.68	2.440
760.86	2.513
761.04	2.462
761.22	2.416
761.40	2.443
761.58	2.346
761.76	2.345
761.95	2.370
762.13	2.391
762.31	2.421
762.49	2.515
762.67	2.499
762.85	2.493
763.03	2.450
763.21	2.345
763.39	2.299
763.57	2.356
763.75	2.332
763.94	2.297
764.12	2.292
764.30	2.216
764.48	2.176
764.66	2.211
764.84	2.164
765.02	2.174
765.20	2.200
765.38	2.212
765.56	2.187
765.74	2.192
765.92	2.247
766.10	2.241
766.28	2.292
766.46	2.317
766.65	2.349
766.83	2.407
767.01	2.367
767.19	2.348
767.37	2.405
767.55	2.346
767.73	2.407
767.91	2.338
768.09	2.300
768.27	2.287
768.45	2.296
768.63	2.304
768.81	2.274
768.99	2.335
769.17	2.350
769.35	2.325
769.53	2.441
769.71	2.424
769.89	2.449
770.07	2.478
770.25	2.521
770.43	2.556
770.61	2.465
770.79	2.498
770.97	2.392
771.15	2.423
771.33	2.415
771.51	2.387
771.69	2.378
771.87	2.379
772.05	2.381
772.24	2.420
772.42	2.422
772.60	2.412
772.78	2.359
772.96	2.430
773.14	2.516
773.32	2.538
773.49	2.519
773.67	2.516
773.85	2.538
774.03	2.529
774.21	2.471
774.39	2.461
774.57	2.505
774.75	2.544
774.93	2.552
775.11	2.436
775.29	2.409
775.47	2.486
775.65	2.436
775.83	2.365
776.01	2.387
776.19	2.361
776.37	2.354
776.55	2.324
776.73	2.332
776.91	2.297
777.09	2.342
777.27	2.365
777.45	2.394
777.63	2.440
777.81	2.494
777.99	2.530
778.17	2.605
778.35	2.708
778.53	2.703
778.71	2.735
778.89	2.794
779.07	2.701
779.24	2.804
779.42	2.575
779.60	2.547
779.78	2.526
779.96	2.493
780.14	2.426
780.32	2.389
780.50	2.434
780.68	2.425
780.86	2.464
781.04	2.452
781.22	2.409
781.40	2.440
781.58	2.447
781.75	2.473
781.93	2.565
782.11	2.574
782.29	2.547
782.47	2.472
782.65	2.514
782.83	2.415
783.01	2.479
783.19	2.490
783.37	2.460
783.55	2.478
783.72	2.445
783.90	2.418
784.08	2.416
784.26	2.426
784.44	2.463
784.62	2.407
784.80	2.553
784.98	2.581
785.16	2.545
785.33	2.551
785.51	2.562
785.69	2.565
785.87	2.579
786.05	2.659
786.23	2.642
786.41	2.651
786.59	2.744
786.77	2.616
786.94	2.604
787.12	2.613
787.30	2.562
787.48	2.547
787.66	2.545
787.84	2.517
788.02	2.558
788.19	2.560
788.37	2.526
788.55	2.530
788.73	2.529
788.91	2.509
789.09	2.472
789.27	2.580
789.44	2.542
789.62	2.667
789.80	2.694
789.98	2.599
790.16	2.621
790.34	2.753
790.51	2.597
790.69	2.578
790.87	2.526
791.05	2.604
791.23	2.584
791.41	2.653
791.58	2.679
791.76	2.705
791.94	2.696
792.12	2.613
792.30	2.530
792.48	2.581
792.65	2.536
792.83	2.497
793.01	2.476
793.19	2.458
793.37	2.375
793.54	2.317
793.72	2.301
793.90	2.315
794.08	2.347
794.26	2.362
794.43	2.362
794.61	2.428
794.79	2.505
794.97	2.533
795.15	2.581
795.32	2.666
795.50	2.666
795.68	2.614
795.86	2.599
796.04	2.598
796.21	2.591
796.39	2.633
796.57	2.639
796.75	2.589
796.92	2.610
797.10	2.524
797.28	2.543
797.46	2.564
797.64	2.632
797.81	2.646
797.99	2.719
798.17	2.721
798.35	2.755
798.52	2.813
798.70	2.839
798.88	2.783
799.06	2.923
799.23	3.063
799.41	3.348
799.59	3.122
799.77	2.992
799.94	2.899
800.12	2.889
800.30	2.839
800.48	2.665
800.65	2.643
800.83	2.621
801.01	2.702
801.19	2.626
801.36	2.579
801.54	2.547
801.72	2.638
801.90	2.575
802.07	2.661
802.25	2.745
802.43	2.782
802.60	2.801
802.78	2.763
802.96	2.635
803.14	2.719
803.31	2.779
803.49	3.287
803.67	3.221
803.84	3.163
804.02	2.909
804.20	2.897
804.38	2.950
804.55	2.962
804.73	3.181
804.91	3.087
805.08	3.020
805.26	2.984
805.44	2.783
805.61	2.760
805.79	2.805
805.97	2.983
806.15	2.899
806.32	2.944
806.50	3.011
806.68	3.058
806.85	3.276
807.03	3.014
807.21	2.974
807.38	2.768
807.56	2.717
807.74	2.705
807.91	2.706
808.09	2.680
808.27	2.677
808.44	2.647
808.62	2.581
808.80	2.610
808.97	2.676
809.15	2.672
809.33	2.772
809.50	2.828
809.68	3.021
809.86	2.854
810.03	2.934
810.21	2.897
810.39	2.943
810.56	3.063
810.74	2.954
810.91	2.909
811.09	2.941
811.27	2.929
811.44	2.858
811.62	2.872
811.80	2.877
811.97	2.729
812.15	2.672
812.33	2.716
812.50	2.679
812.68	2.659
812.85	2.685
813.03	2.674
813.21	2.762
813.38	2.885
813.56	2.791
813.74	2.938
813.91	3.204
814.09	-0.000
814.26	-0.000
814.44	3.716
814.62	-0.000
814.79	3.376
814.97	3.190
815.14	2.993
815.32	2.883
815.50	2.763
815.67	2.658
815.85	2.708
816.02	2.711
816.20	2.631
816.38	2.544
816.55	2.498
816.73	2.536
816.90	2.576
817.08	2.630
817.26	2.733
817.43	2.779
817.61	2.871
817.78	2.742
817.96	2.630
818.13	2.751
818.31	3.117
818.49	3.232
818.66	3.998
818.84	3.411
819.01	2.954
819.19	2.807
819.36	2.956
819.54	2.815
819.71	2.842
819.89	2.970
820.07	2.824
820.24	2.760
820.42	2.798
820.59	2.734
820.77	2.691
820.94	2.825
821.12	2.870
821.29	2.736
821.47	2.774
821.64	2.728
821.82	2.621
822.00	2.598
822.17	2.556
822.35	2.457
822.52	2.424
822.70	2.460
822.87	2.441
823.05	2.316
823.22	2.346
823.40	2.318
823.57	2.405
823.75	2.386
823.92	2.387
824.10	2.469
824.27	2.598
824.45	2.534
824.62	2.449
824.80	2.421
824.97	2.558
825.15	2.522
825.32	2.511
825.50	2.312
825.67	2.276
825.85	2.269
826.02	2.253
826.20	2.255
826.37	2.293
826.55	2.298
826.72	2.296
826.90	2.257
827.07	2.219
827.25	2.248
827.42	2.262
827.60	2.316
827.77	2.312
827.95	2.272
828.12	2.205
828.30	2.200
828.47	2.274
828.65	2.273
828.82	2.360
829.00	2.378
829.17	2.320
829.34	2.308
829.52	2.306
829.69	2.314
829.87	2.311
830.04	2.357
830.22	2.334
830.39	2.210
830.57	2.172
830.74	2.108
830.92	2.151
831.09	2.238
831.26	2.356
831.44	2.387
831.61	2.327
831.79	2.206
831.96	2.179
832.14	2.092
832.31	2.222
832.49	2.238
832.66	2.307
832.83	2.168
833.01	2.090
833.18	2.055
833.36	2.119
833.53	2.103
833.70	2.157
833.88	2.081
834.05	2.178
834.23	1.936
834.40	1.918
834.58	1.964
834.75	1.976
834.92	1.991
835.10	1.950
835.27	1.872
835.45	1.896
835.62	1.912
835.79	1.875
835.97	1.851
836.14	1.992
836.32	1.980
836.49	1.920
836.66	1.950
836.84	1.957
837.01	2.045
837.18	2.062
837.36	2.025
837.53	1.921
837.71	1.997
837.88	1.887
838.05	1.832
838.23	1.786
838.40	1.688
838.58	1.719
838.75	1.686
838.92	1.654
839.10	1.658
839.27	1.634
839.44	1.652
839.62	1.678
839.79	1.792
839.96	1.791
840.14	1.888
840.31	1.964
840.48	1.861
840.66	1.852
840.83	1.906
841.01	1.978
841.18	2.211
841.35	2.166
841.53	2.082
841.70	1.978
841.87	1.931
842.05	1.897
842.22	1.950
842.39	2.039
842.57	2.063
842.74	2.084
842.91	1.906
843.09	1.856
843.26	2.015
843.43	2.033
843.60	1.984
843.78	2.108
843.95	2.115
844.12	2.123
844.30	1.933
844.47	1.955
844.64	1.916
844.82	1.863
844.99	1.856
845.16	1.747
845.34	1.725
845.51	1.812
845.68	1.849
845.85	1.779
846.03	1.844
846.20	1.926
846.37	2.215
846.55	2.793
846.72	-0.000
846.89	3.400
847.06	-0.000
847.24	-0.000
847.41	-0.000
847.58	2.962
847.76	-0.000
847.93	3.191
848.10	-0.000
848.27	2.985
848.45	2.280
848.62	2.296
848.79	2.475
848.97	2.099
849.14	2.492
849.31	-0.000
849.48	-0.000
849.66	-0.000
849.83	-0.000
850.00	3.586
850.17	2.303
850.35	2.354
850.52	2.237
850.69	2.193
850.86	2.031
851.04	2.099
851.21	1.881
851.38	1.850
851.55	1.883
851.72	1.831
851.90	1.905
852.07	2.021
852.24	2.080
852.41	2.014
852.59	2.126
852.76	2.768
852.93	2.232
853.10	2.261
853.28	2.283
853.45	2.071
853.62	2.313
853.79	2.266
853.96	1.959
854.14	1.931
854.31	1.995
854.48	2.085
854.65	1.936
854.82	1.867
855.00	1.880
855.17	1.914
855.34	2.055
855.51	1.778
855.68	1.640
855.86	1.821
856.03	1.822
856.20	1.670
856.37	1.532
856.54	1.517
856.72	1.489
856.89	1.421
857.06	1.420
857.23	1.346
857.40	1.423
857.57	1.481
857.75	1.405
857.92	1.392
858.09	1.484
858.26	1.563
858.43	1.592
858.60	1.678
858.78	1.726
858.95	1.761
859.12	1.804
859.29	1.784
859.46	1.608
859.63	1.801
859.81	1.668
859.98	1.618
860.15	1.607
860.32	1.585
860.49	1.605
860.66	1.677
860.83	1.581
861.01	1.694
861.18	1.689
861.35	2.042
861.52	1.873
861.69	2.225
861.86	2.103
862.03	1.966
862.21	1.872
862.38	1.747
862.55	1.838
862.72	1.809
862.89	1.815
863.06	1.901
863.23	1.888
863.40	2.079
863.58	2.275
863.75	2.208
863.92	2.031
864.09	2.020
864.26	2.187
864.43	1.976
864.60	2.235
864.77	2.188
864.94	2.212
865.11	2.493
865.29	1.863
865.46	1.683
865.63	1.669
865.80	1.869
865.97	1.892
866.14	1.707
866.31	1.805
866.48	1.892
866.65	2.020
866.82	1.780
866.99	1.705
867.16	1.716
867.34	1.709
867.51	1.717
867.68	1.676
867.85	1.825
868.02	1.887
868.19	1.730
868.36	1.877
868.53	1.756
868.70	2.187
868.87	1.663
869.04	1.857
869.21	1.971
869.38	2.295
869.55	2.317
869.72	2.029
869.89	2.066
870.06	2.217
870.24	1.644
870.41	1.488
870.58	1.418
870.75	1.615
870.92	1.565
871.09	1.529
871.26	1.537
871.43	1.494
871.60	1.549
871.77	1.468
871.94	1.551
872.11	1.594
872.28	1.619
872.45	1.624
872.62	1.553
872.79	1.544
872.96	1.526
873.13	1.421
873.30	1.393
873.47	1.273
873.64	1.302
873.81	1.222
873.98	1.297
874.15	1.365
874.32	1.375
874.49	1.371
874.66	1.342
874.83	1.343
875.00	1.376
875.17	1.446
875.34	1.532
875.51	1.749
875.68	1.787
875.85	1.674
876.02	1.670
876.19	1.550
876.36	1.940
876.53	2.211
876.70	1.816
876.87	1.852
877.04	2.077
877.21	2.876
877.38	2.016
877.55	1.819
877.72	1.911
877.89	1.900
878.06	2.161
878.23	1.935
878.39	2.140
878.56	-0.000
878.73	-0.000
878.90	2.497
879.07	2.127
879.24	-0.000
879.41	-0.000
879.58	2.050
879.75	2.158
879.92	1.967
880.09	1.757
880.26	1.510
880.43	1.400
880.60	1.433
880.77	1.324
880.94	1.289
881.11	1.318
881.27	1.389
881.44	1.471
881.61	1.392
881.78	1.483
881.95	1.559
882.12	1.728
882.29	2.425
882.46	1.989
882.63	-0.000
882.80	-0.000
882.97	-0.000
883.14	-0.000
883.30	-0.000
883.47	-0.000
883.64	-0.000
883.81	-0.000
883.98	-0.000
884.15	-0.000
884.32	-0.000
884.49	-0.000
884.66	-0.000
884.82	-0.000
884.99	1.956
885.16	1.534
885.33	1.455
885.50	1.537
885.67	1.466
885.84	1.645
886.01	1.371
886.17	1.265
886.34	1.172
886.51	1.176
886.68	1.415
886.85	1.359
887.02	1.366
887.19	1.293
887.36	1.181
887.52	1.304
887.69	1.161
887.86	1.170
888.03	1.408
888.20	1.489
888.37	1.457
888.54	1.242
888.70	1.247
888.87	1.339
889.04	1.365
889.21	1.454
889.38	1.331
889.55	1.290
889.71	1.039
889.88	1.178
890.05	1.751
890.22	-0.000
890.39	0.796
>>>>>End Processed Spectral Data<<<<<
