SpectraSuite Data File
++++++++++++++++++++++++++++++++++++
Date: Mon Jun 15 06:25:14 PDT 2015
User: introlabs
Dark Spectrum Present: Yes
Reference Spectrum Present: Yes
Number of Sampled Component Spectra: 1
Spectrometers: USB4H08886
Integration Time (usec): 44366 (USB4H08886)
Spectra Averaged: 20 (USB4H08886)
Boxcar Smoothing: 5 (USB4H08886)
Correct for Electrical Dark: Yes (USB4H08886)
Strobe/Lamp Enabled: No (USB4H08886)
Correct for Detector Non-linearity: Yes (USB4H08886)
Correct for Stray Light: Yes (USB4H08886)
Number of Pixels in Processed Spectrum: 3648
>>>>>Begin Processed Spectral Data<<<<<
178.14	-0.000
178.36	-0.000
178.57	-0.000
178.79	-0.000
179.01	-0.022
179.22	-0.000
179.44	-0.000
179.65	-0.360
179.87	-0.293
180.08	0.050
180.30	-0.058
180.52	-0.391
180.73	-0.259
180.95	-0.130
181.16	-0.044
181.38	-0.005
181.59	0.022
181.81	0.024
182.03	0.001
182.24	0.006
182.46	-0.002
182.67	-0.005
182.89	-0.017
183.10	-0.015
183.32	-0.008
183.54	-0.010
183.75	-0.023
183.97	-0.022
184.18	-0.030
184.40	-0.027
184.61	-0.029
184.83	-0.027
185.04	-0.017
185.26	-0.003
185.48	-0.011
185.69	-0.006
185.91	-0.009
186.12	-0.000
186.34	0.001
186.55	0.001
186.77	0.003
186.98	0.003
187.20	-0.007
187.42	-0.019
187.63	-0.028
187.85	-0.029
188.06	-0.034
188.28	-0.030
188.49	-0.026
188.71	-0.034
188.92	-0.032
189.14	-0.035
189.36	-0.023
189.57	-0.018
189.79	-0.012
190.00	-0.002
190.22	0.008
190.43	0.010
190.65	0.019
190.86	0.017
191.08	0.022
191.29	0.019
191.51	0.023
191.72	0.016
191.94	0.023
192.16	0.019
192.37	0.015
192.59	0.012
192.80	0.007
193.02	0.004
193.23	0.003
193.45	-0.002
193.66	0.006
193.88	0.005
194.09	0.004
194.31	-0.007
194.52	-0.002
194.74	0.001
194.95	-0.003
195.17	0.003
195.38	0.005
195.60	0.015
195.81	0.013
196.03	0.003
196.25	0.009
196.46	-0.001
196.68	0.009
196.89	0.010
197.11	0.003
197.32	0.004
197.54	-0.007
197.75	-0.006
197.97	-0.009
198.18	-0.013
198.40	-0.005
198.61	-0.010
198.83	-0.017
199.04	-0.023
199.26	-0.025
199.47	-0.024
199.69	-0.023
199.90	-0.019
200.12	-0.022
200.33	-0.023
200.55	-0.014
200.76	-0.022
200.98	-0.024
201.19	-0.004
201.41	0.001
201.62	0.003
201.84	-0.001
202.05	-0.005
202.27	-0.008
202.48	-0.005
202.70	-0.006
202.91	-0.010
203.13	0.002
203.34	0.007
203.56	0.001
203.77	0.000
203.99	-0.002
204.20	0.004
204.42	0.016
204.63	0.020
204.85	0.012
205.06	-0.002
205.28	0.003
205.49	-0.003
205.71	0.000
205.92	-0.003
206.14	-0.005
206.35	-0.004
206.56	-0.004
206.78	-0.005
206.99	-0.004
207.21	0.007
207.42	0.020
207.64	0.012
207.85	0.009
208.07	0.003
208.28	0.002
208.50	-0.003
208.71	-0.007
208.93	-0.008
209.14	-0.015
209.36	-0.013
209.57	-0.019
209.79	-0.019
210.00	-0.015
210.22	-0.013
210.43	-0.011
210.64	0.002
210.86	0.005
211.07	0.011
211.29	0.010
211.50	0.009
211.72	0.007
211.93	0.005
212.15	0.006
212.36	0.008
212.58	0.009
212.79	0.010
213.01	-0.000
213.22	0.003
213.43	0.005
213.65	0.007
213.86	-0.001
214.08	-0.005
214.29	-0.009
214.51	-0.015
214.72	-0.016
214.94	-0.013
215.15	-0.013
215.36	-0.011
215.58	-0.012
215.79	-0.017
216.01	-0.026
216.22	-0.010
216.44	-0.014
216.65	-0.010
216.87	-0.003
217.08	-0.003
217.29	-0.004
217.51	-0.011
217.72	-0.009
217.94	-0.008
218.15	-0.004
218.37	-0.003
218.58	-0.007
218.80	-0.007
219.01	-0.013
219.22	-0.019
219.44	-0.024
219.65	-0.027
219.87	-0.024
220.08	-0.022
220.30	-0.033
220.51	-0.035
220.72	-0.024
220.94	-0.026
221.15	-0.020
221.37	-0.015
221.58	-0.016
221.79	-0.014
222.01	-0.012
222.22	-0.011
222.44	-0.017
222.65	-0.003
222.87	-0.007
223.08	-0.016
223.29	-0.019
223.51	-0.027
223.72	-0.026
223.94	-0.028
224.15	-0.032
224.36	-0.032
224.58	-0.037
224.79	-0.036
225.01	-0.042
225.22	-0.038
225.44	-0.038
225.65	-0.037
225.86	-0.030
226.08	-0.031
226.29	-0.030
226.51	-0.025
226.72	-0.026
226.93	-0.022
227.15	-0.026
227.36	-0.023
227.58	-0.025
227.79	-0.023
228.00	-0.024
228.22	-0.033
228.43	-0.038
228.65	-0.037
228.86	-0.038
229.07	-0.042
229.29	-0.044
229.50	-0.043
229.72	-0.051
229.93	-0.050
230.14	-0.051
230.36	-0.051
230.57	-0.048
230.78	-0.046
231.00	-0.047
231.21	-0.052
231.43	-0.048
231.64	-0.049
231.85	-0.050
232.07	-0.048
232.28	-0.052
232.50	-0.051
232.71	-0.051
232.92	-0.052
233.14	-0.053
233.35	-0.059
233.56	-0.058
233.78	-0.060
233.99	-0.061
234.21	-0.060
234.42	-0.058
234.63	-0.058
234.85	-0.059
235.06	-0.063
235.27	-0.063
235.49	-0.066
235.70	-0.065
235.91	-0.065
236.13	-0.068
236.34	-0.067
236.56	-0.069
236.77	-0.071
236.98	-0.070
237.20	-0.071
237.41	-0.070
237.62	-0.070
237.84	-0.068
238.05	-0.067
238.26	-0.066
238.48	-0.066
238.69	-0.066
238.91	-0.065
239.12	-0.063
239.33	-0.063
239.55	-0.062
239.76	-0.062
239.97	-0.061
240.19	-0.061
240.40	-0.060
240.61	-0.059
240.83	-0.057
241.04	-0.055
241.25	-0.055
241.47	-0.056
241.68	-0.056
241.89	-0.055
242.11	-0.054
242.32	-0.055
242.53	-0.054
242.75	-0.055
242.96	-0.055
243.17	-0.056
243.39	-0.055
243.60	-0.055
243.81	-0.054
244.03	-0.054
244.24	-0.054
244.45	-0.054
244.67	-0.054
244.88	-0.053
245.09	-0.052
245.31	-0.052
245.52	-0.051
245.73	-0.051
245.95	-0.051
246.16	-0.050
246.37	-0.049
246.59	-0.048
246.80	-0.048
247.01	-0.047
247.23	-0.046
247.44	-0.046
247.65	-0.046
247.87	-0.045
248.08	-0.046
248.29	-0.045
248.51	-0.045
248.72	-0.045
248.93	-0.045
249.15	-0.044
249.36	-0.044
249.57	-0.044
249.78	-0.044
250.00	-0.043
250.21	-0.042
250.42	-0.042
250.64	-0.042
250.85	-0.041
251.06	-0.041
251.28	-0.042
251.49	-0.041
251.70	-0.040
251.92	-0.040
252.13	-0.040
252.34	-0.040
252.55	-0.040
252.77	-0.039
252.98	-0.039
253.19	-0.039
253.41	-0.039
253.62	-0.039
253.83	-0.039
254.05	-0.039
254.26	-0.039
254.47	-0.038
254.68	-0.038
254.90	-0.038
255.11	-0.038
255.32	-0.037
255.54	-0.037
255.75	-0.037
255.96	-0.036
256.17	-0.036
256.39	-0.036
256.60	-0.035
256.81	-0.035
257.03	-0.035
257.24	-0.035
257.45	-0.036
257.66	-0.035
257.88	-0.035
258.09	-0.035
258.30	-0.035
258.51	-0.035
258.73	-0.035
258.94	-0.035
259.15	-0.035
259.37	-0.034
259.58	-0.034
259.79	-0.033
260.00	-0.033
260.22	-0.033
260.43	-0.033
260.64	-0.034
260.85	-0.034
261.07	-0.033
261.28	-0.033
261.49	-0.033
261.71	-0.034
261.92	-0.033
262.13	-0.033
262.34	-0.034
262.56	-0.034
262.77	-0.034
262.98	-0.034
263.19	-0.034
263.41	-0.034
263.62	-0.034
263.83	-0.035
264.04	-0.035
264.26	-0.035
264.47	-0.035
264.68	-0.035
264.89	-0.035
265.11	-0.035
265.32	-0.035
265.53	-0.035
265.74	-0.035
265.96	-0.035
266.17	-0.036
266.38	-0.035
266.59	-0.036
266.81	-0.036
267.02	-0.035
267.23	-0.036
267.44	-0.036
267.65	-0.036
267.87	-0.036
268.08	-0.036
268.29	-0.036
268.50	-0.036
268.72	-0.036
268.93	-0.036
269.14	-0.036
269.35	-0.037
269.57	-0.037
269.78	-0.037
269.99	-0.037
270.20	-0.037
270.41	-0.037
270.63	-0.038
270.84	-0.037
271.05	-0.037
271.26	-0.037
271.48	-0.038
271.69	-0.038
271.90	-0.038
272.11	-0.038
272.32	-0.038
272.54	-0.038
272.75	-0.038
272.96	-0.039
273.17	-0.039
273.39	-0.039
273.60	-0.040
273.81	-0.040
274.02	-0.040
274.23	-0.040
274.45	-0.040
274.66	-0.040
274.87	-0.040
275.08	-0.040
275.29	-0.040
275.51	-0.040
275.72	-0.040
275.93	-0.040
276.14	-0.040
276.35	-0.040
276.57	-0.040
276.78	-0.040
276.99	-0.039
277.20	-0.040
277.41	-0.040
277.63	-0.039
277.84	-0.039
278.05	-0.039
278.26	-0.039
278.47	-0.039
278.69	-0.039
278.90	-0.039
279.11	-0.039
279.32	-0.039
279.53	-0.039
279.74	-0.039
279.96	-0.039
280.17	-0.039
280.38	-0.039
280.59	-0.039
280.80	-0.038
281.02	-0.038
281.23	-0.038
281.44	-0.038
281.65	-0.038
281.86	-0.038
282.07	-0.038
282.29	-0.038
282.50	-0.037
282.71	-0.037
282.92	-0.037
283.13	-0.037
283.35	-0.037
283.56	-0.036
283.77	-0.036
283.98	-0.036
284.19	-0.036
284.40	-0.035
284.62	-0.035
284.83	-0.035
285.04	-0.035
285.25	-0.034
285.46	-0.034
285.67	-0.033
285.88	-0.033
286.10	-0.033
286.31	-0.032
286.52	-0.032
286.73	-0.032
286.94	-0.031
287.15	-0.031
287.37	-0.030
287.58	-0.030
287.79	-0.030
288.00	-0.029
288.21	-0.029
288.42	-0.029
288.63	-0.028
288.85	-0.028
289.06	-0.027
289.27	-0.027
289.48	-0.026
289.69	-0.026
289.90	-0.025
290.11	-0.025
290.33	-0.024
290.54	-0.024
290.75	-0.024
290.96	-0.024
291.17	-0.023
291.38	-0.023
291.59	-0.023
291.81	-0.022
292.02	-0.022
292.23	-0.022
292.44	-0.022
292.65	-0.022
292.86	-0.022
293.07	-0.021
293.28	-0.021
293.50	-0.021
293.71	-0.021
293.92	-0.021
294.13	-0.020
294.34	-0.020
294.55	-0.020
294.76	-0.020
294.97	-0.020
295.19	-0.020
295.40	-0.019
295.61	-0.019
295.82	-0.019
296.03	-0.019
296.24	-0.019
296.45	-0.019
296.66	-0.019
296.87	-0.019
297.09	-0.019
297.30	-0.019
297.51	-0.019
297.72	-0.019
297.93	-0.019
298.14	-0.019
298.35	-0.019
298.56	-0.019
298.77	-0.019
298.99	-0.019
299.20	-0.019
299.41	-0.019
299.62	-0.018
299.83	-0.018
300.04	-0.018
300.25	-0.018
300.46	-0.018
300.67	-0.018
300.88	-0.018
301.10	-0.018
301.31	-0.018
301.52	-0.018
301.73	-0.018
301.94	-0.018
302.15	-0.018
302.36	-0.018
302.57	-0.018
302.78	-0.018
302.99	-0.018
303.20	-0.018
303.41	-0.018
303.63	-0.018
303.84	-0.018
304.05	-0.018
304.26	-0.018
304.47	-0.018
304.68	-0.018
304.89	-0.018
305.10	-0.018
305.31	-0.018
305.52	-0.018
305.73	-0.018
305.94	-0.018
306.15	-0.018
306.37	-0.018
306.58	-0.018
306.79	-0.017
307.00	-0.017
307.21	-0.017
307.42	-0.017
307.63	-0.017
307.84	-0.017
308.05	-0.017
308.26	-0.017
308.47	-0.017
308.68	-0.017
308.89	-0.017
309.10	-0.017
309.31	-0.017
309.52	-0.017
309.73	-0.017
309.95	-0.017
310.16	-0.017
310.37	-0.017
310.58	-0.017
310.79	-0.017
311.00	-0.017
311.21	-0.017
311.42	-0.017
311.63	-0.017
311.84	-0.017
312.05	-0.017
312.26	-0.017
312.47	-0.017
312.68	-0.017
312.89	-0.017
313.10	-0.017
313.31	-0.017
313.52	-0.017
313.73	-0.017
313.94	-0.016
314.15	-0.016
314.36	-0.016
314.57	-0.016
314.78	-0.016
314.99	-0.016
315.21	-0.016
315.42	-0.016
315.63	-0.016
315.84	-0.016
316.05	-0.016
316.26	-0.016
316.47	-0.017
316.68	-0.017
316.89	-0.017
317.10	-0.016
317.31	-0.016
317.52	-0.016
317.73	-0.016
317.94	-0.016
318.15	-0.016
318.36	-0.016
318.57	-0.016
318.78	-0.016
318.99	-0.016
319.20	-0.016
319.41	-0.016
319.62	-0.016
319.83	-0.016
320.04	-0.016
320.25	-0.016
320.46	-0.016
320.67	-0.016
320.88	-0.016
321.09	-0.016
321.30	-0.016
321.51	-0.016
321.72	-0.016
321.93	-0.016
322.14	-0.016
322.35	-0.015
322.56	-0.015
322.77	-0.015
322.98	-0.015
323.19	-0.015
323.40	-0.015
323.61	-0.015
323.82	-0.015
324.03	-0.015
324.24	-0.015
324.45	-0.015
324.66	-0.015
324.87	-0.015
325.08	-0.015
325.29	-0.015
325.50	-0.015
325.71	-0.015
325.92	-0.015
326.13	-0.015
326.34	-0.015
326.55	-0.015
326.76	-0.015
326.97	-0.015
327.18	-0.015
327.39	-0.015
327.60	-0.014
327.80	-0.014
328.01	-0.014
328.22	-0.014
328.43	-0.014
328.64	-0.014
328.85	-0.014
329.06	-0.014
329.27	-0.014
329.48	-0.014
329.69	-0.014
329.90	-0.014
330.11	-0.014
330.32	-0.014
330.53	-0.014
330.74	-0.014
330.95	-0.014
331.16	-0.014
331.37	-0.014
331.58	-0.014
331.79	-0.014
332.00	-0.014
332.21	-0.014
332.42	-0.014
332.63	-0.014
332.83	-0.014
333.04	-0.014
333.25	-0.014
333.46	-0.014
333.67	-0.014
333.88	-0.014
334.09	-0.014
334.30	-0.014
334.51	-0.014
334.72	-0.014
334.93	-0.014
335.14	-0.014
335.35	-0.013
335.56	-0.014
335.77	-0.013
335.98	-0.013
336.18	-0.013
336.39	-0.013
336.60	-0.013
336.81	-0.013
337.02	-0.013
337.23	-0.013
337.44	-0.013
337.65	-0.013
337.86	-0.013
338.07	-0.013
338.28	-0.013
338.49	-0.013
338.70	-0.013
338.91	-0.013
339.11	-0.013
339.32	-0.013
339.53	-0.013
339.74	-0.013
339.95	-0.013
340.16	-0.013
340.37	-0.013
340.58	-0.013
340.79	-0.013
341.00	-0.013
341.21	-0.012
341.41	-0.013
341.62	-0.013
341.83	-0.012
342.04	-0.013
342.25	-0.013
342.46	-0.013
342.67	-0.013
342.88	-0.013
343.09	-0.013
343.30	-0.012
343.50	-0.012
343.71	-0.012
343.92	-0.012
344.13	-0.012
344.34	-0.012
344.55	-0.012
344.76	-0.012
344.97	-0.012
345.18	-0.012
345.38	-0.012
345.59	-0.012
345.80	-0.012
346.01	-0.012
346.22	-0.012
346.43	-0.012
346.64	-0.012
346.85	-0.012
347.06	-0.012
347.26	-0.012
347.47	-0.012
347.68	-0.012
347.89	-0.012
348.10	-0.012
348.31	-0.012
348.52	-0.012
348.73	-0.012
348.93	-0.012
349.14	-0.012
349.35	-0.012
349.56	-0.012
349.77	-0.012
349.98	-0.012
350.19	-0.012
350.39	-0.012
350.60	-0.012
350.81	-0.011
351.02	-0.011
351.23	-0.012
351.44	-0.012
351.65	-0.012
351.86	-0.011
352.06	-0.011
352.27	-0.011
352.48	-0.011
352.69	-0.011
352.90	-0.011
353.11	-0.011
353.31	-0.011
353.52	-0.011
353.73	-0.011
353.94	-0.011
354.15	-0.011
354.36	-0.011
354.57	-0.011
354.77	-0.011
354.98	-0.011
355.19	-0.011
355.40	-0.011
355.61	-0.011
355.82	-0.011
356.02	-0.011
356.23	-0.011
356.44	-0.011
356.65	-0.011
356.86	-0.011
357.07	-0.011
357.27	-0.011
357.48	-0.011
357.69	-0.010
357.90	-0.010
358.11	-0.010
358.32	-0.010
358.52	-0.010
358.73	-0.010
358.94	-0.010
359.15	-0.010
359.36	-0.010
359.56	-0.010
359.77	-0.010
359.98	-0.011
360.19	-0.011
360.40	-0.011
360.61	-0.011
360.81	-0.010
361.02	-0.010
361.23	-0.010
361.44	-0.010
361.65	-0.010
361.85	-0.010
362.06	-0.010
362.27	-0.010
362.48	-0.010
362.69	-0.010
362.89	-0.010
363.10	-0.010
363.31	-0.010
363.52	-0.010
363.73	-0.010
363.93	-0.010
364.14	-0.010
364.35	-0.010
364.56	-0.010
364.77	-0.010
364.97	-0.010
365.18	-0.010
365.39	-0.010
365.60	-0.010
365.81	-0.010
366.01	-0.010
366.22	-0.010
366.43	-0.010
366.64	-0.010
366.84	-0.010
367.05	-0.010
367.26	-0.010
367.47	-0.010
367.68	-0.010
367.88	-0.010
368.09	-0.010
368.30	-0.010
368.51	-0.010
368.71	-0.010
368.92	-0.010
369.13	-0.010
369.34	-0.010
369.55	-0.010
369.75	-0.010
369.96	-0.010
370.17	-0.010
370.38	-0.010
370.58	-0.010
370.79	-0.010
371.00	-0.010
371.21	-0.010
371.41	-0.010
371.62	-0.010
371.83	-0.009
372.04	-0.009
372.24	-0.009
372.45	-0.009
372.66	-0.009
372.87	-0.009
373.07	-0.009
373.28	-0.010
373.49	-0.010
373.70	-0.010
373.90	-0.010
374.11	-0.010
374.32	-0.010
374.53	-0.010
374.73	-0.010
374.94	-0.010
375.15	-0.010
375.36	-0.010
375.56	-0.009
375.77	-0.009
375.98	-0.009
376.19	-0.009
376.39	-0.009
376.60	-0.009
376.81	-0.009
377.02	-0.009
377.22	-0.009
377.43	-0.009
377.64	-0.009
377.84	-0.009
378.05	-0.009
378.26	-0.009
378.47	-0.009
378.67	-0.009
378.88	-0.009
379.09	-0.009
379.30	-0.009
379.50	-0.009
379.71	-0.009
379.92	-0.009
380.12	-0.009
380.33	-0.009
380.54	-0.009
380.75	-0.009
380.95	-0.009
381.16	-0.009
381.37	-0.009
381.57	-0.008
381.78	-0.009
381.99	-0.009
382.20	-0.009
382.40	-0.009
382.61	-0.008
382.82	-0.008
383.02	-0.009
383.23	-0.009
383.44	-0.009
383.64	-0.009
383.85	-0.009
384.06	-0.009
384.27	-0.009
384.47	-0.009
384.68	-0.009
384.89	-0.009
385.09	-0.009
385.30	-0.009
385.51	-0.009
385.71	-0.009
385.92	-0.009
386.13	-0.009
386.33	-0.009
386.54	-0.009
386.75	-0.009
386.95	-0.009
387.16	-0.009
387.37	-0.009
387.58	-0.009
387.78	-0.009
387.99	-0.009
388.20	-0.009
388.40	-0.009
388.61	-0.008
388.82	-0.008
389.02	-0.008
389.23	-0.008
389.44	-0.008
389.64	-0.008
389.85	-0.009
390.06	-0.009
390.26	-0.009
390.47	-0.009
390.68	-0.009
390.88	-0.009
391.09	-0.009
391.30	-0.009
391.50	-0.009
391.71	-0.009
391.92	-0.008
392.12	-0.008
392.33	-0.008
392.53	-0.008
392.74	-0.008
392.95	-0.008
393.15	-0.008
393.36	-0.008
393.57	-0.008
393.77	-0.008
393.98	-0.008
394.19	-0.008
394.39	-0.008
394.60	-0.008
394.81	-0.008
395.01	-0.008
395.22	-0.008
395.43	-0.008
395.63	-0.008
395.84	-0.008
396.04	-0.008
396.25	-0.008
396.46	-0.008
396.66	-0.008
396.87	-0.008
397.08	-0.008
397.28	-0.008
397.49	-0.008
397.69	-0.008
397.90	-0.008
398.11	-0.008
398.31	-0.008
398.52	-0.008
398.73	-0.008
398.93	-0.008
399.14	-0.008
399.34	-0.007
399.55	-0.007
399.76	-0.008
399.96	-0.008
400.17	-0.008
400.37	-0.008
400.58	-0.008
400.79	-0.008
400.99	-0.008
401.20	-0.008
401.41	-0.008
401.61	-0.008
401.82	-0.008
402.02	-0.008
402.23	-0.008
402.44	-0.008
402.64	-0.008
402.85	-0.008
403.05	-0.008
403.26	-0.008
403.47	-0.008
403.67	-0.007
403.88	-0.007
404.08	-0.008
404.29	-0.008
404.50	-0.008
404.70	-0.008
404.91	-0.008
405.11	-0.008
405.32	-0.008
405.52	-0.008
405.73	-0.008
405.94	-0.008
406.14	-0.008
406.35	-0.008
406.55	-0.008
406.76	-0.008
406.97	-0.008
407.17	-0.008
407.38	-0.008
407.58	-0.008
407.79	-0.008
407.99	-0.008
408.20	-0.008
408.41	-0.008
408.61	-0.008
408.82	-0.008
409.02	-0.008
409.23	-0.008
409.43	-0.008
409.64	-0.008
409.84	-0.008
410.05	-0.008
410.26	-0.008
410.46	-0.008
410.67	-0.008
410.87	-0.008
411.08	-0.008
411.28	-0.007
411.49	-0.007
411.69	-0.008
411.90	-0.007
412.11	-0.007
412.31	-0.007
412.52	-0.007
412.72	-0.007
412.93	-0.007
413.13	-0.007
413.34	-0.007
413.54	-0.007
413.75	-0.007
413.95	-0.007
414.16	-0.007
414.37	-0.007
414.57	-0.007
414.78	-0.007
414.98	-0.007
415.19	-0.007
415.39	-0.007
415.60	-0.007
415.80	-0.007
416.01	-0.007
416.21	-0.007
416.42	-0.007
416.62	-0.007
416.83	-0.007
417.03	-0.007
417.24	-0.007
417.44	-0.007
417.65	-0.007
417.86	-0.007
418.06	-0.007
418.27	-0.007
418.47	-0.007
418.68	-0.007
418.88	-0.007
419.09	-0.007
419.29	-0.007
419.50	-0.007
419.70	-0.007
419.91	-0.007
420.11	-0.007
420.32	-0.007
420.52	-0.007
420.73	-0.007
420.93	-0.007
421.14	-0.007
421.34	-0.007
421.55	-0.007
421.75	-0.007
421.96	-0.007
422.16	-0.007
422.37	-0.007
422.57	-0.007
422.78	-0.007
422.98	-0.007
423.19	-0.007
423.39	-0.007
423.60	-0.007
423.80	-0.007
424.01	-0.007
424.21	-0.007
424.42	-0.007
424.62	-0.007
424.83	-0.007
425.03	-0.007
425.23	-0.007
425.44	-0.007
425.64	-0.007
425.85	-0.007
426.05	-0.007
426.26	-0.007
426.46	-0.007
426.67	-0.007
426.87	-0.007
427.08	-0.007
427.28	-0.007
427.49	-0.007
427.69	-0.007
427.90	-0.007
428.10	-0.007
428.31	-0.007
428.51	-0.007
428.71	-0.007
428.92	-0.007
429.12	-0.007
429.33	-0.007
429.53	-0.007
429.74	-0.007
429.94	-0.007
430.15	-0.007
430.35	-0.007
430.56	-0.007
430.76	-0.007
430.96	-0.007
431.17	-0.007
431.37	-0.007
431.58	-0.007
431.78	-0.007
431.99	-0.007
432.19	-0.007
432.40	-0.007
432.60	-0.007
432.80	-0.007
433.01	-0.007
433.21	-0.007
433.42	-0.007
433.62	-0.007
433.83	-0.007
434.03	-0.007
434.23	-0.007
434.44	-0.006
434.64	-0.006
434.85	-0.006
435.05	-0.006
435.26	-0.006
435.46	-0.006
435.66	-0.006
435.87	-0.007
436.07	-0.007
436.28	-0.007
436.48	-0.007
436.69	-0.007
436.89	-0.007
437.09	-0.007
437.30	-0.007
437.50	-0.007
437.71	-0.007
437.91	-0.007
438.11	-0.007
438.32	-0.006
438.52	-0.007
438.73	-0.007
438.93	-0.007
439.13	-0.007
439.34	-0.006
439.54	-0.006
439.75	-0.007
439.95	-0.006
440.15	-0.007
440.36	-0.007
440.56	-0.007
440.77	-0.007
440.97	-0.006
441.17	-0.006
441.38	-0.006
441.58	-0.006
441.79	-0.006
441.99	-0.006
442.19	-0.006
442.40	-0.006
442.60	-0.006
442.81	-0.006
443.01	-0.006
443.21	-0.006
443.42	-0.006
443.62	-0.006
443.82	-0.007
444.03	-0.007
444.23	-0.007
444.44	-0.007
444.64	-0.007
444.84	-0.007
445.05	-0.007
445.25	-0.007
445.45	-0.007
445.66	-0.007
445.86	-0.007
446.06	-0.007
446.27	-0.007
446.47	-0.006
446.68	-0.006
446.88	-0.006
447.08	-0.006
447.29	-0.006
447.49	-0.006
447.69	-0.006
447.90	-0.006
448.10	-0.006
448.30	-0.006
448.51	-0.006
448.71	-0.006
448.91	-0.006
449.12	-0.006
449.32	-0.006
449.52	-0.006
449.73	-0.006
449.93	-0.006
450.14	-0.006
450.34	-0.006
450.54	-0.006
450.75	-0.006
450.95	-0.006
451.15	-0.006
451.36	-0.006
451.56	-0.006
451.76	-0.006
451.97	-0.006
452.17	-0.006
452.37	-0.006
452.58	-0.006
452.78	-0.006
452.98	-0.006
453.19	-0.006
453.39	-0.006
453.59	-0.006
453.79	-0.006
454.00	-0.006
454.20	-0.006
454.40	-0.006
454.61	-0.006
454.81	-0.006
455.01	-0.006
455.22	-0.006
455.42	-0.006
455.62	-0.006
455.83	-0.006
456.03	-0.006
456.23	-0.006
456.44	-0.006
456.64	-0.006
456.84	-0.006
457.04	-0.006
457.25	-0.006
457.45	-0.006
457.65	-0.006
457.86	-0.006
458.06	-0.006
458.26	-0.006
458.47	-0.006
458.67	-0.006
458.87	-0.006
459.07	-0.006
459.28	-0.006
459.48	-0.006
459.68	-0.006
459.89	-0.006
460.09	-0.006
460.29	-0.006
460.49	-0.006
460.70	-0.006
460.90	-0.006
461.10	-0.006
461.31	-0.006
461.51	-0.006
461.71	-0.006
461.91	-0.006
462.12	-0.006
462.32	-0.006
462.52	-0.006
462.72	-0.006
462.93	-0.006
463.13	-0.006
463.33	-0.006
463.53	-0.006
463.74	-0.006
463.94	-0.006
464.14	-0.006
464.35	-0.006
464.55	-0.006
464.75	-0.006
464.95	-0.006
465.16	-0.006
465.36	-0.006
465.56	-0.006
465.76	-0.006
465.97	-0.006
466.17	-0.006
466.37	-0.006
466.57	-0.006
466.78	-0.006
466.98	-0.006
467.18	-0.006
467.38	-0.006
467.59	-0.006
467.79	-0.006
467.99	-0.006
468.19	-0.006
468.39	-0.006
468.60	-0.006
468.80	-0.006
469.00	-0.006
469.20	-0.006
469.41	-0.006
469.61	-0.006
469.81	-0.006
470.01	-0.006
470.22	-0.006
470.42	-0.006
470.62	-0.006
470.82	-0.006
471.02	-0.006
471.23	-0.006
471.43	-0.006
471.63	-0.006
471.83	-0.006
472.04	-0.006
472.24	-0.006
472.44	-0.006
472.64	-0.006
472.84	-0.006
473.05	-0.006
473.25	-0.006
473.45	-0.006
473.65	-0.006
473.85	-0.006
474.06	-0.006
474.26	-0.006
474.46	-0.006
474.66	-0.006
474.86	-0.006
475.07	-0.006
475.27	-0.006
475.47	-0.006
475.67	-0.006
475.87	-0.006
476.08	-0.006
476.28	-0.006
476.48	-0.006
476.68	-0.006
476.88	-0.006
477.09	-0.006
477.29	-0.006
477.49	-0.006
477.69	-0.006
477.89	-0.006
478.09	-0.006
478.30	-0.006
478.50	-0.006
478.70	-0.006
478.90	-0.006
479.10	-0.006
479.31	-0.006
479.51	-0.006
479.71	-0.006
479.91	-0.006
480.11	-0.006
480.31	-0.006
480.52	-0.006
480.72	-0.006
480.92	-0.006
481.12	-0.006
481.32	-0.006
481.52	-0.006
481.72	-0.006
481.93	-0.006
482.13	-0.005
482.33	-0.006
482.53	-0.005
482.73	-0.006
482.93	-0.006
483.14	-0.006
483.34	-0.005
483.54	-0.006
483.74	-0.006
483.94	-0.006
484.14	-0.006
484.34	-0.006
484.55	-0.006
484.75	-0.006
484.95	-0.006
485.15	-0.006
485.35	-0.005
485.55	-0.005
485.75	-0.005
485.96	-0.005
486.16	-0.005
486.36	-0.005
486.56	-0.005
486.76	-0.005
486.96	-0.005
487.16	-0.005
487.36	-0.005
487.57	-0.005
487.77	-0.005
487.97	-0.005
488.17	-0.005
488.37	-0.005
488.57	-0.005
488.77	-0.005
488.97	-0.005
489.18	-0.005
489.38	-0.005
489.58	-0.005
489.78	-0.005
489.98	-0.005
490.18	-0.005
490.38	-0.005
490.58	-0.005
490.78	-0.005
490.98	-0.005
491.19	-0.005
491.39	-0.005
491.59	-0.005
491.79	-0.005
491.99	-0.005
492.19	-0.005
492.39	-0.005
492.59	-0.005
492.79	-0.005
492.99	-0.005
493.20	-0.005
493.40	-0.005
493.60	-0.005
493.80	-0.005
494.00	-0.005
494.20	-0.005
494.40	-0.005
494.60	-0.005
494.80	-0.005
495.00	-0.005
495.20	-0.005
495.40	-0.005
495.61	-0.005
495.81	-0.005
496.01	-0.005
496.21	-0.005
496.41	-0.005
496.61	-0.005
496.81	-0.005
497.01	-0.005
497.21	-0.005
497.41	-0.005
497.61	-0.005
497.81	-0.005
498.01	-0.005
498.21	-0.005
498.41	-0.005
498.61	-0.005
498.82	-0.005
499.02	-0.005
499.22	-0.004
499.42	-0.005
499.62	-0.005
499.82	-0.005
500.02	-0.005
500.22	-0.005
500.42	-0.005
500.62	-0.005
500.82	-0.005
501.02	-0.005
501.22	-0.005
501.42	-0.005
501.62	-0.005
501.82	-0.005
502.02	-0.005
502.22	-0.005
502.42	-0.005
502.62	-0.005
502.82	-0.005
503.02	-0.005
503.22	-0.005
503.42	-0.005
503.63	-0.005
503.83	-0.005
504.03	-0.005
504.23	-0.005
504.43	-0.005
504.63	-0.005
504.83	-0.005
505.03	-0.005
505.23	-0.005
505.43	-0.005
505.63	-0.005
505.83	-0.005
506.03	-0.005
506.23	-0.005
506.43	-0.005
506.63	-0.005
506.83	-0.005
507.03	-0.005
507.23	-0.005
507.43	-0.005
507.63	-0.005
507.83	-0.005
508.03	-0.005
508.23	-0.005
508.43	-0.005
508.63	-0.005
508.83	-0.005
509.03	-0.005
509.23	-0.005
509.43	-0.005
509.63	-0.005
509.83	-0.005
510.03	-0.005
510.23	-0.005
510.43	-0.004
510.63	-0.004
510.83	-0.004
511.03	-0.004
511.23	-0.004
511.43	-0.004
511.63	-0.004
511.83	-0.004
512.03	-0.004
512.22	-0.004
512.42	-0.004
512.62	-0.004
512.82	-0.004
513.02	-0.004
513.22	-0.004
513.42	-0.004
513.62	-0.004
513.82	-0.004
514.02	-0.004
514.22	-0.004
514.42	-0.004
514.62	-0.004
514.82	-0.004
515.02	-0.004
515.22	-0.004
515.42	-0.004
515.62	-0.004
515.82	-0.004
516.02	-0.004
516.22	-0.004
516.42	-0.004
516.62	-0.005
516.82	-0.005
517.01	-0.005
517.21	-0.005
517.41	-0.005
517.61	-0.005
517.81	-0.005
518.01	-0.005
518.21	-0.005
518.41	-0.005
518.61	-0.005
518.81	-0.004
519.01	-0.004
519.21	-0.004
519.41	-0.004
519.61	-0.004
519.81	-0.004
520.00	-0.004
520.20	-0.004
520.40	-0.004
520.60	-0.004
520.80	-0.004
521.00	-0.004
521.20	-0.004
521.40	-0.004
521.60	-0.004
521.80	-0.004
522.00	-0.004
522.20	-0.004
522.39	-0.004
522.59	-0.004
522.79	-0.004
522.99	-0.004
523.19	-0.004
523.39	-0.004
523.59	-0.004
523.79	-0.004
523.99	-0.004
524.19	-0.004
524.38	-0.004
524.58	-0.004
524.78	-0.004
524.98	-0.004
525.18	-0.004
525.38	-0.004
525.58	-0.004
525.78	-0.004
525.98	-0.004
526.18	-0.004
526.37	-0.004
526.57	-0.004
526.77	-0.004
526.97	-0.004
527.17	-0.004
527.37	-0.004
527.57	-0.004
527.77	-0.004
527.96	-0.004
528.16	-0.004
528.36	-0.004
528.56	-0.004
528.76	-0.004
528.96	-0.004
529.16	-0.004
529.36	-0.004
529.55	-0.004
529.75	-0.004
529.95	-0.004
530.15	-0.004
530.35	-0.004
530.55	-0.004
530.75	-0.004
530.94	-0.004
531.14	-0.004
531.34	-0.004
531.54	-0.004
531.74	-0.004
531.94	-0.004
532.13	-0.004
532.33	-0.004
532.53	-0.004
532.73	-0.004
532.93	-0.004
533.13	-0.004
533.33	-0.004
533.52	-0.004
533.72	-0.004
533.92	-0.004
534.12	-0.004
534.32	-0.004
534.52	-0.004
534.71	-0.004
534.91	-0.004
535.11	-0.004
535.31	-0.004
535.51	-0.004
535.71	-0.004
535.90	-0.004
536.10	-0.004
536.30	-0.004
536.50	-0.004
536.70	-0.004
536.89	-0.004
537.09	-0.004
537.29	-0.004
537.49	-0.004
537.69	-0.004
537.89	-0.004
538.08	-0.004
538.28	-0.004
538.48	-0.004
538.68	-0.004
538.88	-0.004
539.07	-0.004
539.27	-0.004
539.47	-0.004
539.67	-0.004
539.87	-0.004
540.06	-0.004
540.26	-0.004
540.46	-0.004
540.66	-0.004
540.86	-0.004
541.05	-0.004
541.25	-0.004
541.45	-0.004
541.65	-0.004
541.84	-0.004
542.04	-0.004
542.24	-0.004
542.44	-0.004
542.64	-0.004
542.83	-0.004
543.03	-0.004
543.23	-0.004
543.43	-0.004
543.62	-0.004
543.82	-0.004
544.02	-0.004
544.22	-0.004
544.42	-0.004
544.61	-0.004
544.81	-0.004
545.01	-0.004
545.21	-0.004
545.40	-0.004
545.60	-0.004
545.80	-0.004
546.00	-0.004
546.19	-0.004
546.39	-0.004
546.59	-0.004
546.79	-0.004
546.98	-0.004
547.18	-0.004
547.38	-0.004
547.58	-0.004
547.77	-0.004
547.97	-0.004
548.17	-0.004
548.37	-0.004
548.56	-0.004
548.76	-0.004
548.96	-0.004
549.16	-0.004
549.35	-0.004
549.55	-0.004
549.75	-0.004
549.95	-0.004
550.14	-0.004
550.34	-0.004
550.54	-0.004
550.73	-0.004
550.93	-0.004
551.13	-0.004
551.33	-0.003
551.52	-0.004
551.72	-0.004
551.92	-0.004
552.12	-0.003
552.31	-0.003
552.51	-0.004
552.71	-0.004
552.90	-0.004
553.10	-0.004
553.30	-0.004
553.50	-0.004
553.69	-0.004
553.89	-0.004
554.09	-0.004
554.28	-0.004
554.48	-0.004
554.68	-0.004
554.87	-0.003
555.07	-0.003
555.27	-0.003
555.47	-0.003
555.66	-0.003
555.86	-0.003
556.06	-0.003
556.25	-0.003
556.45	-0.003
556.65	-0.003
556.84	-0.003
557.04	-0.003
557.24	-0.003
557.43	-0.003
557.63	-0.003
557.83	-0.003
558.02	-0.003
558.22	-0.003
558.42	-0.003
558.61	-0.004
558.81	-0.004
559.01	-0.004
559.21	-0.004
559.40	-0.004
559.60	-0.003
559.80	-0.003
559.99	-0.003
560.19	-0.003
560.39	-0.004
560.58	-0.004
560.78	-0.004
560.97	-0.004
561.17	-0.004
561.37	-0.004
561.56	-0.004
561.76	-0.004
561.96	-0.004
562.15	-0.004
562.35	-0.004
562.55	-0.004
562.74	-0.004
562.94	-0.003
563.14	-0.003
563.33	-0.003
563.53	-0.003
563.73	-0.003
563.92	-0.003
564.12	-0.003
564.31	-0.003
564.51	-0.003
564.71	-0.003
564.90	-0.003
565.10	-0.003
565.30	-0.003
565.49	-0.003
565.69	-0.003
565.89	-0.003
566.08	-0.003
566.28	-0.003
566.47	-0.003
566.67	-0.003
566.87	-0.003
567.06	-0.004
567.26	-0.003
567.46	-0.004
567.65	-0.004
567.85	-0.003
568.04	-0.004
568.24	-0.004
568.44	-0.004
568.63	-0.004
568.83	-0.004
569.02	-0.004
569.22	-0.004
569.42	-0.004
569.61	-0.004
569.81	-0.004
570.00	-0.004
570.20	-0.004
570.40	-0.004
570.59	-0.004
570.79	-0.004
570.98	-0.004
571.18	-0.004
571.38	-0.004
571.57	-0.004
571.77	-0.004
571.96	-0.004
572.16	-0.004
572.35	-0.004
572.55	-0.004
572.75	-0.004
572.94	-0.004
573.14	-0.004
573.33	-0.004
573.53	-0.004
573.73	-0.004
573.92	-0.004
574.12	-0.004
574.31	-0.004
574.51	-0.004
574.70	-0.003
574.90	-0.003
575.09	-0.003
575.29	-0.002
575.49	-0.002
575.68	-0.002
575.88	-0.001
576.07	-0.001
576.27	-0.001
576.46	-0.000
576.66	-0.000
576.86	-0.000
577.05	-0.000
577.25	-0.000
577.44	-0.000
577.64	-0.000
577.83	-0.000
578.03	-0.000
578.22	-0.000
578.42	-0.000
578.61	-0.000
578.81	-0.000
579.00	-0.000
579.20	-0.000
579.40	-0.000
579.59	-0.000
579.79	-0.000
579.98	-0.000
580.18	-0.000
580.37	-0.000
580.57	-0.000
580.76	-0.000
580.96	-0.000
581.15	-0.000
581.35	-0.000
581.54	-0.000
581.74	-0.000
581.93	-0.000
582.13	-0.000
582.32	-0.000
582.52	-0.000
582.71	-0.000
582.91	-0.000
583.10	-0.000
583.30	-0.000
583.49	-0.000
583.69	-0.000
583.88	-0.000
584.08	-0.000
584.27	-0.000
584.47	-0.000
584.66	-0.000
584.86	-0.000
585.05	-0.000
585.25	-0.000
585.44	-0.000
585.64	-0.000
585.83	-0.000
586.03	-0.000
586.22	-0.000
586.42	-0.000
586.61	-0.001
586.81	-0.001
587.00	-0.001
587.20	-0.002
587.39	-0.002
587.59	-0.002
587.78	-0.003
587.98	-0.003
588.17	-0.003
588.37	-0.003
588.56	-0.003
588.76	-0.003
588.95	-0.003
589.15	-0.003
589.34	-0.003
589.54	-0.003
589.73	-0.003
589.92	-0.003
590.12	-0.003
590.31	-0.003
590.51	-0.003
590.70	-0.003
590.90	-0.003
591.09	-0.003
591.29	-0.003
591.48	-0.003
591.68	-0.003
591.87	-0.003
592.06	-0.003
592.26	-0.003
592.45	-0.003
592.65	-0.003
592.84	-0.003
593.04	-0.003
593.23	-0.003
593.43	-0.003
593.62	-0.003
593.81	-0.003
594.01	-0.003
594.20	-0.003
594.40	-0.003
594.59	-0.003
594.79	-0.003
594.98	-0.003
595.17	-0.003
595.37	-0.003
595.56	-0.003
595.76	-0.003
595.95	-0.003
596.14	-0.003
596.34	-0.003
596.53	-0.003
596.73	-0.003
596.92	-0.003
597.12	-0.003
597.31	-0.004
597.50	-0.004
597.70	-0.004
597.89	-0.004
598.09	-0.004
598.28	-0.004
598.47	-0.004
598.67	-0.004
598.86	-0.004
599.06	-0.004
599.25	-0.003
599.44	-0.003
599.64	-0.003
599.83	-0.003
600.03	-0.003
600.22	-0.003
600.41	-0.003
600.61	-0.003
600.80	-0.003
601.00	-0.003
601.19	-0.003
601.38	-0.003
601.58	-0.003
601.77	-0.003
601.96	-0.003
602.16	-0.003
602.35	-0.003
602.55	-0.003
602.74	-0.003
602.93	-0.003
603.13	-0.003
603.32	-0.003
603.51	-0.003
603.71	-0.003
603.90	-0.003
604.09	-0.003
604.29	-0.003
604.48	-0.003
604.68	-0.003
604.87	-0.003
605.06	-0.003
605.26	-0.003
605.45	-0.003
605.64	-0.003
605.84	-0.003
606.03	-0.003
606.22	-0.003
606.42	-0.003
606.61	-0.003
606.80	-0.003
607.00	-0.003
607.19	-0.003
607.38	-0.003
607.58	-0.003
607.77	-0.003
607.96	-0.003
608.16	-0.002
608.35	-0.002
608.54	-0.002
608.74	-0.002
608.93	-0.002
609.12	-0.002
609.32	-0.002
609.51	-0.002
609.70	-0.003
609.90	-0.003
610.09	-0.002
610.28	-0.003
610.48	-0.003
610.67	-0.003
610.86	-0.003
611.06	-0.003
611.25	-0.003
611.44	-0.003
611.64	-0.003
611.83	-0.003
612.02	-0.003
612.21	-0.003
612.41	-0.003
612.60	-0.003
612.79	-0.003
612.99	-0.003
613.18	-0.003
613.37	-0.003
613.57	-0.003
613.76	-0.003
613.95	-0.003
614.14	-0.003
614.34	-0.003
614.53	-0.003
614.72	-0.003
614.92	-0.002
615.11	-0.002
615.30	-0.003
615.49	-0.003
615.69	-0.002
615.88	-0.002
616.07	-0.002
616.26	-0.002
616.46	-0.002
616.65	-0.002
616.84	-0.002
617.04	-0.002
617.23	-0.002
617.42	-0.002
617.61	-0.002
617.81	-0.002
618.00	-0.002
618.19	-0.002
618.38	-0.002
618.58	-0.002
618.77	-0.002
618.96	-0.002
619.15	-0.002
619.35	-0.002
619.54	-0.002
619.73	-0.002
619.92	-0.002
620.12	-0.002
620.31	-0.003
620.50	-0.003
620.69	-0.003
620.89	-0.003
621.08	-0.003
621.27	-0.003
621.46	-0.003
621.66	-0.003
621.85	-0.003
622.04	-0.003
622.23	-0.003
622.43	-0.003
622.62	-0.003
622.81	-0.003
623.00	-0.003
623.19	-0.003
623.39	-0.003
623.58	-0.003
623.77	-0.003
623.96	-0.003
624.16	-0.003
624.35	-0.003
624.54	-0.003
624.73	-0.003
624.92	-0.003
625.12	-0.003
625.31	-0.003
625.50	-0.003
625.69	-0.003
625.88	-0.003
626.08	-0.003
626.27	-0.002
626.46	-0.003
626.65	-0.002
626.84	-0.002
627.04	-0.002
627.23	-0.002
627.42	-0.002
627.61	-0.002
627.80	-0.002
628.00	-0.002
628.19	-0.002
628.38	-0.002
628.57	-0.002
628.76	-0.002
628.96	-0.002
629.15	-0.002
629.34	-0.002
629.53	-0.002
629.72	-0.002
629.91	-0.002
630.11	-0.002
630.30	-0.002
630.49	-0.002
630.68	-0.002
630.87	-0.002
631.06	-0.002
631.26	-0.002
631.45	-0.001
631.64	-0.001
631.83	-0.001
632.02	-0.001
632.21	-0.001
632.41	-0.002
632.60	-0.002
632.79	-0.002
632.98	-0.002
633.17	-0.002
633.36	-0.002
633.55	-0.002
633.75	-0.002
633.94	-0.002
634.13	-0.002
634.32	-0.002
634.51	-0.002
634.70	-0.002
634.89	-0.002
635.09	-0.002
635.28	-0.002
635.47	-0.002
635.66	-0.002
635.85	-0.002
636.04	-0.002
636.23	-0.002
636.43	-0.002
636.62	-0.002
636.81	-0.002
637.00	-0.002
637.19	-0.002
637.38	-0.002
637.57	-0.002
637.76	-0.002
637.95	-0.002
638.15	-0.002
638.34	-0.002
638.53	-0.002
638.72	-0.002
638.91	-0.002
639.10	-0.002
639.29	-0.002
639.48	-0.002
639.67	-0.002
639.87	-0.002
640.06	-0.002
640.25	-0.002
640.44	-0.002
640.63	-0.002
640.82	-0.002
641.01	-0.002
641.20	-0.002
641.39	-0.002
641.58	-0.002
641.78	-0.002
641.97	-0.002
642.16	-0.002
642.35	-0.002
642.54	-0.002
642.73	-0.002
642.92	-0.002
643.11	-0.002
643.30	-0.002
643.49	-0.002
643.68	-0.002
643.87	-0.002
644.06	-0.002
644.25	-0.002
644.45	-0.002
644.64	-0.002
644.83	-0.002
645.02	-0.002
645.21	-0.002
645.40	-0.002
645.59	-0.002
645.78	-0.002
645.97	-0.002
646.16	-0.002
646.35	-0.002
646.54	-0.002
646.73	-0.002
646.92	-0.002
647.11	-0.002
647.30	-0.002
647.49	-0.002
647.68	-0.002
647.88	-0.002
648.07	-0.002
648.26	-0.002
648.45	-0.002
648.64	-0.002
648.83	-0.002
649.02	-0.002
649.21	-0.002
649.40	-0.002
649.59	-0.002
649.78	-0.002
649.97	-0.002
650.16	-0.002
650.35	-0.002
650.54	-0.002
650.73	-0.002
650.92	-0.002
651.11	-0.002
651.30	-0.002
651.49	-0.002
651.68	-0.001
651.87	-0.001
652.06	-0.001
652.25	-0.001
652.44	-0.002
652.63	-0.002
652.82	-0.002
653.01	-0.003
653.20	-0.003
653.39	-0.003
653.58	-0.003
653.77	-0.003
653.96	-0.004
654.15	-0.004
654.34	-0.004
654.53	-0.004
654.72	-0.003
654.91	-0.003
655.10	-0.003
655.29	-0.003
655.48	-0.003
655.67	-0.003
655.86	-0.003
656.05	-0.003
656.24	-0.003
656.43	-0.003
656.62	-0.003
656.81	-0.003
657.00	-0.002
657.19	-0.002
657.38	-0.002
657.57	-0.002
657.76	-0.002
657.95	-0.001
658.14	-0.001
658.33	-0.001
658.51	-0.001
658.70	-0.001
658.89	-0.001
659.08	-0.001
659.27	-0.001
659.46	-0.001
659.65	-0.001
659.84	-0.001
660.03	-0.001
660.22	-0.001
660.41	-0.002
660.60	-0.002
660.79	-0.002
660.98	-0.002
661.17	-0.002
661.36	-0.002
661.55	-0.002
661.74	-0.002
661.92	-0.002
662.11	-0.002
662.30	-0.002
662.49	-0.002
662.68	-0.002
662.87	-0.002
663.06	-0.002
663.25	-0.002
663.44	-0.002
663.63	-0.002
663.82	-0.002
664.01	-0.002
664.20	-0.002
664.38	-0.002
664.57	-0.002
664.76	-0.002
664.95	-0.002
665.14	-0.002
665.33	-0.002
665.52	-0.002
665.71	-0.002
665.90	-0.002
666.09	-0.001
666.28	-0.001
666.46	-0.002
666.65	-0.002
666.84	-0.001
667.03	-0.002
667.22	-0.002
667.41	-0.002
667.60	-0.002
667.79	-0.002
667.98	-0.002
668.16	-0.002
668.35	-0.002
668.54	-0.002
668.73	-0.002
668.92	-0.002
669.11	-0.002
669.30	-0.002
669.49	-0.002
669.67	-0.002
669.86	-0.002
670.05	-0.002
670.24	-0.002
670.43	-0.002
670.62	-0.002
670.81	-0.002
671.00	-0.002
671.18	-0.002
671.37	-0.002
671.56	-0.002
671.75	-0.002
671.94	-0.002
672.13	-0.002
672.32	-0.002
672.50	-0.002
672.69	-0.002
672.88	-0.002
673.07	-0.002
673.26	-0.002
673.45	-0.002
673.63	-0.002
673.82	-0.002
674.01	-0.002
674.20	-0.002
674.39	-0.002
674.58	-0.002
674.76	-0.002
674.95	-0.002
675.14	-0.002
675.33	-0.002
675.52	-0.002
675.71	-0.002
675.89	-0.002
676.08	-0.002
676.27	-0.002
676.46	-0.002
676.65	-0.001
676.84	-0.001
677.02	-0.002
677.21	-0.002
677.40	-0.002
677.59	-0.002
677.78	-0.002
677.96	-0.002
678.15	-0.002
678.34	-0.002
678.53	-0.002
678.72	-0.002
678.90	-0.002
679.09	-0.002
679.28	-0.002
679.47	-0.002
679.66	-0.002
679.84	-0.002
680.03	-0.002
680.22	-0.002
680.41	-0.002
680.60	-0.002
680.78	-0.002
680.97	-0.002
681.16	-0.002
681.35	-0.002
681.53	-0.002
681.72	-0.002
681.91	-0.002
682.10	-0.002
682.29	-0.002
682.47	-0.002
682.66	-0.002
682.85	-0.002
683.04	-0.002
683.22	-0.002
683.41	-0.002
683.60	-0.002
683.79	-0.002
683.97	-0.002
684.16	-0.002
684.35	-0.002
684.54	-0.002
684.72	-0.002
684.91	-0.002
685.10	-0.002
685.29	-0.002
685.47	-0.002
685.66	-0.002
685.85	-0.002
686.04	-0.002
686.22	-0.002
686.41	-0.002
686.60	-0.002
686.79	-0.002
686.97	-0.002
687.16	-0.002
687.35	-0.002
687.54	-0.002
687.72	-0.002
687.91	-0.002
688.10	-0.002
688.29	-0.001
688.47	-0.002
688.66	-0.001
688.85	-0.002
689.03	-0.002
689.22	-0.002
689.41	-0.002
689.60	-0.001
689.78	-0.002
689.97	-0.002
690.16	-0.001
690.34	-0.002
690.53	-0.001
690.72	-0.001
690.91	-0.001
691.09	-0.001
691.28	-0.001
691.47	-0.001
691.65	-0.002
691.84	-0.002
692.03	-0.001
692.21	-0.002
692.40	-0.002
692.59	-0.002
692.77	-0.002
692.96	-0.002
693.15	-0.002
693.34	-0.002
693.52	-0.002
693.71	-0.001
693.90	-0.001
694.08	-0.001
694.27	-0.001
694.46	-0.001
694.64	-0.002
694.83	-0.002
695.02	-0.002
695.20	-0.002
695.39	-0.002
695.58	-0.001
695.76	-0.001
695.95	-0.001
696.14	-0.002
696.32	-0.002
696.51	-0.001
696.70	-0.001
696.88	-0.001
697.07	-0.001
697.26	-0.002
697.44	-0.001
697.63	-0.002
697.81	-0.002
698.00	-0.002
698.19	-0.002
698.37	-0.002
698.56	-0.002
698.75	-0.002
698.93	-0.002
699.12	-0.002
699.31	-0.002
699.49	-0.002
699.68	-0.002
699.87	-0.002
700.05	-0.002
700.24	-0.002
700.42	-0.002
700.61	-0.002
700.80	-0.002
700.98	-0.002
701.17	-0.002
701.36	-0.002
701.54	-0.002
701.73	-0.001
701.91	-0.001
702.10	-0.001
702.29	-0.001
702.47	-0.001
702.66	-0.001
702.84	-0.001
703.03	-0.001
703.22	-0.001
703.40	-0.001
703.59	-0.001
703.77	-0.001
703.96	-0.001
704.15	-0.001
704.33	-0.001
704.52	-0.002
704.70	-0.002
704.89	-0.002
705.08	-0.002
705.26	-0.002
705.45	-0.002
705.63	-0.002
705.82	-0.002
706.00	-0.002
706.19	-0.002
706.38	-0.002
706.56	-0.002
706.75	-0.001
706.93	-0.001
707.12	-0.001
707.30	-0.001
707.49	-0.001
707.68	-0.001
707.86	-0.001
708.05	-0.001
708.23	-0.001
708.42	-0.001
708.60	-0.001
708.79	-0.001
708.98	-0.001
709.16	-0.001
709.35	-0.001
709.53	-0.001
709.72	-0.001
709.90	-0.002
710.09	-0.002
710.27	-0.002
710.46	-0.002
710.64	-0.002
710.83	-0.002
711.02	-0.002
711.20	-0.002
711.39	-0.001
711.57	-0.001
711.76	-0.001
711.94	-0.001
712.13	-0.001
712.31	-0.001
712.50	-0.001
712.68	-0.001
712.87	-0.001
713.05	-0.001
713.24	-0.001
713.42	-0.001
713.61	-0.001
713.79	-0.001
713.98	-0.001
714.16	-0.001
714.35	-0.001
714.54	-0.001
714.72	-0.001
714.91	-0.001
715.09	-0.001
715.28	-0.001
715.46	-0.001
715.65	-0.001
715.83	-0.001
716.02	-0.001
716.20	-0.001
716.39	-0.002
716.57	-0.002
716.76	-0.002
716.94	-0.001
717.12	-0.001
717.31	-0.001
717.49	-0.001
717.68	-0.001
717.86	-0.001
718.05	-0.001
718.23	-0.001
718.42	-0.001
718.60	-0.001
718.79	-0.001
718.97	-0.001
719.16	-0.001
719.34	-0.001
719.53	-0.001
719.71	-0.001
719.90	-0.001
720.08	-0.001
720.27	-0.001
720.45	-0.001
720.63	-0.001
720.82	-0.001
721.00	-0.001
721.19	-0.001
721.37	-0.001
721.56	-0.001
721.74	-0.001
721.93	-0.001
722.11	-0.001
722.30	-0.001
722.48	-0.001
722.66	-0.001
722.85	-0.001
723.03	-0.001
723.22	-0.001
723.40	-0.001
723.59	-0.001
723.77	-0.001
723.95	-0.001
724.14	-0.001
724.32	-0.001
724.51	-0.001
724.69	-0.001
724.88	-0.001
725.06	-0.001
725.24	-0.001
725.43	-0.001
725.61	-0.001
725.80	-0.001
725.98	-0.001
726.16	-0.001
726.35	-0.001
726.53	-0.001
726.72	-0.001
726.90	-0.001
727.09	-0.001
727.27	-0.001
727.45	-0.001
727.64	-0.001
727.82	-0.001
728.01	-0.001
728.19	-0.001
728.37	-0.002
728.56	-0.002
728.74	-0.002
728.92	-0.002
729.11	-0.002
729.29	-0.002
729.48	-0.002
729.66	-0.002
729.84	-0.002
730.03	-0.002
730.21	-0.002
730.40	-0.002
730.58	-0.002
730.76	-0.002
730.95	-0.002
731.13	-0.002
731.31	-0.002
731.50	-0.002
731.68	-0.002
731.86	-0.002
732.05	-0.001
732.23	-0.002
732.42	-0.002
732.60	-0.001
732.78	-0.002
732.97	-0.002
733.15	-0.002
733.33	-0.001
733.52	-0.001
733.70	-0.002
733.88	-0.002
734.07	-0.002
734.25	-0.002
734.43	-0.002
734.62	-0.002
734.80	-0.002
734.98	-0.002
735.17	-0.003
735.35	-0.003
735.53	-0.003
735.72	-0.003
735.90	-0.002
736.08	-0.002
736.27	-0.002
736.45	-0.002
736.63	-0.002
736.82	-0.002
737.00	-0.002
737.18	-0.001
737.37	-0.001
737.55	-0.001
737.73	-0.001
737.92	-0.001
738.10	-0.001
738.28	-0.002
738.46	-0.001
738.65	-0.001
738.83	-0.001
739.01	-0.001
739.20	-0.002
739.38	-0.002
739.56	-0.002
739.75	-0.002
739.93	-0.001
740.11	-0.002
740.29	-0.001
740.48	-0.001
740.66	-0.002
740.84	-0.001
741.03	-0.001
741.21	-0.001
741.39	-0.001
741.57	-0.002
741.76	-0.002
741.94	-0.002
742.12	-0.002
742.31	-0.002
742.49	-0.002
742.67	-0.002
742.85	-0.003
743.04	-0.003
743.22	-0.002
743.40	-0.001
743.58	-0.001
743.77	-0.002
743.95	-0.002
744.13	-0.002
744.31	-0.002
744.50	-0.003
744.68	-0.003
744.86	-0.003
745.04	-0.003
745.23	-0.003
745.41	-0.004
745.59	-0.004
745.77	-0.003
745.96	-0.003
746.14	-0.003
746.32	-0.003
746.50	-0.002
746.69	-0.002
746.87	-0.002
747.05	-0.002
747.23	-0.002
747.42	-0.001
747.60	-0.001
747.78	-0.001
747.96	-0.001
748.14	-0.001
748.33	-0.001
748.51	-0.002
748.69	-0.002
748.87	-0.002
749.06	-0.002
749.24	-0.002
749.42	-0.002
749.60	-0.001
749.78	-0.002
749.97	-0.001
750.15	-0.001
750.33	-0.001
750.51	-0.002
750.69	-0.001
750.88	-0.002
751.06	-0.001
751.24	-0.001
751.42	-0.001
751.60	-0.002
751.79	-0.002
751.97	-0.003
752.15	-0.003
752.33	-0.003
752.51	-0.002
752.69	-0.003
752.88	-0.002
753.06	-0.003
753.24	-0.003
753.42	-0.002
753.60	-0.002
753.78	-0.002
753.97	-0.003
754.15	-0.003
754.33	-0.003
754.51	-0.003
754.69	-0.003
754.87	-0.004
755.06	-0.004
755.24	-0.004
755.42	-0.004
755.60	-0.005
755.78	-0.005
755.96	-0.005
756.15	-0.005
756.33	-0.004
756.51	-0.004
756.69	-0.004
756.87	-0.004
757.05	-0.004
757.23	-0.005
757.42	-0.004
757.60	-0.004
757.78	-0.003
757.96	-0.002
758.14	-0.002
758.32	-0.002
758.50	-0.002
758.69	-0.002
758.87	-0.002
759.05	-0.001
759.23	-0.001
759.41	-0.001
759.59	-0.002
759.77	-0.002
759.95	-0.003
760.13	-0.003
760.32	-0.002
760.50	-0.002
760.68	-0.002
760.86	-0.002
761.04	-0.002
761.22	-0.002
761.40	-0.002
761.58	-0.001
761.76	-0.002
761.95	-0.002
762.13	-0.001
762.31	-0.002
762.49	-0.002
762.67	-0.002
762.85	-0.002
763.03	-0.003
763.21	-0.002
763.39	-0.002
763.57	-0.003
763.75	-0.003
763.94	-0.002
764.12	-0.002
764.30	-0.002
764.48	-0.002
764.66	-0.002
764.84	-0.003
765.02	-0.002
765.20	-0.002
765.38	-0.002
765.56	-0.002
765.74	-0.002
765.92	-0.002
766.10	-0.003
766.28	-0.002
766.46	-0.002
766.65	-0.002
766.83	-0.001
767.01	-0.001
767.19	-0.001
767.37	-0.002
767.55	-0.001
767.73	-0.001
767.91	-0.001
768.09	-0.000
768.27	-0.001
768.45	-0.001
768.63	-0.000
768.81	-0.000
768.99	-0.001
769.17	-0.000
769.35	-0.000
769.53	-0.001
769.71	-0.001
769.89	-0.001
770.07	-0.001
770.25	-0.002
770.43	-0.002
770.61	-0.002
770.79	-0.002
770.97	-0.002
771.15	-0.002
771.33	-0.001
771.51	-0.001
771.69	-0.001
771.87	-0.001
772.05	-0.001
772.24	-0.000
772.42	0.001
772.60	0.001
772.78	0.001
772.96	0.002
773.14	0.001
773.32	0.001
773.49	0.001
773.67	0.001
773.85	0.001
774.03	0.000
774.21	0.000
774.39	-0.000
774.57	-0.001
774.75	-0.001
774.93	-0.001
775.11	-0.001
775.29	-0.001
775.47	-0.001
775.65	-0.001
775.83	-0.001
776.01	-0.001
776.19	-0.001
776.37	-0.001
776.55	-0.000
776.73	-0.000
776.91	-0.000
777.09	-0.000
777.27	-0.001
777.45	-0.001
777.63	-0.001
777.81	-0.001
777.99	-0.001
778.17	-0.002
778.35	-0.002
778.53	-0.002
778.71	-0.002
778.89	-0.003
779.07	-0.002
779.24	-0.002
779.42	-0.001
779.60	-0.002
779.78	-0.001
779.96	-0.001
780.14	-0.001
780.32	-0.000
780.50	-0.000
780.68	-0.000
780.86	-0.000
781.04	-0.000
781.22	-0.001
781.40	-0.001
781.58	-0.001
781.75	-0.001
781.93	-0.001
782.11	-0.001
782.29	-0.001
782.47	-0.001
782.65	-0.001
782.83	-0.001
783.01	-0.001
783.19	-0.001
783.37	-0.001
783.55	-0.001
783.72	-0.001
783.90	-0.001
784.08	-0.001
784.26	-0.001
784.44	-0.001
784.62	-0.001
784.80	-0.000
784.98	-0.000
785.16	-0.000
785.33	-0.000
785.51	-0.000
785.69	-0.000
785.87	-0.000
786.05	-0.000
786.23	-0.000
786.41	-0.001
786.59	-0.001
786.77	-0.001
786.94	-0.001
787.12	-0.001
787.30	-0.001
787.48	-0.001
787.66	-0.001
787.84	-0.001
788.02	-0.001
788.19	-0.001
788.37	-0.001
788.55	-0.001
788.73	-0.001
788.91	-0.001
789.09	-0.001
789.27	-0.001
789.44	-0.001
789.62	-0.001
789.80	-0.001
789.98	-0.002
790.16	-0.002
790.34	-0.002
790.51	-0.002
790.69	-0.002
790.87	-0.002
791.05	-0.001
791.23	-0.001
791.41	-0.001
791.58	-0.001
791.76	-0.001
791.94	-0.001
792.12	-0.000
792.30	-0.000
792.48	-0.000
792.65	0.000
792.83	-0.000
793.01	-0.000
793.19	-0.000
793.37	-0.000
793.54	-0.001
793.72	-0.001
793.90	-0.001
794.08	-0.001
794.26	-0.001
794.43	-0.002
794.61	-0.002
794.79	-0.002
794.97	-0.002
795.15	-0.002
795.32	-0.001
795.50	-0.001
795.68	-0.001
795.86	-0.000
796.04	-0.000
796.21	-0.000
796.39	0.000
796.57	-0.000
796.75	0.000
796.92	-0.000
797.10	0.000
797.28	-0.000
797.46	-0.000
797.64	-0.000
797.81	-0.000
797.99	-0.001
798.17	-0.000
798.35	-0.000
798.52	0.000
798.70	0.000
798.88	0.000
799.06	-0.000
799.23	0.000
799.41	-0.000
799.59	-0.000
799.77	-0.001
799.94	-0.000
800.12	-0.000
800.30	-0.000
800.48	-0.001
800.65	-0.001
800.83	-0.001
801.01	-0.001
801.19	-0.002
801.36	-0.002
801.54	-0.001
801.72	-0.001
801.90	-0.001
802.07	-0.001
802.25	-0.002
802.43	-0.002
802.60	-0.002
802.78	-0.001
802.96	-0.001
803.14	-0.001
803.31	-0.000
803.49	-0.001
803.67	-0.001
803.84	-0.001
804.02	-0.001
804.20	-0.001
804.38	-0.001
804.55	-0.001
804.73	-0.001
804.91	-0.001
805.08	-0.002
805.26	-0.002
805.44	-0.002
805.61	-0.003
805.79	-0.002
805.97	-0.002
806.15	-0.002
806.32	-0.002
806.50	-0.002
806.68	-0.002
806.85	-0.002
807.03	-0.001
807.21	-0.001
807.38	-0.001
807.56	-0.001
807.74	-0.001
807.91	-0.001
808.09	-0.001
808.27	-0.001
808.44	-0.001
808.62	-0.000
808.80	-0.000
808.97	-0.000
809.15	-0.000
809.33	-0.000
809.50	0.000
809.68	0.000
809.86	0.001
810.03	0.001
810.21	0.001
810.39	0.001
810.56	0.000
810.74	0.000
810.91	0.000
811.09	-0.000
811.27	-0.000
811.44	-0.000
811.62	-0.000
811.80	-0.001
811.97	-0.001
812.15	-0.001
812.33	-0.001
812.50	-0.001
812.68	-0.001
812.85	-0.001
813.03	-0.001
813.21	-0.001
813.38	-0.001
813.56	-0.001
813.74	-0.001
813.91	-0.002
814.09	-0.002
814.26	-0.001
814.44	-0.001
814.62	-0.001
814.79	-0.001
814.97	-0.001
815.14	-0.001
815.32	-0.000
815.50	-0.001
815.67	-0.001
815.85	-0.001
816.02	-0.001
816.20	-0.001
816.38	-0.001
816.55	-0.001
816.73	-0.001
816.90	-0.001
817.08	-0.001
817.26	-0.001
817.43	-0.001
817.61	-0.002
817.78	-0.002
817.96	-0.001
818.13	-0.002
818.31	-0.001
818.49	-0.002
818.66	-0.002
818.84	-0.002
819.01	-0.002
819.19	-0.002
819.36	-0.001
819.54	-0.001
819.71	-0.001
819.89	-0.000
820.07	0.000
820.24	-0.000
820.42	0.000
820.59	0.000
820.77	0.000
820.94	0.001
821.12	0.001
821.29	0.001
821.47	0.001
821.64	0.000
821.82	-0.000
822.00	-0.001
822.17	-0.000
822.35	-0.000
822.52	0.000
822.70	0.000
822.87	-0.000
823.05	-0.001
823.22	-0.001
823.40	-0.001
823.57	-0.001
823.75	-0.000
823.92	-0.000
824.10	-0.000
824.27	-0.001
824.45	-0.001
824.62	-0.001
824.80	-0.002
824.97	-0.001
825.15	-0.001
825.32	-0.001
825.50	-0.001
825.67	-0.000
825.85	-0.000
826.02	-0.000
826.20	-0.000
826.37	-0.001
826.55	0.000
826.72	0.000
826.90	0.001
827.07	0.001
827.25	0.001
827.42	-0.000
827.60	-0.000
827.77	-0.000
827.95	0.000
828.12	0.000
828.30	0.001
828.47	-0.000
828.65	-0.001
828.82	-0.002
829.00	-0.001
829.17	-0.001
829.34	-0.001
829.52	-0.000
829.69	0.000
829.87	-0.000
830.04	0.000
830.22	-0.000
830.39	-0.000
830.57	-0.001
830.74	-0.001
830.92	-0.001
831.09	0.000
831.26	0.000
831.44	-0.000
831.61	-0.001
831.79	-0.001
831.96	-0.001
832.14	-0.000
832.31	0.001
832.49	0.002
832.66	0.002
832.83	0.002
833.01	0.001
833.18	0.001
833.36	0.001
833.53	0.001
833.70	0.000
833.88	-0.001
834.05	-0.002
834.23	-0.003
834.40	-0.002
834.58	-0.003
834.75	-0.002
834.92	-0.003
835.10	-0.002
835.27	-0.002
835.45	-0.000
835.62	-0.000
835.79	-0.000
835.97	0.000
836.14	0.001
836.32	0.000
836.49	0.002
836.66	0.001
836.84	0.001
837.01	0.001
837.18	0.002
837.36	0.001
837.53	0.003
837.71	0.004
837.88	0.006
838.05	0.006
838.23	0.006
838.40	0.005
838.58	0.005
838.75	0.005
838.92	0.004
839.10	0.005
839.27	0.003
839.44	0.002
839.62	0.002
839.79	0.001
839.96	0.000
840.14	0.001
840.31	-0.001
840.48	-0.001
840.66	-0.001
840.83	-0.002
841.01	-0.002
841.18	0.000
841.35	0.000
841.53	0.001
841.70	0.000
841.87	0.002
842.05	-0.001
842.22	-0.002
842.39	-0.001
842.57	-0.001
842.74	-0.002
842.91	-0.004
843.09	-0.005
843.26	-0.006
843.43	-0.007
843.60	-0.007
843.78	-0.006
843.95	-0.004
844.12	-0.002
844.30	-0.002
844.47	-0.000
844.64	0.000
844.82	0.002
844.99	0.002
845.16	0.002
845.34	0.002
845.51	0.003
845.68	0.002
845.85	0.002
846.03	0.002
846.20	0.003
846.37	0.004
846.55	0.004
846.72	0.003
846.89	0.004
847.06	0.005
847.24	0.003
847.41	0.003
847.58	0.004
847.76	0.005
847.93	0.007
848.10	0.005
848.27	0.004
848.45	0.006
848.62	0.005
848.79	0.005
848.97	0.002
849.14	0.002
849.31	0.003
849.48	0.004
849.66	-0.001
849.83	-0.002
850.00	-0.000
850.17	0.000
850.35	-0.001
850.52	-0.001
850.69	-0.004
850.86	-0.002
851.04	-0.002
851.21	-0.004
851.38	-0.004
851.55	-0.003
851.72	-0.004
851.90	-0.007
852.07	-0.007
852.24	-0.010
852.41	-0.008
852.59	-0.005
852.76	-0.005
852.93	-0.006
853.10	-0.006
853.28	-0.009
853.45	-0.006
853.62	-0.006
853.79	-0.004
853.96	-0.006
854.14	-0.003
854.31	-0.003
854.48	-0.004
854.65	-0.003
854.82	0.001
855.00	0.001
855.17	0.000
855.34	0.003
855.51	0.003
855.68	0.001
855.86	0.004
856.03	0.004
856.20	0.002
856.37	0.000
856.54	-0.001
856.72	-0.002
856.89	0.001
857.06	0.004
857.23	0.002
857.40	0.004
857.57	0.004
857.75	0.003
857.92	0.001
858.09	-0.000
858.26	0.003
858.43	0.005
858.60	0.008
858.78	0.002
858.95	0.002
859.12	0.001
859.29	-0.002
859.46	-0.001
859.63	-0.002
859.81	-0.000
859.98	0.006
860.15	0.001
860.32	0.005
860.49	0.001
860.66	0.004
860.83	0.003
861.01	0.006
861.18	0.003
861.35	0.003
861.52	0.007
861.69	0.007
861.86	0.005
862.03	0.005
862.21	0.000
862.38	0.001
862.55	-0.000
862.72	-0.001
862.89	-0.004
863.06	-0.001
863.23	-0.003
863.40	-0.006
863.58	-0.006
863.75	-0.006
863.92	-0.005
864.09	-0.004
864.26	-0.003
864.43	-0.002
864.60	-0.000
864.77	0.000
864.94	0.000
865.11	0.003
865.29	0.003
865.46	0.001
865.63	-0.001
865.80	-0.000
865.97	-0.002
866.14	-0.002
866.31	-0.003
866.48	-0.002
866.65	-0.002
866.82	-0.002
866.99	-0.005
867.16	-0.007
867.34	-0.008
867.51	-0.009
867.68	-0.008
867.85	-0.011
868.02	-0.013
868.19	-0.011
868.36	-0.016
868.53	-0.018
868.70	-0.016
868.87	-0.010
869.04	-0.006
869.21	-0.002
869.38	-0.001
869.55	-0.002
869.72	-0.001
869.89	0.001
870.06	-0.000
870.24	0.001
870.41	0.006
870.58	0.008
870.75	0.002
870.92	-0.002
871.09	-0.005
871.26	0.001
871.43	0.003
871.60	0.007
871.77	0.007
871.94	0.006
872.11	0.006
872.28	0.005
872.45	0.002
872.62	-0.001
872.79	0.001
872.96	-0.003
873.13	-0.004
873.30	-0.004
873.47	-0.001
873.64	0.003
873.81	0.004
873.98	0.007
874.15	0.003
874.32	0.003
874.49	0.008
874.66	0.009
874.83	0.015
875.00	0.011
875.17	0.012
875.34	0.006
875.51	0.006
875.68	0.010
875.85	0.002
876.02	0.004
876.19	0.006
876.36	0.012
876.53	0.014
876.70	0.010
876.87	0.012
877.04	0.009
877.21	0.008
877.38	0.001
877.55	-0.006
877.72	-0.002
877.89	-0.001
878.06	-0.007
878.23	-0.018
878.39	-0.018
878.56	-0.017
878.73	-0.020
878.90	-0.015
879.07	-0.017
879.24	-0.011
879.41	-0.008
879.58	-0.009
879.75	-0.012
879.92	-0.002
880.09	0.007
880.26	-0.001
880.43	-0.003
880.60	-0.000
880.77	-0.008
880.94	-0.009
881.11	-0.009
881.27	-0.005
881.44	-0.001
881.61	0.001
881.78	-0.012
881.95	-0.010
882.12	-0.005
882.29	0.004
882.46	0.010
882.63	0.017
882.80	0.024
882.97	0.022
883.14	0.015
883.30	0.016
883.47	0.013
883.64	0.013
883.81	0.004
883.98	0.001
884.15	-0.007
884.32	-0.013
884.49	-0.017
884.66	-0.016
884.82	-0.010
884.99	-0.008
885.16	-0.014
885.33	-0.007
885.50	0.004
885.67	0.011
885.84	0.014
886.01	0.016
886.17	0.011
886.34	0.012
886.51	0.005
886.68	0.004
886.85	0.007
887.02	0.018
887.19	0.007
887.36	0.003
887.52	0.000
887.69	0.011
887.86	0.014
888.03	0.015
888.20	0.019
888.37	0.023
888.54	0.025
888.70	0.024
888.87	0.017
889.04	0.029
889.21	0.029
889.38	0.033
889.55	0.020
889.71	-0.043
889.88	0.046
890.05	-0.003
890.22	0.064
890.39	-0.040
>>>>>End Processed Spectral Data<<<<<
