SpectraSuite Data File
++++++++++++++++++++++++++++++++++++
Date: Mon Jun 15 09:44:02 PDT 2015
User: introlabs
Dark Spectrum Present: Yes
Reference Spectrum Present: Yes
Number of Sampled Component Spectra: 1
Spectrometers: USB4H08886
Integration Time (usec): 44366 (USB4H08886)
Spectra Averaged: 20 (USB4H08886)
Boxcar Smoothing: 5 (USB4H08886)
Correct for Electrical Dark: Yes (USB4H08886)
Strobe/Lamp Enabled: No (USB4H08886)
Correct for Detector Non-linearity: Yes (USB4H08886)
Correct for Stray Light: Yes (USB4H08886)
Number of Pixels in Processed Spectrum: 3648
>>>>>Begin Processed Spectral Data<<<<<
178.14	1.413
178.36	1.413
178.57	1.413
178.79	2.818
179.01	-0.193
179.22	0.330
179.44	-0.080
179.65	-0.000
179.87	-0.000
180.08	0.821
180.30	-0.000
180.52	-0.000
180.73	-0.000
180.95	1.571
181.16	0.563
181.38	0.416
181.59	0.439
181.81	0.439
182.03	0.458
182.24	0.467
182.46	0.479
182.67	0.437
182.89	0.424
183.10	0.398
183.32	0.399
183.54	0.386
183.75	0.391
183.97	0.383
184.18	0.381
184.40	0.372
184.61	0.365
184.83	0.361
185.04	0.361
185.26	0.356
185.48	0.382
185.69	0.397
185.91	0.384
186.12	0.381
186.34	0.377
186.55	0.368
186.77	0.378
186.98	0.390
187.20	0.361
187.42	0.381
187.63	0.389
187.85	0.394
188.06	0.413
188.28	0.436
188.49	0.421
188.71	0.453
188.92	0.467
189.14	0.438
189.36	0.440
189.57	0.460
189.79	0.404
190.00	0.386
190.22	0.377
190.43	0.361
190.65	0.348
190.86	0.365
191.08	0.344
191.29	0.335
191.51	0.350
191.72	0.332
191.94	0.330
192.16	0.353
192.37	0.381
192.59	0.395
192.80	0.397
193.02	0.404
193.23	0.389
193.45	0.391
193.66	0.400
193.88	0.405
194.09	0.415
194.31	0.421
194.52	0.420
194.74	0.406
194.95	0.420
195.17	0.428
195.38	0.438
195.60	0.440
195.81	0.453
196.03	0.457
196.25	0.470
196.46	0.468
196.68	0.494
196.89	0.481
197.11	0.485
197.32	0.451
197.54	0.426
197.75	0.456
197.97	0.459
198.18	0.440
198.40	0.435
198.61	0.418
198.83	0.401
199.04	0.383
199.26	0.410
199.47	0.397
199.69	0.406
199.90	0.419
200.12	0.402
200.33	0.399
200.55	0.392
200.76	0.373
200.98	0.378
201.19	0.376
201.41	0.368
201.62	0.347
201.84	0.354
202.05	0.364
202.27	0.369
202.48	0.376
202.70	0.385
202.91	0.399
203.13	0.413
203.34	0.407
203.56	0.433
203.77	0.447
203.99	0.439
204.20	0.451
204.42	0.424
204.63	0.408
204.85	0.384
205.06	0.379
205.28	0.397
205.49	0.383
205.71	0.379
205.92	0.380
206.14	0.396
206.35	0.425
206.56	0.422
206.78	0.429
206.99	0.454
207.21	0.461
207.42	0.446
207.64	0.433
207.85	0.443
208.07	0.464
208.28	0.450
208.50	0.427
208.71	0.426
208.93	0.412
209.14	0.414
209.36	0.401
209.57	0.418
209.79	0.436
210.00	0.446
210.22	0.452
210.43	0.447
210.64	0.448
210.86	0.443
211.07	0.432
211.29	0.441
211.50	0.460
211.72	0.451
211.93	0.431
212.15	0.435
212.36	0.429
212.58	0.440
212.79	0.450
213.01	0.450
213.22	0.466
213.43	0.469
213.65	0.460
213.86	0.443
214.08	0.465
214.29	0.473
214.51	0.475
214.72	0.465
214.94	0.439
215.15	0.446
215.36	0.452
215.58	0.446
215.79	0.443
216.01	0.458
216.22	0.476
216.44	0.461
216.65	0.457
216.87	0.461
217.08	0.463
217.29	0.491
217.51	0.488
217.72	0.490
217.94	0.508
218.15	0.514
218.37	0.504
218.58	0.485
218.80	0.495
219.01	0.490
219.22	0.480
219.44	0.491
219.65	0.478
219.87	0.475
220.08	0.459
220.30	0.431
220.51	0.439
220.72	0.454
220.94	0.460
221.15	0.456
221.37	0.462
221.58	0.476
221.79	0.479
222.01	0.491
222.22	0.472
222.44	0.490
222.65	0.504
222.87	0.502
223.08	0.497
223.29	0.502
223.51	0.505
223.72	0.514
223.94	0.512
224.15	0.506
224.36	0.498
224.58	0.506
224.79	0.508
225.01	0.502
225.22	0.504
225.44	0.503
225.65	0.509
225.86	0.505
226.08	0.503
226.29	0.495
226.51	0.495
226.72	0.502
226.93	0.520
227.15	0.530
227.36	0.541
227.58	0.546
227.79	0.556
228.00	0.560
228.22	0.558
228.43	0.570
228.65	0.590
228.86	0.598
229.07	0.606
229.29	0.597
229.50	0.583
229.72	0.600
229.93	0.600
230.14	0.599
230.36	0.601
230.57	0.610
230.78	0.609
231.00	0.606
231.21	0.611
231.43	0.611
231.64	0.630
231.85	0.650
232.07	0.637
232.28	0.651
232.50	0.656
232.71	0.666
232.92	0.681
233.14	0.690
233.35	0.697
233.56	0.710
233.78	0.716
233.99	0.715
234.21	0.725
234.42	0.739
234.63	0.743
234.85	0.750
235.06	0.750
235.27	0.761
235.49	0.767
235.70	0.779
235.91	0.778
236.13	0.790
236.34	0.797
236.56	0.799
236.77	0.811
236.98	0.814
237.20	0.825
237.41	0.831
237.62	0.831
237.84	0.841
238.05	0.843
238.26	0.849
238.48	0.855
238.69	0.857
238.91	0.862
239.12	0.870
239.33	0.875
239.55	0.881
239.76	0.888
239.97	0.893
240.19	0.892
240.40	0.897
240.61	0.901
240.83	0.899
241.04	0.903
241.25	0.902
241.47	0.906
241.68	0.913
241.89	0.919
242.11	0.919
242.32	0.920
242.53	0.926
242.75	0.923
242.96	0.930
243.17	0.934
243.39	0.939
243.60	0.943
243.81	0.941
244.03	0.940
244.24	0.939
244.45	0.941
244.67	0.941
244.88	0.941
245.09	0.944
245.31	0.943
245.52	0.945
245.73	0.944
245.95	0.946
246.16	0.945
246.37	0.949
246.59	0.947
246.80	0.949
247.01	0.948
247.23	0.950
247.44	0.951
247.65	0.949
247.87	0.948
248.08	0.949
248.29	0.948
248.51	0.950
248.72	0.949
248.93	0.949
249.15	0.947
249.36	0.950
249.57	0.947
249.78	0.946
250.00	0.948
250.21	0.949
250.42	0.949
250.64	0.948
250.85	0.948
251.06	0.948
251.28	0.948
251.49	0.949
251.70	0.946
251.92	0.948
252.13	0.949
252.34	0.948
252.55	0.947
252.77	0.948
252.98	0.947
253.19	0.945
253.41	0.946
253.62	0.947
253.83	0.946
254.05	0.947
254.26	0.947
254.47	0.949
254.68	0.951
254.90	0.951
255.11	0.952
255.32	0.953
255.54	0.954
255.75	0.954
255.96	0.953
256.17	0.953
256.39	0.955
256.60	0.955
256.81	0.952
257.03	0.950
257.24	0.950
257.45	0.949
257.66	0.949
257.88	0.948
258.09	0.946
258.30	0.947
258.51	0.947
258.73	0.946
258.94	0.947
259.15	0.947
259.37	0.948
259.58	0.948
259.79	0.947
260.00	0.947
260.22	0.948
260.43	0.947
260.64	0.946
260.85	0.945
261.07	0.944
261.28	0.944
261.49	0.944
261.71	0.941
261.92	0.940
262.13	0.940
262.34	0.938
262.56	0.939
262.77	0.939
262.98	0.939
263.19	0.938
263.41	0.937
263.62	0.936
263.83	0.935
264.04	0.935
264.26	0.935
264.47	0.934
264.68	0.934
264.89	0.934
265.11	0.933
265.32	0.931
265.53	0.932
265.74	0.932
265.96	0.933
266.17	0.934
266.38	0.934
266.59	0.935
266.81	0.935
267.02	0.935
267.23	0.933
267.44	0.933
267.65	0.934
267.87	0.934
268.08	0.933
268.29	0.932
268.50	0.930
268.72	0.929
268.93	0.928
269.14	0.928
269.35	0.926
269.57	0.926
269.78	0.925
269.99	0.924
270.20	0.924
270.41	0.923
270.63	0.922
270.84	0.921
271.05	0.920
271.26	0.921
271.48	0.921
271.69	0.920
271.90	0.919
272.11	0.917
272.32	0.916
272.54	0.916
272.75	0.917
272.96	0.916
273.17	0.916
273.39	0.915
273.60	0.912
273.81	0.912
274.02	0.911
274.23	0.911
274.45	0.911
274.66	0.912
274.87	0.910
275.08	0.909
275.29	0.909
275.51	0.909
275.72	0.909
275.93	0.909
276.14	0.909
276.35	0.909
276.57	0.908
276.78	0.908
276.99	0.906
277.20	0.907
277.41	0.907
277.63	0.906
277.84	0.906
278.05	0.906
278.26	0.907
278.47	0.906
278.69	0.907
278.90	0.908
279.11	0.907
279.32	0.908
279.53	0.907
279.74	0.907
279.96	0.906
280.17	0.906
280.38	0.906
280.59	0.906
280.80	0.906
281.02	0.905
281.23	0.905
281.44	0.905
281.65	0.905
281.86	0.904
282.07	0.904
282.29	0.904
282.50	0.904
282.71	0.904
282.92	0.903
283.13	0.902
283.35	0.902
283.56	0.902
283.77	0.902
283.98	0.901
284.19	0.901
284.40	0.901
284.62	0.900
284.83	0.900
285.04	0.899
285.25	0.899
285.46	0.899
285.67	0.899
285.88	0.898
286.10	0.899
286.31	0.899
286.52	0.899
286.73	0.899
286.94	0.900
287.15	0.900
287.37	0.901
287.58	0.902
287.79	0.901
288.00	0.902
288.21	0.903
288.42	0.902
288.63	0.902
288.85	0.903
289.06	0.903
289.27	0.904
289.48	0.904
289.69	0.903
289.90	0.903
290.11	0.903
290.33	0.903
290.54	0.903
290.75	0.903
290.96	0.903
291.17	0.902
291.38	0.902
291.59	0.901
291.81	0.901
292.02	0.902
292.23	0.901
292.44	0.901
292.65	0.901
292.86	0.901
293.07	0.902
293.28	0.902
293.50	0.902
293.71	0.901
293.92	0.901
294.13	0.901
294.34	0.901
294.55	0.901
294.76	0.901
294.97	0.900
295.19	0.900
295.40	0.899
295.61	0.899
295.82	0.898
296.03	0.898
296.24	0.898
296.45	0.898
296.66	0.897
296.87	0.896
297.09	0.896
297.30	0.897
297.51	0.896
297.72	0.896
297.93	0.895
298.14	0.895
298.35	0.895
298.56	0.894
298.77	0.895
298.99	0.895
299.20	0.895
299.41	0.894
299.62	0.894
299.83	0.894
300.04	0.894
300.25	0.894
300.46	0.893
300.67	0.893
300.88	0.893
301.10	0.893
301.31	0.892
301.52	0.892
301.73	0.892
301.94	0.891
302.15	0.891
302.36	0.890
302.57	0.890
302.78	0.890
302.99	0.890
303.20	0.890
303.41	0.889
303.63	0.889
303.84	0.889
304.05	0.889
304.26	0.889
304.47	0.888
304.68	0.889
304.89	0.888
305.10	0.888
305.31	0.888
305.52	0.888
305.73	0.888
305.94	0.888
306.15	0.887
306.37	0.887
306.58	0.887
306.79	0.887
307.00	0.886
307.21	0.886
307.42	0.886
307.63	0.885
307.84	0.885
308.05	0.884
308.26	0.884
308.47	0.884
308.68	0.884
308.89	0.883
309.10	0.883
309.31	0.883
309.52	0.883
309.73	0.883
309.95	0.883
310.16	0.882
310.37	0.882
310.58	0.882
310.79	0.881
311.00	0.881
311.21	0.881
311.42	0.881
311.63	0.881
311.84	0.881
312.05	0.881
312.26	0.880
312.47	0.881
312.68	0.881
312.89	0.881
313.10	0.881
313.31	0.881
313.52	0.881
313.73	0.881
313.94	0.881
314.15	0.880
314.36	0.880
314.57	0.880
314.78	0.879
314.99	0.879
315.21	0.879
315.42	0.878
315.63	0.879
315.84	0.878
316.05	0.878
316.26	0.877
316.47	0.877
316.68	0.877
316.89	0.877
317.10	0.877
317.31	0.877
317.52	0.877
317.73	0.878
317.94	0.878
318.15	0.878
318.36	0.878
318.57	0.878
318.78	0.878
318.99	0.877
319.20	0.877
319.41	0.876
319.62	0.875
319.83	0.874
320.04	0.874
320.25	0.873
320.46	0.872
320.67	0.872
320.88	0.871
321.09	0.871
321.30	0.871
321.51	0.871
321.72	0.872
321.93	0.872
322.14	0.872
322.35	0.873
322.56	0.873
322.77	0.873
322.98	0.873
323.19	0.873
323.40	0.874
323.61	0.874
323.82	0.874
324.03	0.874
324.24	0.874
324.45	0.873
324.66	0.873
324.87	0.872
325.08	0.872
325.29	0.871
325.50	0.871
325.71	0.871
325.92	0.871
326.13	0.871
326.34	0.870
326.55	0.870
326.76	0.870
326.97	0.870
327.18	0.870
327.39	0.870
327.60	0.870
327.80	0.870
328.01	0.870
328.22	0.870
328.43	0.870
328.64	0.870
328.85	0.870
329.06	0.870
329.27	0.870
329.48	0.870
329.69	0.870
329.90	0.870
330.11	0.870
330.32	0.870
330.53	0.869
330.74	0.869
330.95	0.869
331.16	0.869
331.37	0.869
331.58	0.869
331.79	0.869
332.00	0.869
332.21	0.869
332.42	0.869
332.63	0.869
332.83	0.869
333.04	0.869
333.25	0.869
333.46	0.869
333.67	0.869
333.88	0.869
334.09	0.869
334.30	0.869
334.51	0.868
334.72	0.868
334.93	0.868
335.14	0.868
335.35	0.868
335.56	0.868
335.77	0.868
335.98	0.868
336.18	0.868
336.39	0.867
336.60	0.867
336.81	0.867
337.02	0.867
337.23	0.867
337.44	0.867
337.65	0.867
337.86	0.868
338.07	0.868
338.28	0.868
338.49	0.867
338.70	0.867
338.91	0.867
339.11	0.867
339.32	0.867
339.53	0.867
339.74	0.867
339.95	0.866
340.16	0.866
340.37	0.866
340.58	0.866
340.79	0.866
341.00	0.866
341.21	0.866
341.41	0.866
341.62	0.866
341.83	0.866
342.04	0.866
342.25	0.866
342.46	0.866
342.67	0.866
342.88	0.866
343.09	0.866
343.30	0.866
343.50	0.866
343.71	0.866
343.92	0.866
344.13	0.866
344.34	0.866
344.55	0.866
344.76	0.866
344.97	0.866
345.18	0.866
345.38	0.866
345.59	0.866
345.80	0.866
346.01	0.866
346.22	0.866
346.43	0.866
346.64	0.866
346.85	0.866
347.06	0.866
347.26	0.866
347.47	0.866
347.68	0.866
347.89	0.866
348.10	0.866
348.31	0.866
348.52	0.866
348.73	0.866
348.93	0.865
349.14	0.865
349.35	0.865
349.56	0.865
349.77	0.865
349.98	0.865
350.19	0.865
350.39	0.866
350.60	0.866
350.81	0.865
351.02	0.865
351.23	0.866
351.44	0.865
351.65	0.865
351.86	0.865
352.06	0.865
352.27	0.865
352.48	0.865
352.69	0.865
352.90	0.865
353.11	0.865
353.31	0.865
353.52	0.865
353.73	0.865
353.94	0.865
354.15	0.865
354.36	0.865
354.57	0.866
354.77	0.865
354.98	0.865
355.19	0.865
355.40	0.865
355.61	0.865
355.82	0.865
356.02	0.865
356.23	0.865
356.44	0.865
356.65	0.865
356.86	0.865
357.07	0.865
357.27	0.865
357.48	0.865
357.69	0.865
357.90	0.865
358.11	0.865
358.32	0.865
358.52	0.865
358.73	0.865
358.94	0.865
359.15	0.864
359.36	0.864
359.56	0.864
359.77	0.864
359.98	0.864
360.19	0.864
360.40	0.864
360.61	0.864
360.81	0.864
361.02	0.864
361.23	0.864
361.44	0.864
361.65	0.864
361.85	0.864
362.06	0.864
362.27	0.865
362.48	0.865
362.69	0.865
362.89	0.864
363.10	0.864
363.31	0.864
363.52	0.864
363.73	0.864
363.93	0.864
364.14	0.864
364.35	0.864
364.56	0.864
364.77	0.864
364.97	0.864
365.18	0.864
365.39	0.864
365.60	0.864
365.81	0.864
366.01	0.864
366.22	0.864
366.43	0.864
366.64	0.863
366.84	0.863
367.05	0.863
367.26	0.863
367.47	0.863
367.68	0.863
367.88	0.863
368.09	0.863
368.30	0.863
368.51	0.863
368.71	0.864
368.92	0.864
369.13	0.864
369.34	0.864
369.55	0.864
369.75	0.864
369.96	0.864
370.17	0.864
370.38	0.864
370.58	0.864
370.79	0.864
371.00	0.864
371.21	0.864
371.41	0.864
371.62	0.864
371.83	0.864
372.04	0.864
372.24	0.864
372.45	0.863
372.66	0.864
372.87	0.864
373.07	0.864
373.28	0.864
373.49	0.864
373.70	0.864
373.90	0.864
374.11	0.863
374.32	0.863
374.53	0.863
374.73	0.863
374.94	0.863
375.15	0.863
375.36	0.863
375.56	0.862
375.77	0.862
375.98	0.862
376.19	0.862
376.39	0.862
376.60	0.862
376.81	0.862
377.02	0.862
377.22	0.862
377.43	0.862
377.64	0.862
377.84	0.862
378.05	0.862
378.26	0.862
378.47	0.862
378.67	0.862
378.88	0.862
379.09	0.862
379.30	0.862
379.50	0.862
379.71	0.862
379.92	0.862
380.12	0.862
380.33	0.862
380.54	0.862
380.75	0.861
380.95	0.861
381.16	0.861
381.37	0.861
381.57	0.861
381.78	0.861
381.99	0.861
382.20	0.860
382.40	0.860
382.61	0.860
382.82	0.860
383.02	0.861
383.23	0.861
383.44	0.861
383.64	0.861
383.85	0.861
384.06	0.861
384.27	0.860
384.47	0.860
384.68	0.860
384.89	0.860
385.09	0.860
385.30	0.860
385.51	0.860
385.71	0.860
385.92	0.860
386.13	0.860
386.33	0.860
386.54	0.860
386.75	0.860
386.95	0.860
387.16	0.860
387.37	0.860
387.58	0.859
387.78	0.859
387.99	0.859
388.20	0.859
388.40	0.859
388.61	0.859
388.82	0.859
389.02	0.859
389.23	0.859
389.44	0.859
389.64	0.859
389.85	0.859
390.06	0.859
390.26	0.859
390.47	0.859
390.68	0.859
390.88	0.859
391.09	0.859
391.30	0.859
391.50	0.860
391.71	0.860
391.92	0.860
392.12	0.860
392.33	0.860
392.53	0.860
392.74	0.860
392.95	0.860
393.15	0.860
393.36	0.860
393.57	0.860
393.77	0.860
393.98	0.860
394.19	0.860
394.39	0.860
394.60	0.860
394.81	0.860
395.01	0.860
395.22	0.860
395.43	0.860
395.63	0.860
395.84	0.859
396.04	0.859
396.25	0.859
396.46	0.859
396.66	0.859
396.87	0.859
397.08	0.859
397.28	0.859
397.49	0.859
397.69	0.858
397.90	0.858
398.11	0.859
398.31	0.859
398.52	0.859
398.73	0.859
398.93	0.859
399.14	0.859
399.34	0.859
399.55	0.859
399.76	0.859
399.96	0.859
400.17	0.859
400.37	0.859
400.58	0.859
400.79	0.859
400.99	0.858
401.20	0.858
401.41	0.859
401.61	0.859
401.82	0.859
402.02	0.859
402.23	0.859
402.44	0.859
402.64	0.859
402.85	0.859
403.05	0.858
403.26	0.859
403.47	0.858
403.67	0.858
403.88	0.858
404.08	0.858
404.29	0.858
404.50	0.858
404.70	0.859
404.91	0.859
405.11	0.859
405.32	0.859
405.52	0.858
405.73	0.858
405.94	0.858
406.14	0.858
406.35	0.857
406.55	0.857
406.76	0.857
406.97	0.857
407.17	0.857
407.38	0.857
407.58	0.857
407.79	0.857
407.99	0.858
408.20	0.858
408.41	0.858
408.61	0.858
408.82	0.858
409.02	0.858
409.23	0.858
409.43	0.858
409.64	0.858
409.84	0.858
410.05	0.858
410.26	0.858
410.46	0.858
410.67	0.858
410.87	0.858
411.08	0.858
411.28	0.859
411.49	0.859
411.69	0.859
411.90	0.858
412.11	0.858
412.31	0.858
412.52	0.858
412.72	0.858
412.93	0.858
413.13	0.858
413.34	0.858
413.54	0.858
413.75	0.858
413.95	0.858
414.16	0.857
414.37	0.857
414.57	0.858
414.78	0.858
414.98	0.857
415.19	0.857
415.39	0.857
415.60	0.857
415.80	0.857
416.01	0.857
416.21	0.857
416.42	0.857
416.62	0.857
416.83	0.857
417.03	0.857
417.24	0.857
417.44	0.857
417.65	0.857
417.86	0.857
418.06	0.857
418.27	0.856
418.47	0.856
418.68	0.856
418.88	0.856
419.09	0.856
419.29	0.856
419.50	0.856
419.70	0.856
419.91	0.857
420.11	0.857
420.32	0.857
420.52	0.857
420.73	0.857
420.93	0.857
421.14	0.857
421.34	0.857
421.55	0.857
421.75	0.857
421.96	0.857
422.16	0.856
422.37	0.856
422.57	0.856
422.78	0.856
422.98	0.856
423.19	0.856
423.39	0.856
423.60	0.856
423.80	0.856
424.01	0.856
424.21	0.856
424.42	0.857
424.62	0.857
424.83	0.857
425.03	0.857
425.23	0.857
425.44	0.857
425.64	0.857
425.85	0.857
426.05	0.857
426.26	0.857
426.46	0.857
426.67	0.857
426.87	0.857
427.08	0.857
427.28	0.857
427.49	0.857
427.69	0.856
427.90	0.856
428.10	0.856
428.31	0.856
428.51	0.856
428.71	0.855
428.92	0.856
429.12	0.856
429.33	0.856
429.53	0.856
429.74	0.856
429.94	0.856
430.15	0.856
430.35	0.856
430.56	0.856
430.76	0.856
430.96	0.857
431.17	0.857
431.37	0.857
431.58	0.857
431.78	0.856
431.99	0.857
432.19	0.857
432.40	0.857
432.60	0.857
432.80	0.857
433.01	0.857
433.21	0.857
433.42	0.856
433.62	0.856
433.83	0.856
434.03	0.856
434.23	0.856
434.44	0.856
434.64	0.856
434.85	0.856
435.05	0.856
435.26	0.856
435.46	0.856
435.66	0.856
435.87	0.856
436.07	0.856
436.28	0.856
436.48	0.856
436.69	0.856
436.89	0.855
437.09	0.856
437.30	0.856
437.50	0.855
437.71	0.856
437.91	0.855
438.11	0.856
438.32	0.855
438.52	0.856
438.73	0.855
438.93	0.855
439.13	0.855
439.34	0.856
439.54	0.856
439.75	0.856
439.95	0.856
440.15	0.856
440.36	0.856
440.56	0.856
440.77	0.856
440.97	0.856
441.17	0.857
441.38	0.857
441.58	0.856
441.79	0.856
441.99	0.856
442.19	0.856
442.40	0.856
442.60	0.856
442.81	0.855
443.01	0.855
443.21	0.856
443.42	0.856
443.62	0.855
443.82	0.855
444.03	0.855
444.23	0.855
444.44	0.855
444.64	0.855
444.84	0.855
445.05	0.855
445.25	0.855
445.45	0.855
445.66	0.855
445.86	0.855
446.06	0.855
446.27	0.855
446.47	0.855
446.68	0.856
446.88	0.856
447.08	0.856
447.29	0.856
447.49	0.856
447.69	0.855
447.90	0.855
448.10	0.855
448.30	0.855
448.51	0.855
448.71	0.855
448.91	0.855
449.12	0.855
449.32	0.855
449.52	0.855
449.73	0.855
449.93	0.855
450.14	0.855
450.34	0.855
450.54	0.855
450.75	0.855
450.95	0.856
451.15	0.855
451.36	0.855
451.56	0.855
451.76	0.855
451.97	0.855
452.17	0.855
452.37	0.855
452.58	0.856
452.78	0.855
452.98	0.855
453.19	0.855
453.39	0.855
453.59	0.855
453.79	0.855
454.00	0.855
454.20	0.856
454.40	0.855
454.61	0.855
454.81	0.855
455.01	0.855
455.22	0.855
455.42	0.855
455.62	0.855
455.83	0.856
456.03	0.856
456.23	0.855
456.44	0.855
456.64	0.855
456.84	0.856
457.04	0.855
457.25	0.855
457.45	0.855
457.65	0.856
457.86	0.855
458.06	0.855
458.26	0.855
458.47	0.855
458.67	0.855
458.87	0.855
459.07	0.855
459.28	0.855
459.48	0.855
459.68	0.855
459.89	0.854
460.09	0.854
460.29	0.854
460.49	0.854
460.70	0.854
460.90	0.854
461.10	0.854
461.31	0.854
461.51	0.854
461.71	0.855
461.91	0.855
462.12	0.855
462.32	0.855
462.52	0.855
462.72	0.855
462.93	0.855
463.13	0.855
463.33	0.855
463.53	0.854
463.74	0.854
463.94	0.854
464.14	0.854
464.35	0.854
464.55	0.854
464.75	0.854
464.95	0.853
465.16	0.853
465.36	0.853
465.56	0.854
465.76	0.854
465.97	0.854
466.17	0.854
466.37	0.854
466.57	0.854
466.78	0.854
466.98	0.854
467.18	0.855
467.38	0.854
467.59	0.854
467.79	0.854
467.99	0.854
468.19	0.854
468.39	0.854
468.60	0.854
468.80	0.854
469.00	0.854
469.20	0.854
469.41	0.854
469.61	0.854
469.81	0.854
470.01	0.854
470.22	0.854
470.42	0.854
470.62	0.854
470.82	0.854
471.02	0.854
471.23	0.854
471.43	0.854
471.63	0.854
471.83	0.854
472.04	0.854
472.24	0.854
472.44	0.854
472.64	0.854
472.84	0.854
473.05	0.854
473.25	0.854
473.45	0.854
473.65	0.854
473.85	0.854
474.06	0.854
474.26	0.854
474.46	0.854
474.66	0.854
474.86	0.854
475.07	0.854
475.27	0.854
475.47	0.854
475.67	0.854
475.87	0.854
476.08	0.854
476.28	0.854
476.48	0.855
476.68	0.854
476.88	0.855
477.09	0.855
477.29	0.854
477.49	0.854
477.69	0.854
477.89	0.854
478.09	0.854
478.30	0.854
478.50	0.854
478.70	0.854
478.90	0.853
479.10	0.853
479.31	0.853
479.51	0.853
479.71	0.853
479.91	0.853
480.11	0.853
480.31	0.853
480.52	0.853
480.72	0.853
480.92	0.853
481.12	0.853
481.32	0.853
481.52	0.853
481.72	0.853
481.93	0.854
482.13	0.853
482.33	0.853
482.53	0.853
482.73	0.853
482.93	0.853
483.14	0.853
483.34	0.853
483.54	0.853
483.74	0.853
483.94	0.853
484.14	0.852
484.34	0.853
484.55	0.852
484.75	0.853
484.95	0.853
485.15	0.853
485.35	0.853
485.55	0.854
485.75	0.854
485.96	0.854
486.16	0.854
486.36	0.854
486.56	0.854
486.76	0.854
486.96	0.854
487.16	0.854
487.36	0.853
487.57	0.853
487.77	0.853
487.97	0.853
488.17	0.853
488.37	0.853
488.57	0.853
488.77	0.853
488.97	0.853
489.18	0.853
489.38	0.853
489.58	0.853
489.78	0.853
489.98	0.854
490.18	0.854
490.38	0.854
490.58	0.854
490.78	0.853
490.98	0.854
491.19	0.854
491.39	0.854
491.59	0.854
491.79	0.854
491.99	0.854
492.19	0.854
492.39	0.854
492.59	0.854
492.79	0.854
492.99	0.853
493.20	0.854
493.40	0.853
493.60	0.853
493.80	0.853
494.00	0.853
494.20	0.853
494.40	0.853
494.60	0.852
494.80	0.852
495.00	0.852
495.20	0.852
495.40	0.852
495.61	0.852
495.81	0.852
496.01	0.852
496.21	0.852
496.41	0.852
496.61	0.852
496.81	0.853
497.01	0.853
497.21	0.853
497.41	0.853
497.61	0.854
497.81	0.854
498.01	0.854
498.21	0.854
498.41	0.854
498.61	0.854
498.82	0.854
499.02	0.854
499.22	0.854
499.42	0.854
499.62	0.854
499.82	0.854
500.02	0.854
500.22	0.854
500.42	0.854
500.62	0.854
500.82	0.853
501.02	0.853
501.22	0.853
501.42	0.853
501.62	0.853
501.82	0.853
502.02	0.852
502.22	0.852
502.42	0.852
502.62	0.852
502.82	0.853
503.02	0.853
503.22	0.853
503.42	0.853
503.63	0.853
503.83	0.853
504.03	0.853
504.23	0.853
504.43	0.853
504.63	0.853
504.83	0.853
505.03	0.853
505.23	0.853
505.43	0.853
505.63	0.853
505.83	0.853
506.03	0.853
506.23	0.853
506.43	0.853
506.63	0.853
506.83	0.853
507.03	0.852
507.23	0.852
507.43	0.852
507.63	0.852
507.83	0.852
508.03	0.852
508.23	0.852
508.43	0.853
508.63	0.853
508.83	0.853
509.03	0.853
509.23	0.853
509.43	0.853
509.63	0.853
509.83	0.853
510.03	0.853
510.23	0.853
510.43	0.853
510.63	0.852
510.83	0.852
511.03	0.852
511.23	0.852
511.43	0.852
511.63	0.852
511.83	0.852
512.03	0.852
512.22	0.852
512.42	0.853
512.62	0.853
512.82	0.853
513.02	0.853
513.22	0.853
513.42	0.853
513.62	0.853
513.82	0.854
514.02	0.853
514.22	0.853
514.42	0.853
514.62	0.853
514.82	0.853
515.02	0.853
515.22	0.853
515.42	0.853
515.62	0.853
515.82	0.853
516.02	0.852
516.22	0.852
516.42	0.852
516.62	0.852
516.82	0.852
517.01	0.852
517.21	0.852
517.41	0.852
517.61	0.852
517.81	0.852
518.01	0.852
518.21	0.852
518.41	0.853
518.61	0.853
518.81	0.853
519.01	0.853
519.21	0.853
519.41	0.853
519.61	0.853
519.81	0.852
520.00	0.852
520.20	0.853
520.40	0.853
520.60	0.853
520.80	0.852
521.00	0.852
521.20	0.852
521.40	0.853
521.60	0.852
521.80	0.853
522.00	0.853
522.20	0.853
522.39	0.852
522.59	0.852
522.79	0.852
522.99	0.852
523.19	0.852
523.39	0.852
523.59	0.852
523.79	0.852
523.99	0.852
524.19	0.852
524.38	0.852
524.58	0.852
524.78	0.852
524.98	0.852
525.18	0.852
525.38	0.852
525.58	0.852
525.78	0.852
525.98	0.852
526.18	0.852
526.37	0.852
526.57	0.852
526.77	0.852
526.97	0.851
527.17	0.851
527.37	0.851
527.57	0.851
527.77	0.851
527.96	0.852
528.16	0.852
528.36	0.852
528.56	0.852
528.76	0.852
528.96	0.852
529.16	0.852
529.36	0.852
529.55	0.852
529.75	0.852
529.95	0.852
530.15	0.852
530.35	0.852
530.55	0.852
530.75	0.852
530.94	0.852
531.14	0.851
531.34	0.851
531.54	0.851
531.74	0.851
531.94	0.852
532.13	0.851
532.33	0.851
532.53	0.851
532.73	0.851
532.93	0.851
533.13	0.851
533.33	0.851
533.52	0.851
533.72	0.851
533.92	0.851
534.12	0.851
534.32	0.851
534.52	0.851
534.71	0.851
534.91	0.852
535.11	0.852
535.31	0.851
535.51	0.851
535.71	0.851
535.90	0.851
536.10	0.851
536.30	0.851
536.50	0.851
536.70	0.851
536.89	0.851
537.09	0.851
537.29	0.851
537.49	0.851
537.69	0.851
537.89	0.851
538.08	0.851
538.28	0.851
538.48	0.851
538.68	0.851
538.88	0.851
539.07	0.851
539.27	0.851
539.47	0.850
539.67	0.851
539.87	0.851
540.06	0.851
540.26	0.851
540.46	0.851
540.66	0.851
540.86	0.851
541.05	0.851
541.25	0.851
541.45	0.850
541.65	0.850
541.84	0.850
542.04	0.850
542.24	0.850
542.44	0.850
542.64	0.850
542.83	0.850
543.03	0.850
543.23	0.850
543.43	0.850
543.62	0.850
543.82	0.850
544.02	0.850
544.22	0.850
544.42	0.850
544.61	0.850
544.81	0.850
545.01	0.850
545.21	0.850
545.40	0.850
545.60	0.850
545.80	0.850
546.00	0.850
546.19	0.850
546.39	0.850
546.59	0.850
546.79	0.850
546.98	0.850
547.18	0.850
547.38	0.850
547.58	0.850
547.77	0.850
547.97	0.850
548.17	0.850
548.37	0.850
548.56	0.850
548.76	0.849
548.96	0.850
549.16	0.850
549.35	0.850
549.55	0.850
549.75	0.850
549.95	0.850
550.14	0.850
550.34	0.850
550.54	0.850
550.73	0.850
550.93	0.850
551.13	0.850
551.33	0.850
551.52	0.850
551.72	0.850
551.92	0.850
552.12	0.850
552.31	0.850
552.51	0.850
552.71	0.850
552.90	0.850
553.10	0.850
553.30	0.850
553.50	0.850
553.69	0.850
553.89	0.849
554.09	0.849
554.28	0.849
554.48	0.850
554.68	0.849
554.87	0.849
555.07	0.850
555.27	0.850
555.47	0.849
555.66	0.849
555.86	0.849
556.06	0.849
556.25	0.849
556.45	0.850
556.65	0.849
556.84	0.849
557.04	0.849
557.24	0.849
557.43	0.849
557.63	0.849
557.83	0.849
558.02	0.849
558.22	0.848
558.42	0.848
558.61	0.848
558.81	0.847
559.01	0.847
559.21	0.848
559.40	0.848
559.60	0.847
559.80	0.848
559.99	0.848
560.19	0.848
560.39	0.848
560.58	0.848
560.78	0.849
560.97	0.849
561.17	0.849
561.37	0.849
561.56	0.849
561.76	0.849
561.96	0.849
562.15	0.850
562.35	0.850
562.55	0.849
562.74	0.849
562.94	0.849
563.14	0.850
563.33	0.849
563.53	0.849
563.73	0.849
563.92	0.849
564.12	0.849
564.31	0.849
564.51	0.848
564.71	0.849
564.90	0.849
565.10	0.848
565.30	0.848
565.49	0.848
565.69	0.848
565.89	0.848
566.08	0.848
566.28	0.848
566.47	0.848
566.67	0.848
566.87	0.848
567.06	0.848
567.26	0.848
567.46	0.848
567.65	0.848
567.85	0.848
568.04	0.848
568.24	0.848
568.44	0.848
568.63	0.848
568.83	0.848
569.02	0.848
569.22	0.848
569.42	0.849
569.61	0.848
569.81	0.848
570.00	0.848
570.20	0.849
570.40	0.849
570.59	0.849
570.79	0.849
570.98	0.849
571.18	0.849
571.38	0.848
571.57	0.848
571.77	0.848
571.96	0.848
572.16	0.849
572.35	0.849
572.55	0.849
572.75	0.849
572.94	0.849
573.14	0.850
573.33	0.850
573.53	0.850
573.73	0.850
573.92	0.850
574.12	0.850
574.31	0.850
574.51	0.850
574.70	0.849
574.90	0.847
575.09	0.845
575.29	0.843
575.49	0.841
575.68	0.839
575.88	0.836
576.07	0.834
576.27	0.832
576.46	0.830
576.66	0.827
576.86	0.825
577.05	0.824
577.25	0.823
577.44	0.822
577.64	0.822
577.83	0.821
578.03	0.820
578.22	0.818
578.42	0.816
578.61	0.812
578.81	0.809
579.00	0.807
579.20	0.804
579.40	0.802
579.59	0.800
579.79	0.797
579.98	0.795
580.18	0.794
580.37	0.793
580.57	0.794
580.76	0.795
580.96	0.797
581.15	0.798
581.35	0.800
581.54	0.801
581.74	0.801
581.93	0.802
582.13	0.802
582.32	0.802
582.52	0.803
582.71	0.804
582.91	0.805
583.10	0.807
583.30	0.809
583.49	0.811
583.69	0.814
583.88	0.817
584.08	0.821
584.27	0.824
584.47	0.827
584.66	0.830
584.86	0.832
585.05	0.834
585.25	0.835
585.44	0.835
585.64	0.834
585.83	0.834
586.03	0.834
586.22	0.835
586.42	0.836
586.61	0.837
586.81	0.839
587.00	0.840
587.20	0.841
587.39	0.843
587.59	0.845
587.78	0.846
587.98	0.848
588.17	0.849
588.37	0.849
588.56	0.849
588.76	0.848
588.95	0.848
589.15	0.848
589.34	0.848
589.54	0.847
589.73	0.847
589.92	0.847
590.12	0.847
590.31	0.847
590.51	0.847
590.70	0.847
590.90	0.847
591.09	0.847
591.29	0.846
591.48	0.847
591.68	0.847
591.87	0.847
592.06	0.847
592.26	0.847
592.45	0.847
592.65	0.847
592.84	0.848
593.04	0.848
593.23	0.848
593.43	0.848
593.62	0.848
593.81	0.848
594.01	0.848
594.20	0.848
594.40	0.848
594.59	0.848
594.79	0.848
594.98	0.848
595.17	0.848
595.37	0.848
595.56	0.848
595.76	0.847
595.95	0.847
596.14	0.847
596.34	0.847
596.53	0.846
596.73	0.846
596.92	0.846
597.12	0.846
597.31	0.846
597.50	0.846
597.70	0.846
597.89	0.846
598.09	0.847
598.28	0.847
598.47	0.847
598.67	0.847
598.86	0.847
599.06	0.848
599.25	0.848
599.44	0.848
599.64	0.848
599.83	0.848
600.03	0.849
600.22	0.848
600.41	0.848
600.61	0.848
600.80	0.848
601.00	0.848
601.19	0.848
601.38	0.848
601.58	0.847
601.77	0.847
601.96	0.847
602.16	0.847
602.35	0.847
602.55	0.846
602.74	0.846
602.93	0.846
603.13	0.846
603.32	0.846
603.51	0.846
603.71	0.846
603.90	0.846
604.09	0.846
604.29	0.846
604.48	0.846
604.68	0.847
604.87	0.846
605.06	0.847
605.26	0.847
605.45	0.847
605.64	0.847
605.84	0.847
606.03	0.847
606.22	0.848
606.42	0.848
606.61	0.847
606.80	0.847
607.00	0.847
607.19	0.847
607.38	0.847
607.58	0.847
607.77	0.847
607.96	0.847
608.16	0.848
608.35	0.847
608.54	0.848
608.74	0.848
608.93	0.847
609.12	0.847
609.32	0.847
609.51	0.847
609.70	0.846
609.90	0.846
610.09	0.846
610.28	0.846
610.48	0.845
610.67	0.845
610.86	0.845
611.06	0.845
611.25	0.845
611.44	0.845
611.64	0.845
611.83	0.845
612.02	0.845
612.21	0.845
612.41	0.846
612.60	0.846
612.79	0.846
612.99	0.846
613.18	0.846
613.37	0.846
613.57	0.846
613.76	0.846
613.95	0.846
614.14	0.847
614.34	0.847
614.53	0.847
614.72	0.847
614.92	0.846
615.11	0.846
615.30	0.846
615.49	0.846
615.69	0.846
615.88	0.846
616.07	0.846
616.26	0.846
616.46	0.846
616.65	0.846
616.84	0.846
617.04	0.846
617.23	0.846
617.42	0.846
617.61	0.846
617.81	0.846
618.00	0.846
618.19	0.845
618.38	0.845
618.58	0.845
618.77	0.844
618.96	0.844
619.15	0.844
619.35	0.844
619.54	0.844
619.73	0.844
619.92	0.844
620.12	0.844
620.31	0.844
620.50	0.844
620.69	0.844
620.89	0.844
621.08	0.845
621.27	0.844
621.46	0.844
621.66	0.844
621.85	0.844
622.04	0.845
622.23	0.844
622.43	0.844
622.62	0.844
622.81	0.845
623.00	0.845
623.19	0.845
623.39	0.845
623.58	0.845
623.77	0.845
623.96	0.844
624.16	0.844
624.35	0.844
624.54	0.844
624.73	0.844
624.92	0.843
625.12	0.844
625.31	0.843
625.50	0.844
625.69	0.844
625.88	0.844
626.08	0.844
626.27	0.845
626.46	0.845
626.65	0.845
626.84	0.845
627.04	0.845
627.23	0.845
627.42	0.845
627.61	0.845
627.80	0.845
628.00	0.845
628.19	0.845
628.38	0.845
628.57	0.845
628.76	0.845
628.96	0.845
629.15	0.844
629.34	0.844
629.53	0.844
629.72	0.844
629.91	0.844
630.11	0.843
630.30	0.843
630.49	0.843
630.68	0.843
630.87	0.843
631.06	0.843
631.26	0.843
631.45	0.843
631.64	0.844
631.83	0.844
632.02	0.843
632.21	0.843
632.41	0.843
632.60	0.844
632.79	0.844
632.98	0.843
633.17	0.843
633.36	0.843
633.55	0.843
633.75	0.843
633.94	0.843
634.13	0.843
634.32	0.843
634.51	0.843
634.70	0.842
634.89	0.842
635.09	0.842
635.28	0.843
635.47	0.843
635.66	0.842
635.85	0.842
636.04	0.842
636.23	0.842
636.43	0.842
636.62	0.843
636.81	0.843
637.00	0.843
637.19	0.843
637.38	0.843
637.57	0.843
637.76	0.843
637.95	0.844
638.15	0.844
638.34	0.844
638.53	0.844
638.72	0.843
638.91	0.843
639.10	0.843
639.29	0.843
639.48	0.843
639.67	0.843
639.87	0.843
640.06	0.843
640.25	0.843
640.44	0.842
640.63	0.842
640.82	0.843
641.01	0.843
641.20	0.843
641.39	0.843
641.58	0.843
641.78	0.843
641.97	0.843
642.16	0.843
642.35	0.843
642.54	0.843
642.73	0.843
642.92	0.843
643.11	0.843
643.30	0.843
643.49	0.842
643.68	0.843
643.87	0.842
644.06	0.843
644.25	0.842
644.45	0.842
644.64	0.842
644.83	0.842
645.02	0.842
645.21	0.841
645.40	0.841
645.59	0.841
645.78	0.841
645.97	0.841
646.16	0.840
646.35	0.841
646.54	0.841
646.73	0.841
646.92	0.841
647.11	0.841
647.30	0.841
647.49	0.842
647.68	0.842
647.88	0.842
648.07	0.842
648.26	0.843
648.45	0.843
648.64	0.843
648.83	0.843
649.02	0.843
649.21	0.843
649.40	0.843
649.59	0.844
649.78	0.844
649.97	0.844
650.16	0.844
650.35	0.844
650.54	0.844
650.73	0.844
650.92	0.844
651.11	0.843
651.30	0.843
651.49	0.843
651.68	0.843
651.87	0.843
652.06	0.843
652.25	0.843
652.44	0.842
652.63	0.841
652.82	0.840
653.01	0.839
653.20	0.839
653.39	0.839
653.58	0.840
653.77	0.840
653.96	0.840
654.15	0.840
654.34	0.841
654.53	0.841
654.72	0.842
654.91	0.843
655.10	0.843
655.29	0.843
655.48	0.844
655.67	0.844
655.86	0.844
656.05	0.844
656.24	0.844
656.43	0.844
656.62	0.844
656.81	0.844
657.00	0.845
657.19	0.846
657.38	0.846
657.57	0.846
657.76	0.846
657.95	0.846
658.14	0.846
658.33	0.846
658.51	0.846
658.70	0.845
658.89	0.844
659.08	0.842
659.27	0.841
659.46	0.840
659.65	0.840
659.84	0.840
660.03	0.840
660.22	0.840
660.41	0.840
660.60	0.840
660.79	0.840
660.98	0.840
661.17	0.840
661.36	0.840
661.55	0.841
661.74	0.841
661.92	0.840
662.11	0.840
662.30	0.840
662.49	0.840
662.68	0.840
662.87	0.840
663.06	0.840
663.25	0.840
663.44	0.840
663.63	0.840
663.82	0.840
664.01	0.841
664.20	0.841
664.38	0.841
664.57	0.842
664.76	0.842
664.95	0.842
665.14	0.842
665.33	0.842
665.52	0.843
665.71	0.843
665.90	0.843
666.09	0.843
666.28	0.843
666.46	0.843
666.65	0.843
666.84	0.843
667.03	0.844
667.22	0.844
667.41	0.843
667.60	0.843
667.79	0.843
667.98	0.843
668.16	0.843
668.35	0.843
668.54	0.842
668.73	0.842
668.92	0.842
669.11	0.842
669.30	0.841
669.49	0.842
669.67	0.841
669.86	0.841
670.05	0.841
670.24	0.841
670.43	0.841
670.62	0.841
670.81	0.841
671.00	0.841
671.18	0.841
671.37	0.841
671.56	0.841
671.75	0.842
671.94	0.842
672.13	0.842
672.32	0.841
672.50	0.842
672.69	0.842
672.88	0.841
673.07	0.841
673.26	0.841
673.45	0.842
673.63	0.842
673.82	0.842
674.01	0.842
674.20	0.842
674.39	0.843
674.58	0.842
674.76	0.842
674.95	0.842
675.14	0.842
675.33	0.842
675.52	0.842
675.71	0.841
675.89	0.841
676.08	0.842
676.27	0.842
676.46	0.841
676.65	0.842
676.84	0.842
677.02	0.843
677.21	0.843
677.40	0.843
677.59	0.844
677.78	0.843
677.96	0.843
678.15	0.843
678.34	0.843
678.53	0.843
678.72	0.843
678.90	0.842
679.09	0.842
679.28	0.842
679.47	0.842
679.66	0.841
679.84	0.842
680.03	0.841
680.22	0.841
680.41	0.841
680.60	0.841
680.78	0.841
680.97	0.842
681.16	0.842
681.35	0.842
681.53	0.842
681.72	0.841
681.91	0.841
682.10	0.842
682.29	0.842
682.47	0.842
682.66	0.842
682.85	0.842
683.04	0.842
683.22	0.842
683.41	0.842
683.60	0.842
683.79	0.842
683.97	0.842
684.16	0.842
684.35	0.842
684.54	0.842
684.72	0.842
684.91	0.841
685.10	0.841
685.29	0.841
685.47	0.841
685.66	0.841
685.85	0.841
686.04	0.841
686.22	0.841
686.41	0.841
686.60	0.841
686.79	0.841
686.97	0.841
687.16	0.842
687.35	0.842
687.54	0.842
687.72	0.842
687.91	0.842
688.10	0.842
688.29	0.842
688.47	0.842
688.66	0.842
688.85	0.842
689.03	0.842
689.22	0.842
689.41	0.842
689.60	0.842
689.78	0.842
689.97	0.842
690.16	0.842
690.34	0.842
690.53	0.843
690.72	0.843
690.91	0.843
691.09	0.843
691.28	0.843
691.47	0.843
691.65	0.843
691.84	0.842
692.03	0.842
692.21	0.842
692.40	0.842
692.59	0.842
692.77	0.842
692.96	0.842
693.15	0.842
693.34	0.842
693.52	0.841
693.71	0.841
693.90	0.841
694.08	0.841
694.27	0.841
694.46	0.841
694.64	0.841
694.83	0.840
695.02	0.841
695.20	0.840
695.39	0.840
695.58	0.840
695.76	0.840
695.95	0.841
696.14	0.840
696.32	0.841
696.51	0.840
696.70	0.841
696.88	0.841
697.07	0.841
697.26	0.841
697.44	0.842
697.63	0.842
697.81	0.842
698.00	0.842
698.19	0.842
698.37	0.842
698.56	0.842
698.75	0.842
698.93	0.842
699.12	0.842
699.31	0.842
699.49	0.842
699.68	0.842
699.87	0.842
700.05	0.841
700.24	0.842
700.42	0.841
700.61	0.841
700.80	0.841
700.98	0.841
701.17	0.842
701.36	0.841
701.54	0.841
701.73	0.841
701.91	0.841
702.10	0.841
702.29	0.841
702.47	0.841
702.66	0.841
702.84	0.841
703.03	0.841
703.22	0.841
703.40	0.842
703.59	0.842
703.77	0.841
703.96	0.841
704.15	0.841
704.33	0.841
704.52	0.841
704.70	0.841
704.89	0.841
705.08	0.840
705.26	0.840
705.45	0.840
705.63	0.840
705.82	0.840
706.00	0.840
706.19	0.840
706.38	0.840
706.56	0.840
706.75	0.840
706.93	0.840
707.12	0.839
707.30	0.839
707.49	0.840
707.68	0.840
707.86	0.840
708.05	0.840
708.23	0.841
708.42	0.841
708.60	0.841
708.79	0.841
708.98	0.841
709.16	0.841
709.35	0.842
709.53	0.841
709.72	0.841
709.90	0.841
710.09	0.841
710.27	0.841
710.46	0.841
710.64	0.841
710.83	0.841
711.02	0.841
711.20	0.841
711.39	0.841
711.57	0.841
711.76	0.841
711.94	0.841
712.13	0.841
712.31	0.841
712.50	0.841
712.68	0.841
712.87	0.841
713.05	0.840
713.24	0.841
713.42	0.840
713.61	0.840
713.79	0.840
713.98	0.841
714.16	0.840
714.35	0.840
714.54	0.840
714.72	0.839
714.91	0.839
715.09	0.839
715.28	0.839
715.46	0.839
715.65	0.839
715.83	0.839
716.02	0.838
716.20	0.838
716.39	0.838
716.57	0.838
716.76	0.839
716.94	0.839
717.12	0.839
717.31	0.839
717.49	0.839
717.68	0.840
717.86	0.840
718.05	0.839
718.23	0.839
718.42	0.839
718.60	0.839
718.79	0.839
718.97	0.840
719.16	0.840
719.34	0.840
719.53	0.840
719.71	0.839
719.90	0.839
720.08	0.839
720.27	0.840
720.45	0.839
720.63	0.840
720.82	0.840
721.00	0.839
721.19	0.840
721.37	0.839
721.56	0.839
721.74	0.839
721.93	0.839
722.11	0.840
722.30	0.840
722.48	0.840
722.66	0.839
722.85	0.839
723.03	0.838
723.22	0.838
723.40	0.839
723.59	0.839
723.77	0.839
723.95	0.840
724.14	0.839
724.32	0.840
724.51	0.840
724.69	0.840
724.88	0.840
725.06	0.840
725.24	0.841
725.43	0.840
725.61	0.839
725.80	0.838
725.98	0.838
726.16	0.838
726.35	0.838
726.53	0.837
726.72	0.837
726.90	0.837
727.09	0.837
727.27	0.837
727.45	0.837
727.64	0.838
727.82	0.837
728.01	0.838
728.19	0.837
728.37	0.837
728.56	0.837
728.74	0.837
728.92	0.837
729.11	0.837
729.29	0.837
729.48	0.837
729.66	0.837
729.84	0.837
730.03	0.836
730.21	0.835
730.40	0.837
730.58	0.836
730.76	0.837
730.95	0.838
731.13	0.837
731.31	0.839
731.50	0.838
731.68	0.839
731.86	0.838
732.05	0.839
732.23	0.840
732.42	0.838
732.60	0.838
732.78	0.837
732.97	0.835
733.15	0.834
733.33	0.833
733.52	0.834
733.70	0.834
733.88	0.833
734.07	0.832
734.25	0.832
734.43	0.832
734.62	0.832
734.80	0.832
734.98	0.832
735.17	0.832
735.35	0.832
735.53	0.831
735.72	0.832
735.90	0.833
736.08	0.834
736.27	0.835
736.45	0.836
736.63	0.836
736.82	0.835
737.00	0.836
737.18	0.835
737.37	0.835
737.55	0.835
737.73	0.833
737.92	0.833
738.10	0.832
738.28	0.831
738.46	0.831
738.65	0.830
738.83	0.832
739.01	0.832
739.20	0.832
739.38	0.832
739.56	0.832
739.75	0.832
739.93	0.831
740.11	0.830
740.29	0.830
740.48	0.830
740.66	0.831
740.84	0.828
741.03	0.829
741.21	0.828
741.39	0.828
741.57	0.829
741.76	0.827
741.94	0.826
742.12	0.827
742.31	0.827
742.49	0.827
742.67	0.828
742.85	0.829
743.04	0.828
743.22	0.829
743.40	0.829
743.58	0.829
743.77	0.831
743.95	0.833
744.13	0.833
744.31	0.833
744.50	0.832
744.68	0.831
744.86	0.833
745.04	0.833
745.23	0.833
745.41	0.834
745.59	0.834
745.77	0.832
745.96	0.833
746.14	0.832
746.32	0.832
746.50	0.833
746.69	0.833
746.87	0.831
747.05	0.832
747.23	0.831
747.42	0.830
747.60	0.827
747.78	0.829
747.96	0.828
748.14	0.831
748.33	0.832
748.51	0.831
748.69	0.830
748.87	0.832
749.06	0.831
749.24	0.831
749.42	0.834
749.60	0.835
749.78	0.835
749.97	0.836
750.15	0.834
750.33	0.833
750.51	0.835
750.69	0.835
750.88	0.835
751.06	0.835
751.24	0.835
751.42	0.833
751.60	0.833
751.79	0.835
751.97	0.835
752.15	0.833
752.33	0.832
752.51	0.831
752.69	0.833
752.88	0.834
753.06	0.836
753.24	0.838
753.42	0.836
753.60	0.838
753.78	0.832
753.97	0.830
754.15	0.830
754.33	0.831
754.51	0.830
754.69	0.830
754.87	0.829
755.06	0.825
755.24	0.821
755.42	0.823
755.60	0.821
755.78	0.826
755.96	0.830
756.15	0.831
756.33	0.831
756.51	0.833
756.69	0.832
756.87	0.833
757.05	0.834
757.23	0.834
757.42	0.834
757.60	0.834
757.78	0.831
757.96	0.829
758.14	0.830
758.32	0.832
758.50	0.832
758.69	0.833
758.87	0.833
759.05	0.835
759.23	0.839
759.41	0.839
759.59	0.842
759.77	0.843
759.95	0.842
760.13	0.843
760.32	0.843
760.50	0.841
760.68	0.841
760.86	0.841
761.04	0.840
761.22	0.840
761.40	0.840
761.58	0.837
761.76	0.837
761.95	0.839
762.13	0.839
762.31	0.839
762.49	0.840
762.67	0.837
762.85	0.838
763.03	0.837
763.21	0.836
763.39	0.834
763.57	0.837
763.75	0.838
763.94	0.837
764.12	0.837
764.30	0.837
764.48	0.837
764.66	0.837
764.84	0.836
765.02	0.837
765.20	0.835
765.38	0.836
765.56	0.836
765.74	0.836
765.92	0.836
766.10	0.835
766.28	0.837
766.46	0.837
766.65	0.840
766.83	0.840
767.01	0.839
767.19	0.842
767.37	0.844
767.55	0.841
767.73	0.841
767.91	0.841
768.09	0.840
768.27	0.838
768.45	0.838
768.63	0.836
768.81	0.836
768.99	0.838
769.17	0.837
769.35	0.836
769.53	0.838
769.71	0.839
769.89	0.838
770.07	0.840
770.25	0.843
770.43	0.843
770.61	0.843
770.79	0.845
770.97	0.845
771.15	0.847
771.33	0.847
771.51	0.848
771.69	0.848
771.87	0.848
772.05	0.848
772.24	0.848
772.42	0.848
772.60	0.847
772.78	0.844
772.96	0.845
773.14	0.845
773.32	0.846
773.49	0.846
773.67	0.846
773.85	0.845
774.03	0.844
774.21	0.841
774.39	0.838
774.57	0.841
774.75	0.842
774.93	0.842
775.11	0.840
775.29	0.839
775.47	0.840
775.65	0.839
775.83	0.838
776.01	0.839
776.19	0.839
776.37	0.841
776.55	0.840
776.73	0.840
776.91	0.840
777.09	0.842
777.27	0.843
777.45	0.843
777.63	0.844
777.81	0.845
777.99	0.845
778.17	0.848
778.35	0.849
778.53	0.850
778.71	0.852
778.89	0.853
779.07	0.851
779.24	0.851
779.42	0.849
779.60	0.850
779.78	0.849
779.96	0.850
780.14	0.848
780.32	0.847
780.50	0.847
780.68	0.845
780.86	0.845
781.04	0.847
781.22	0.844
781.40	0.845
781.58	0.844
781.75	0.846
781.93	0.846
782.11	0.845
782.29	0.845
782.47	0.844
782.65	0.845
782.83	0.845
783.01	0.844
783.19	0.846
783.37	0.846
783.55	0.846
783.72	0.844
783.90	0.845
784.08	0.847
784.26	0.848
784.44	0.849
784.62	0.847
784.80	0.848
784.98	0.849
785.16	0.848
785.33	0.849
785.51	0.850
785.69	0.851
785.87	0.849
786.05	0.849
786.23	0.849
786.41	0.849
786.59	0.849
786.77	0.850
786.94	0.851
787.12	0.850
787.30	0.848
787.48	0.849
787.66	0.847
787.84	0.849
788.02	0.851
788.19	0.850
788.37	0.850
788.55	0.850
788.73	0.850
788.91	0.849
789.09	0.849
789.27	0.849
789.44	0.849
789.62	0.851
789.80	0.850
789.98	0.848
790.16	0.849
790.34	0.851
790.51	0.851
790.69	0.850
790.87	0.850
791.05	0.850
791.23	0.851
791.41	0.852
791.58	0.852
791.76	0.853
791.94	0.852
792.12	0.852
792.30	0.850
792.48	0.851
792.65	0.852
792.83	0.851
793.01	0.852
793.19	0.853
793.37	0.852
793.54	0.851
793.72	0.850
793.90	0.852
794.08	0.852
794.26	0.853
794.43	0.852
794.61	0.852
794.79	0.852
794.97	0.853
795.15	0.852
795.32	0.852
795.50	0.853
795.68	0.853
795.86	0.850
796.04	0.850
796.21	0.848
796.39	0.848
796.57	0.848
796.75	0.848
796.92	0.848
797.10	0.848
797.28	0.848
797.46	0.847
797.64	0.848
797.81	0.849
797.99	0.849
798.17	0.849
798.35	0.850
798.52	0.849
798.70	0.850
798.88	0.850
799.06	0.850
799.23	0.852
799.41	0.854
799.59	0.855
799.77	0.855
799.94	0.856
800.12	0.857
800.30	0.858
800.48	0.858
800.65	0.859
800.83	0.859
801.01	0.859
801.19	0.858
801.36	0.856
801.54	0.855
801.72	0.857
801.90	0.857
802.07	0.859
802.25	0.860
802.43	0.859
802.60	0.858
802.78	0.858
802.96	0.857
803.14	0.857
803.31	0.857
803.49	0.857
803.67	0.857
803.84	0.856
804.02	0.855
804.20	0.856
804.38	0.856
804.55	0.856
804.73	0.856
804.91	0.856
805.08	0.856
805.26	0.857
805.44	0.858
805.61	0.859
805.79	0.859
805.97	0.860
806.15	0.857
806.32	0.856
806.50	0.857
806.68	0.857
806.85	0.858
807.03	0.856
807.21	0.855
807.38	0.854
807.56	0.853
807.74	0.852
807.91	0.852
808.09	0.854
808.27	0.853
808.44	0.853
808.62	0.852
808.80	0.851
808.97	0.851
809.15	0.852
809.33	0.852
809.50	0.851
809.68	0.852
809.86	0.851
810.03	0.851
810.21	0.851
810.39	0.850
810.56	0.852
810.74	0.854
810.91	0.855
811.09	0.856
811.27	0.856
811.44	0.856
811.62	0.856
811.80	0.857
811.97	0.858
812.15	0.858
812.33	0.858
812.50	0.856
812.68	0.855
812.85	0.855
813.03	0.855
813.21	0.855
813.38	0.858
813.56	0.856
813.74	0.857
813.91	0.856
814.09	0.857
814.26	0.858
814.44	0.859
814.62	0.858
814.79	0.856
814.97	0.855
815.14	0.857
815.32	0.854
815.50	0.853
815.67	0.851
815.85	0.852
816.02	0.851
816.20	0.850
816.38	0.848
816.55	0.851
816.73	0.850
816.90	0.849
817.08	0.848
817.26	0.851
817.43	0.852
817.61	0.854
817.78	0.855
817.96	0.854
818.13	0.855
818.31	0.858
818.49	0.855
818.66	0.857
818.84	0.858
819.01	0.855
819.19	0.854
819.36	0.854
819.54	0.853
819.71	0.851
819.89	0.852
820.07	0.852
820.24	0.849
820.42	0.851
820.59	0.848
820.77	0.847
820.94	0.848
821.12	0.848
821.29	0.848
821.47	0.849
821.64	0.848
821.82	0.847
822.00	0.847
822.17	0.847
822.35	0.845
822.52	0.849
822.70	0.850
822.87	0.852
823.05	0.848
823.22	0.848
823.40	0.847
823.57	0.849
823.75	0.849
823.92	0.849
824.10	0.847
824.27	0.849
824.45	0.845
824.62	0.842
824.80	0.840
824.97	0.844
825.15	0.843
825.32	0.844
825.50	0.842
825.67	0.842
825.85	0.839
826.02	0.841
826.20	0.840
826.37	0.842
826.55	0.843
826.72	0.844
826.90	0.842
827.07	0.843
827.25	0.842
827.42	0.838
827.60	0.838
827.77	0.841
827.95	0.838
828.12	0.836
828.30	0.834
828.47	0.834
828.65	0.836
828.82	0.833
829.00	0.829
829.17	0.826
829.34	0.828
829.52	0.825
829.69	0.823
829.87	0.820
830.04	0.821
830.22	0.819
830.39	0.813
830.57	0.804
830.74	0.801
830.92	0.798
831.09	0.802
831.26	0.799
831.44	0.797
831.61	0.793
831.79	0.788
831.96	0.786
832.14	0.782
832.31	0.787
832.49	0.786
832.66	0.787
832.83	0.786
833.01	0.774
833.18	0.768
833.36	0.772
833.53	0.771
833.70	0.773
833.88	0.766
834.05	0.764
834.23	0.756
834.40	0.752
834.58	0.751
834.75	0.749
834.92	0.750
835.10	0.750
835.27	0.742
835.45	0.740
835.62	0.734
835.79	0.734
835.97	0.738
836.14	0.735
836.32	0.739
836.49	0.737
836.66	0.739
836.84	0.743
837.01	0.745
837.18	0.748
837.36	0.748
837.53	0.752
837.71	0.750
837.88	0.741
838.05	0.741
838.23	0.737
838.40	0.732
838.58	0.733
838.75	0.726
838.92	0.722
839.10	0.712
839.27	0.707
839.44	0.704
839.62	0.711
839.79	0.722
839.96	0.727
840.14	0.729
840.31	0.727
840.48	0.724
840.66	0.728
840.83	0.733
841.01	0.745
841.18	0.748
841.35	0.743
841.53	0.742
841.70	0.731
841.87	0.719
842.05	0.714
842.22	0.717
842.39	0.709
842.57	0.710
842.74	0.709
842.91	0.703
843.09	0.702
843.26	0.708
843.43	0.702
843.60	0.699
843.78	0.714
843.95	0.711
844.12	0.708
844.30	0.714
844.47	0.707
844.64	0.704
844.82	0.701
844.99	0.699
845.16	0.700
845.34	0.694
845.51	0.697
845.68	0.692
845.85	0.691
846.03	0.701
846.20	0.698
846.37	0.700
846.55	0.698
846.72	0.698
846.89	0.695
847.06	0.693
847.24	0.691
847.41	0.684
847.58	0.681
847.76	0.687
847.93	0.677
848.10	0.669
848.27	0.667
848.45	0.673
848.62	0.672
848.79	0.674
848.97	0.669
849.14	0.674
849.31	0.681
849.48	0.672
849.66	0.670
849.83	0.664
850.00	0.677
850.17	0.677
850.35	0.675
850.52	0.674
850.69	0.670
850.86	0.668
851.04	0.662
851.21	0.661
851.38	0.658
851.55	0.660
851.72	0.672
851.90	0.667
852.07	0.663
852.24	0.668
852.41	0.664
852.59	0.672
852.76	0.682
852.93	0.687
853.10	0.695
853.28	0.697
853.45	0.692
853.62	0.684
853.79	0.686
853.96	0.682
854.14	0.669
854.31	0.673
854.48	0.664
854.65	0.651
854.82	0.646
855.00	0.636
855.17	0.640
855.34	0.642
855.51	0.636
855.68	0.635
855.86	0.639
856.03	0.634
856.20	0.619
856.37	0.611
856.54	0.615
856.72	0.613
856.89	0.604
857.06	0.597
857.23	0.584
857.40	0.577
857.57	0.579
857.75	0.576
857.92	0.583
858.09	0.595
858.26	0.596
858.43	0.595
858.60	0.594
858.78	0.592
858.95	0.602
859.12	0.601
859.29	0.612
859.46	0.602
859.63	0.608
859.81	0.597
859.98	0.594
860.15	0.598
860.32	0.595
860.49	0.590
860.66	0.592
860.83	0.585
861.01	0.598
861.18	0.597
861.35	0.609
861.52	0.597
861.69	0.595
861.86	0.593
862.03	0.602
862.21	0.603
862.38	0.608
862.55	0.608
862.72	0.603
862.89	0.600
863.06	0.590
863.23	0.582
863.40	0.594
863.58	0.595
863.75	0.591
863.92	0.577
864.09	0.573
864.26	0.563
864.43	0.562
864.60	0.564
864.77	0.563
864.94	0.569
865.11	0.569
865.29	0.553
865.46	0.557
865.63	0.559
865.80	0.571
865.97	0.573
866.14	0.576
866.31	0.581
866.48	0.574
866.65	0.568
866.82	0.556
866.99	0.544
867.16	0.542
867.34	0.545
867.51	0.546
867.68	0.533
867.85	0.529
868.02	0.521
868.19	0.519
868.36	0.526
868.53	0.521
868.70	0.531
868.87	0.544
869.04	0.561
869.21	0.560
869.38	0.556
869.55	0.551
869.72	0.545
869.89	0.551
870.06	0.551
870.24	0.536
870.41	0.536
870.58	0.534
870.75	0.527
870.92	0.518
871.09	0.506
871.26	0.507
871.43	0.500
871.60	0.505
871.77	0.491
871.94	0.482
872.11	0.491
872.28	0.486
872.45	0.481
872.62	0.484
872.79	0.471
872.96	0.471
873.13	0.466
873.30	0.466
873.47	0.462
873.64	0.477
873.81	0.472
873.98	0.471
874.15	0.471
874.32	0.481
874.49	0.476
874.66	0.464
874.83	0.456
875.00	0.449
875.17	0.445
875.34	0.438
875.51	0.443
875.68	0.445
875.85	0.443
876.02	0.447
876.19	0.430
876.36	0.431
876.53	0.450
876.70	0.461
876.87	0.471
877.04	0.481
877.21	0.493
877.38	0.475
877.55	0.468
877.72	0.468
877.89	0.459
878.06	0.462
878.23	0.458
878.39	0.448
878.56	0.449
878.73	0.436
878.90	0.445
879.07	0.438
879.24	0.439
879.41	0.454
879.58	0.455
879.75	0.459
879.92	0.461
880.09	0.464
880.26	0.467
880.43	0.456
880.60	0.466
880.77	0.460
880.94	0.467
881.11	0.460
881.27	0.451
881.44	0.452
881.61	0.452
881.78	0.436
881.95	0.430
882.12	0.440
882.29	0.446
882.46	0.444
882.63	0.445
882.80	0.429
882.97	0.438
883.14	0.428
883.30	0.414
883.47	0.420
883.64	0.425
883.81	0.429
883.98	0.414
884.15	0.413
884.32	0.414
884.49	0.425
884.66	0.428
884.82	0.421
884.99	0.424
885.16	0.429
885.33	0.412
885.50	0.429
885.67	0.418
885.84	0.420
886.01	0.417
886.17	0.400
886.34	0.368
886.51	0.368
886.68	0.373
886.85	0.380
887.02	0.369
887.19	0.363
887.36	0.334
887.52	0.329
887.69	0.317
887.86	0.303
888.03	0.324
888.20	0.330
888.37	0.325
888.54	0.305
888.70	0.303
888.87	0.306
889.04	0.325
889.21	0.332
889.38	0.324
889.55	0.335
889.71	0.337
889.88	0.504
890.05	0.229
890.22	0.268
890.39	0.358
>>>>>End Processed Spectral Data<<<<<
