SpectraSuite Data File
++++++++++++++++++++++++++++++++++++
Date: Mon Jun 15 06:24:12 PDT 2015
User: introlabs
Dark Spectrum Present: Yes
Reference Spectrum Present: Yes
Number of Sampled Component Spectra: 1
Spectrometers: USB4H08886
Integration Time (usec): 44366 (USB4H08886)
Spectra Averaged: 20 (USB4H08886)
Boxcar Smoothing: 5 (USB4H08886)
Correct for Electrical Dark: Yes (USB4H08886)
Strobe/Lamp Enabled: No (USB4H08886)
Correct for Detector Non-linearity: Yes (USB4H08886)
Correct for Stray Light: Yes (USB4H08886)
Number of Pixels in Processed Spectrum: 3648
>>>>>Begin Processed Spectral Data<<<<<
178.14	-0.000
178.36	-0.000
178.57	-0.000
178.79	-0.000
179.01	0.171
179.22	-0.000
179.44	-0.000
179.65	-0.104
179.87	-0.000
180.08	0.293
180.30	-0.043
180.52	-0.524
180.73	-0.371
180.95	-0.258
181.16	-0.111
181.38	-0.050
181.59	-0.022
181.81	-0.017
182.03	-0.006
182.24	-0.016
182.46	-0.014
182.67	-0.000
182.89	0.001
183.10	-0.006
183.32	0.005
183.54	0.005
183.75	-0.008
183.97	-0.012
184.18	-0.017
184.40	-0.020
184.61	-0.017
184.83	-0.015
185.04	-0.012
185.26	-0.003
185.48	0.003
185.69	-0.004
185.91	-0.001
186.12	0.013
186.34	0.026
186.55	0.023
186.77	0.016
186.98	0.016
187.20	0.001
187.42	-0.009
187.63	-0.016
187.85	-0.023
188.06	-0.022
188.28	-0.027
188.49	-0.024
188.71	-0.036
188.92	-0.033
189.14	-0.026
189.36	-0.015
189.57	-0.010
189.79	-0.007
190.00	-0.004
190.22	0.003
190.43	-0.001
190.65	0.001
190.86	0.003
191.08	0.006
191.29	-0.001
191.51	-0.001
191.72	-0.009
191.94	-0.006
192.16	-0.007
192.37	-0.007
192.59	-0.013
192.80	-0.004
193.02	-0.005
193.23	-0.009
193.45	-0.006
193.66	0.001
193.88	-0.002
194.09	-0.002
194.31	-0.000
194.52	0.008
194.74	0.009
194.95	0.013
195.17	0.009
195.38	0.018
195.60	0.023
195.81	0.020
196.03	0.017
196.25	0.023
196.46	0.012
196.68	0.003
196.89	-0.003
197.11	-0.002
197.32	0.002
197.54	-0.001
197.75	-0.008
197.97	-0.010
198.18	-0.008
198.40	-0.001
198.61	-0.007
198.83	-0.005
199.04	-0.003
199.26	-0.005
199.47	-0.012
199.69	-0.017
199.90	-0.016
200.12	-0.014
200.33	-0.021
200.55	-0.021
200.76	-0.023
200.98	-0.026
201.19	-0.015
201.41	-0.011
201.62	-0.009
201.84	-0.007
202.05	-0.010
202.27	-0.007
202.48	-0.003
202.70	0.006
202.91	0.002
203.13	0.003
203.34	0.009
203.56	0.011
203.77	0.012
203.99	0.012
204.20	0.012
204.42	0.013
204.63	0.015
204.85	0.006
205.06	-0.007
205.28	-0.006
205.49	-0.013
205.71	-0.006
205.92	-0.012
206.14	-0.017
206.35	-0.016
206.56	-0.018
206.78	-0.010
206.99	-0.012
207.21	-0.004
207.42	-0.001
207.64	-0.003
207.85	-0.003
208.07	-0.009
208.28	-0.013
208.50	-0.013
208.71	-0.012
208.93	-0.007
209.14	-0.015
209.36	-0.015
209.57	-0.025
209.79	-0.022
210.00	-0.013
210.22	-0.011
210.43	-0.009
210.64	0.001
210.86	0.004
211.07	0.002
211.29	0.004
211.50	0.002
211.72	0.000
211.93	0.000
212.15	0.001
212.36	0.005
212.58	0.006
212.79	0.009
213.01	-0.003
213.22	-0.002
213.43	-0.002
213.65	-0.002
213.86	-0.001
214.08	-0.007
214.29	-0.011
214.51	-0.015
214.72	-0.022
214.94	-0.021
215.15	-0.025
215.36	-0.015
215.58	-0.019
215.79	-0.020
216.01	-0.030
216.22	-0.024
216.44	-0.024
216.65	-0.014
216.87	-0.007
217.08	-0.011
217.29	-0.005
217.51	-0.010
217.72	-0.018
217.94	-0.011
218.15	-0.009
218.37	-0.006
218.58	-0.006
218.80	-0.004
219.01	-0.004
219.22	-0.005
219.44	-0.006
219.65	-0.015
219.87	-0.013
220.08	-0.006
220.30	-0.014
220.51	-0.014
220.72	-0.008
220.94	-0.008
221.15	-0.005
221.37	-0.008
221.58	-0.010
221.79	-0.007
222.01	-0.004
222.22	-0.003
222.44	-0.009
222.65	-0.006
222.87	-0.015
223.08	-0.019
223.29	-0.023
223.51	-0.030
223.72	-0.031
223.94	-0.030
224.15	-0.034
224.36	-0.033
224.58	-0.034
224.79	-0.030
225.01	-0.032
225.22	-0.025
225.44	-0.022
225.65	-0.021
225.86	-0.015
226.08	-0.013
226.29	-0.017
226.51	-0.018
226.72	-0.019
226.93	-0.019
227.15	-0.025
227.36	-0.022
227.58	-0.021
227.79	-0.024
228.00	-0.027
228.22	-0.034
228.43	-0.038
228.65	-0.037
228.86	-0.040
229.07	-0.043
229.29	-0.048
229.50	-0.048
229.72	-0.056
229.93	-0.057
230.14	-0.058
230.36	-0.057
230.57	-0.056
230.78	-0.057
231.00	-0.059
231.21	-0.057
231.43	-0.052
231.64	-0.050
231.85	-0.048
232.07	-0.046
232.28	-0.048
232.50	-0.047
232.71	-0.047
232.92	-0.046
233.14	-0.045
233.35	-0.047
233.56	-0.049
233.78	-0.052
233.99	-0.056
234.21	-0.055
234.42	-0.055
234.63	-0.056
234.85	-0.055
235.06	-0.056
235.27	-0.057
235.49	-0.058
235.70	-0.058
235.91	-0.057
236.13	-0.059
236.34	-0.057
236.56	-0.059
236.77	-0.058
236.98	-0.058
237.20	-0.060
237.41	-0.059
237.62	-0.059
237.84	-0.059
238.05	-0.059
238.26	-0.060
238.48	-0.059
238.69	-0.058
238.91	-0.057
239.12	-0.057
239.33	-0.057
239.55	-0.057
239.76	-0.058
239.97	-0.057
240.19	-0.056
240.40	-0.054
240.61	-0.054
240.83	-0.052
241.04	-0.052
241.25	-0.052
241.47	-0.053
241.68	-0.051
241.89	-0.051
242.11	-0.050
242.32	-0.050
242.53	-0.050
242.75	-0.049
242.96	-0.049
243.17	-0.049
243.39	-0.048
243.60	-0.047
243.81	-0.046
244.03	-0.046
244.24	-0.046
244.45	-0.046
244.67	-0.046
244.88	-0.045
245.09	-0.045
245.31	-0.045
245.52	-0.044
245.73	-0.044
245.95	-0.043
246.16	-0.043
246.37	-0.042
246.59	-0.041
246.80	-0.040
247.01	-0.039
247.23	-0.038
247.44	-0.038
247.65	-0.038
247.87	-0.038
248.08	-0.037
248.29	-0.037
248.51	-0.038
248.72	-0.038
248.93	-0.037
249.15	-0.038
249.36	-0.038
249.57	-0.038
249.78	-0.037
250.00	-0.037
250.21	-0.036
250.42	-0.036
250.64	-0.035
250.85	-0.035
251.06	-0.034
251.28	-0.034
251.49	-0.033
251.70	-0.033
251.92	-0.034
252.13	-0.033
252.34	-0.034
252.55	-0.033
252.77	-0.033
252.98	-0.033
253.19	-0.033
253.41	-0.033
253.62	-0.033
253.83	-0.033
254.05	-0.032
254.26	-0.032
254.47	-0.032
254.68	-0.031
254.90	-0.031
255.11	-0.031
255.32	-0.031
255.54	-0.031
255.75	-0.031
255.96	-0.031
256.17	-0.030
256.39	-0.031
256.60	-0.031
256.81	-0.030
257.03	-0.031
257.24	-0.030
257.45	-0.030
257.66	-0.030
257.88	-0.030
258.09	-0.030
258.30	-0.030
258.51	-0.029
258.73	-0.029
258.94	-0.029
259.15	-0.029
259.37	-0.029
259.58	-0.029
259.79	-0.029
260.00	-0.029
260.22	-0.029
260.43	-0.028
260.64	-0.029
260.85	-0.029
261.07	-0.029
261.28	-0.029
261.49	-0.029
261.71	-0.029
261.92	-0.029
262.13	-0.029
262.34	-0.029
262.56	-0.029
262.77	-0.029
262.98	-0.029
263.19	-0.028
263.41	-0.028
263.62	-0.029
263.83	-0.029
264.04	-0.029
264.26	-0.030
264.47	-0.030
264.68	-0.030
264.89	-0.030
265.11	-0.030
265.32	-0.030
265.53	-0.030
265.74	-0.030
265.96	-0.030
266.17	-0.030
266.38	-0.031
266.59	-0.031
266.81	-0.031
267.02	-0.031
267.23	-0.031
267.44	-0.030
267.65	-0.030
267.87	-0.031
268.08	-0.031
268.29	-0.031
268.50	-0.031
268.72	-0.031
268.93	-0.031
269.14	-0.031
269.35	-0.032
269.57	-0.032
269.78	-0.033
269.99	-0.033
270.20	-0.033
270.41	-0.033
270.63	-0.034
270.84	-0.033
271.05	-0.033
271.26	-0.033
271.48	-0.034
271.69	-0.033
271.90	-0.033
272.11	-0.033
272.32	-0.033
272.54	-0.033
272.75	-0.033
272.96	-0.033
273.17	-0.033
273.39	-0.033
273.60	-0.034
273.81	-0.034
274.02	-0.034
274.23	-0.034
274.45	-0.035
274.66	-0.035
274.87	-0.035
275.08	-0.035
275.29	-0.035
275.51	-0.035
275.72	-0.035
275.93	-0.035
276.14	-0.035
276.35	-0.035
276.57	-0.035
276.78	-0.035
276.99	-0.035
277.20	-0.035
277.41	-0.035
277.63	-0.035
277.84	-0.035
278.05	-0.035
278.26	-0.035
278.47	-0.034
278.69	-0.034
278.90	-0.034
279.11	-0.034
279.32	-0.034
279.53	-0.034
279.74	-0.033
279.96	-0.033
280.17	-0.033
280.38	-0.033
280.59	-0.033
280.80	-0.033
281.02	-0.033
281.23	-0.033
281.44	-0.033
281.65	-0.033
281.86	-0.033
282.07	-0.033
282.29	-0.033
282.50	-0.033
282.71	-0.033
282.92	-0.033
283.13	-0.033
283.35	-0.032
283.56	-0.032
283.77	-0.032
283.98	-0.031
284.19	-0.031
284.40	-0.031
284.62	-0.031
284.83	-0.031
285.04	-0.030
285.25	-0.029
285.46	-0.029
285.67	-0.029
285.88	-0.028
286.10	-0.028
286.31	-0.028
286.52	-0.028
286.73	-0.028
286.94	-0.027
287.15	-0.026
287.37	-0.026
287.58	-0.026
287.79	-0.026
288.00	-0.026
288.21	-0.025
288.42	-0.025
288.63	-0.024
288.85	-0.024
289.06	-0.023
289.27	-0.023
289.48	-0.023
289.69	-0.022
289.90	-0.021
290.11	-0.021
290.33	-0.021
290.54	-0.020
290.75	-0.020
290.96	-0.020
291.17	-0.020
291.38	-0.019
291.59	-0.019
291.81	-0.019
292.02	-0.019
292.23	-0.019
292.44	-0.019
292.65	-0.018
292.86	-0.018
293.07	-0.018
293.28	-0.018
293.50	-0.017
293.71	-0.017
293.92	-0.017
294.13	-0.017
294.34	-0.017
294.55	-0.017
294.76	-0.016
294.97	-0.016
295.19	-0.016
295.40	-0.016
295.61	-0.016
295.82	-0.016
296.03	-0.016
296.24	-0.016
296.45	-0.016
296.66	-0.016
296.87	-0.016
297.09	-0.016
297.30	-0.016
297.51	-0.016
297.72	-0.016
297.93	-0.016
298.14	-0.016
298.35	-0.015
298.56	-0.015
298.77	-0.015
298.99	-0.015
299.20	-0.015
299.41	-0.015
299.62	-0.015
299.83	-0.015
300.04	-0.015
300.25	-0.015
300.46	-0.015
300.67	-0.015
300.88	-0.015
301.10	-0.015
301.31	-0.015
301.52	-0.015
301.73	-0.015
301.94	-0.015
302.15	-0.015
302.36	-0.015
302.57	-0.015
302.78	-0.015
302.99	-0.015
303.20	-0.015
303.41	-0.015
303.63	-0.015
303.84	-0.015
304.05	-0.015
304.26	-0.015
304.47	-0.015
304.68	-0.015
304.89	-0.015
305.10	-0.015
305.31	-0.015
305.52	-0.015
305.73	-0.015
305.94	-0.015
306.15	-0.015
306.37	-0.015
306.58	-0.015
306.79	-0.015
307.00	-0.014
307.21	-0.014
307.42	-0.014
307.63	-0.014
307.84	-0.014
308.05	-0.014
308.26	-0.014
308.47	-0.014
308.68	-0.014
308.89	-0.014
309.10	-0.014
309.31	-0.014
309.52	-0.014
309.73	-0.014
309.95	-0.014
310.16	-0.014
310.37	-0.014
310.58	-0.014
310.79	-0.014
311.00	-0.014
311.21	-0.014
311.42	-0.014
311.63	-0.014
311.84	-0.014
312.05	-0.014
312.26	-0.014
312.47	-0.014
312.68	-0.014
312.89	-0.014
313.10	-0.014
313.31	-0.014
313.52	-0.014
313.73	-0.014
313.94	-0.014
314.15	-0.014
314.36	-0.013
314.57	-0.013
314.78	-0.013
314.99	-0.013
315.21	-0.013
315.42	-0.013
315.63	-0.013
315.84	-0.013
316.05	-0.013
316.26	-0.014
316.47	-0.014
316.68	-0.014
316.89	-0.014
317.10	-0.014
317.31	-0.014
317.52	-0.014
317.73	-0.014
317.94	-0.014
318.15	-0.014
318.36	-0.013
318.57	-0.013
318.78	-0.013
318.99	-0.013
319.20	-0.013
319.41	-0.013
319.62	-0.013
319.83	-0.013
320.04	-0.013
320.25	-0.013
320.46	-0.013
320.67	-0.013
320.88	-0.013
321.09	-0.013
321.30	-0.013
321.51	-0.013
321.72	-0.013
321.93	-0.013
322.14	-0.013
322.35	-0.013
322.56	-0.013
322.77	-0.013
322.98	-0.013
323.19	-0.013
323.40	-0.013
323.61	-0.013
323.82	-0.013
324.03	-0.013
324.24	-0.013
324.45	-0.013
324.66	-0.012
324.87	-0.012
325.08	-0.012
325.29	-0.012
325.50	-0.012
325.71	-0.012
325.92	-0.012
326.13	-0.012
326.34	-0.012
326.55	-0.012
326.76	-0.013
326.97	-0.013
327.18	-0.013
327.39	-0.013
327.60	-0.013
327.80	-0.012
328.01	-0.012
328.22	-0.012
328.43	-0.012
328.64	-0.012
328.85	-0.012
329.06	-0.012
329.27	-0.012
329.48	-0.012
329.69	-0.012
329.90	-0.012
330.11	-0.012
330.32	-0.012
330.53	-0.011
330.74	-0.012
330.95	-0.012
331.16	-0.012
331.37	-0.012
331.58	-0.012
331.79	-0.012
332.00	-0.012
332.21	-0.012
332.42	-0.012
332.63	-0.012
332.83	-0.012
333.04	-0.012
333.25	-0.011
333.46	-0.011
333.67	-0.011
333.88	-0.011
334.09	-0.011
334.30	-0.011
334.51	-0.011
334.72	-0.011
334.93	-0.011
335.14	-0.011
335.35	-0.011
335.56	-0.011
335.77	-0.011
335.98	-0.011
336.18	-0.011
336.39	-0.011
336.60	-0.011
336.81	-0.011
337.02	-0.011
337.23	-0.011
337.44	-0.011
337.65	-0.011
337.86	-0.011
338.07	-0.011
338.28	-0.011
338.49	-0.011
338.70	-0.011
338.91	-0.011
339.11	-0.011
339.32	-0.011
339.53	-0.011
339.74	-0.011
339.95	-0.011
340.16	-0.011
340.37	-0.011
340.58	-0.010
340.79	-0.010
341.00	-0.010
341.21	-0.010
341.41	-0.011
341.62	-0.011
341.83	-0.011
342.04	-0.011
342.25	-0.011
342.46	-0.010
342.67	-0.010
342.88	-0.010
343.09	-0.010
343.30	-0.010
343.50	-0.010
343.71	-0.010
343.92	-0.010
344.13	-0.010
344.34	-0.010
344.55	-0.010
344.76	-0.010
344.97	-0.010
345.18	-0.010
345.38	-0.010
345.59	-0.010
345.80	-0.010
346.01	-0.010
346.22	-0.010
346.43	-0.010
346.64	-0.010
346.85	-0.010
347.06	-0.010
347.26	-0.010
347.47	-0.010
347.68	-0.010
347.89	-0.010
348.10	-0.010
348.31	-0.010
348.52	-0.010
348.73	-0.010
348.93	-0.010
349.14	-0.010
349.35	-0.010
349.56	-0.010
349.77	-0.010
349.98	-0.010
350.19	-0.010
350.39	-0.010
350.60	-0.010
350.81	-0.010
351.02	-0.010
351.23	-0.009
351.44	-0.009
351.65	-0.009
351.86	-0.009
352.06	-0.009
352.27	-0.009
352.48	-0.009
352.69	-0.009
352.90	-0.009
353.11	-0.009
353.31	-0.009
353.52	-0.009
353.73	-0.009
353.94	-0.009
354.15	-0.009
354.36	-0.009
354.57	-0.009
354.77	-0.009
354.98	-0.009
355.19	-0.009
355.40	-0.009
355.61	-0.009
355.82	-0.009
356.02	-0.009
356.23	-0.009
356.44	-0.009
356.65	-0.009
356.86	-0.009
357.07	-0.009
357.27	-0.009
357.48	-0.009
357.69	-0.009
357.90	-0.009
358.11	-0.009
358.32	-0.009
358.52	-0.009
358.73	-0.009
358.94	-0.009
359.15	-0.009
359.36	-0.009
359.56	-0.009
359.77	-0.008
359.98	-0.009
360.19	-0.009
360.40	-0.009
360.61	-0.009
360.81	-0.009
361.02	-0.009
361.23	-0.009
361.44	-0.009
361.65	-0.009
361.85	-0.008
362.06	-0.009
362.27	-0.009
362.48	-0.009
362.69	-0.008
362.89	-0.008
363.10	-0.008
363.31	-0.008
363.52	-0.009
363.73	-0.009
363.93	-0.009
364.14	-0.009
364.35	-0.009
364.56	-0.008
364.77	-0.008
364.97	-0.008
365.18	-0.008
365.39	-0.008
365.60	-0.008
365.81	-0.008
366.01	-0.008
366.22	-0.008
366.43	-0.008
366.64	-0.008
366.84	-0.008
367.05	-0.008
367.26	-0.008
367.47	-0.008
367.68	-0.008
367.88	-0.008
368.09	-0.008
368.30	-0.008
368.51	-0.008
368.71	-0.008
368.92	-0.008
369.13	-0.008
369.34	-0.008
369.55	-0.008
369.75	-0.008
369.96	-0.008
370.17	-0.008
370.38	-0.008
370.58	-0.008
370.79	-0.008
371.00	-0.008
371.21	-0.008
371.41	-0.008
371.62	-0.008
371.83	-0.008
372.04	-0.008
372.24	-0.008
372.45	-0.007
372.66	-0.007
372.87	-0.008
373.07	-0.008
373.28	-0.008
373.49	-0.008
373.70	-0.008
373.90	-0.008
374.11	-0.008
374.32	-0.008
374.53	-0.008
374.73	-0.008
374.94	-0.008
375.15	-0.008
375.36	-0.008
375.56	-0.008
375.77	-0.008
375.98	-0.008
376.19	-0.008
376.39	-0.008
376.60	-0.008
376.81	-0.008
377.02	-0.007
377.22	-0.007
377.43	-0.007
377.64	-0.007
377.84	-0.007
378.05	-0.007
378.26	-0.007
378.47	-0.007
378.67	-0.007
378.88	-0.007
379.09	-0.007
379.30	-0.007
379.50	-0.007
379.71	-0.007
379.92	-0.007
380.12	-0.007
380.33	-0.007
380.54	-0.007
380.75	-0.007
380.95	-0.007
381.16	-0.007
381.37	-0.007
381.57	-0.007
381.78	-0.007
381.99	-0.007
382.20	-0.007
382.40	-0.007
382.61	-0.007
382.82	-0.007
383.02	-0.007
383.23	-0.007
383.44	-0.007
383.64	-0.007
383.85	-0.007
384.06	-0.007
384.27	-0.007
384.47	-0.007
384.68	-0.007
384.89	-0.007
385.09	-0.007
385.30	-0.007
385.51	-0.007
385.71	-0.007
385.92	-0.007
386.13	-0.007
386.33	-0.007
386.54	-0.007
386.75	-0.007
386.95	-0.007
387.16	-0.007
387.37	-0.007
387.58	-0.007
387.78	-0.007
387.99	-0.007
388.20	-0.007
388.40	-0.007
388.61	-0.007
388.82	-0.007
389.02	-0.007
389.23	-0.007
389.44	-0.007
389.64	-0.007
389.85	-0.007
390.06	-0.007
390.26	-0.007
390.47	-0.007
390.68	-0.007
390.88	-0.007
391.09	-0.007
391.30	-0.007
391.50	-0.007
391.71	-0.007
391.92	-0.007
392.12	-0.007
392.33	-0.007
392.53	-0.007
392.74	-0.007
392.95	-0.007
393.15	-0.007
393.36	-0.007
393.57	-0.007
393.77	-0.007
393.98	-0.007
394.19	-0.007
394.39	-0.007
394.60	-0.007
394.81	-0.007
395.01	-0.007
395.22	-0.007
395.43	-0.007
395.63	-0.006
395.84	-0.007
396.04	-0.007
396.25	-0.007
396.46	-0.007
396.66	-0.007
396.87	-0.007
397.08	-0.007
397.28	-0.007
397.49	-0.007
397.69	-0.006
397.90	-0.006
398.11	-0.006
398.31	-0.006
398.52	-0.006
398.73	-0.006
398.93	-0.006
399.14	-0.006
399.34	-0.006
399.55	-0.006
399.76	-0.006
399.96	-0.006
400.17	-0.007
400.37	-0.006
400.58	-0.006
400.79	-0.006
400.99	-0.006
401.20	-0.006
401.41	-0.006
401.61	-0.006
401.82	-0.006
402.02	-0.006
402.23	-0.006
402.44	-0.006
402.64	-0.006
402.85	-0.006
403.05	-0.006
403.26	-0.006
403.47	-0.006
403.67	-0.006
403.88	-0.006
404.08	-0.006
404.29	-0.006
404.50	-0.006
404.70	-0.006
404.91	-0.006
405.11	-0.006
405.32	-0.006
405.52	-0.006
405.73	-0.006
405.94	-0.006
406.14	-0.006
406.35	-0.006
406.55	-0.006
406.76	-0.006
406.97	-0.006
407.17	-0.006
407.38	-0.006
407.58	-0.006
407.79	-0.006
407.99	-0.006
408.20	-0.006
408.41	-0.006
408.61	-0.006
408.82	-0.006
409.02	-0.006
409.23	-0.006
409.43	-0.006
409.64	-0.006
409.84	-0.006
410.05	-0.006
410.26	-0.006
410.46	-0.006
410.67	-0.006
410.87	-0.006
411.08	-0.006
411.28	-0.006
411.49	-0.006
411.69	-0.006
411.90	-0.006
412.11	-0.006
412.31	-0.006
412.52	-0.006
412.72	-0.006
412.93	-0.006
413.13	-0.005
413.34	-0.005
413.54	-0.006
413.75	-0.005
413.95	-0.005
414.16	-0.005
414.37	-0.005
414.57	-0.006
414.78	-0.006
414.98	-0.006
415.19	-0.006
415.39	-0.006
415.60	-0.006
415.80	-0.006
416.01	-0.006
416.21	-0.006
416.42	-0.006
416.62	-0.006
416.83	-0.006
417.03	-0.006
417.24	-0.006
417.44	-0.006
417.65	-0.006
417.86	-0.006
418.06	-0.006
418.27	-0.006
418.47	-0.006
418.68	-0.006
418.88	-0.006
419.09	-0.006
419.29	-0.006
419.50	-0.006
419.70	-0.006
419.91	-0.006
420.11	-0.006
420.32	-0.006
420.52	-0.006
420.73	-0.006
420.93	-0.006
421.14	-0.006
421.34	-0.006
421.55	-0.006
421.75	-0.006
421.96	-0.006
422.16	-0.006
422.37	-0.006
422.57	-0.006
422.78	-0.006
422.98	-0.006
423.19	-0.006
423.39	-0.006
423.60	-0.006
423.80	-0.006
424.01	-0.006
424.21	-0.005
424.42	-0.005
424.62	-0.005
424.83	-0.005
425.03	-0.005
425.23	-0.005
425.44	-0.005
425.64	-0.006
425.85	-0.005
426.05	-0.005
426.26	-0.005
426.46	-0.006
426.67	-0.006
426.87	-0.005
427.08	-0.006
427.28	-0.005
427.49	-0.006
427.69	-0.006
427.90	-0.005
428.10	-0.006
428.31	-0.006
428.51	-0.006
428.71	-0.006
428.92	-0.006
429.12	-0.006
429.33	-0.006
429.53	-0.006
429.74	-0.005
429.94	-0.006
430.15	-0.006
430.35	-0.006
430.56	-0.005
430.76	-0.005
430.96	-0.006
431.17	-0.006
431.37	-0.006
431.58	-0.006
431.78	-0.006
431.99	-0.006
432.19	-0.006
432.40	-0.006
432.60	-0.005
432.80	-0.005
433.01	-0.005
433.21	-0.005
433.42	-0.006
433.62	-0.006
433.83	-0.005
434.03	-0.006
434.23	-0.006
434.44	-0.005
434.64	-0.005
434.85	-0.005
435.05	-0.005
435.26	-0.005
435.46	-0.005
435.66	-0.005
435.87	-0.005
436.07	-0.005
436.28	-0.005
436.48	-0.005
436.69	-0.005
436.89	-0.005
437.09	-0.005
437.30	-0.005
437.50	-0.005
437.71	-0.005
437.91	-0.005
438.11	-0.005
438.32	-0.005
438.52	-0.005
438.73	-0.005
438.93	-0.005
439.13	-0.005
439.34	-0.005
439.54	-0.005
439.75	-0.005
439.95	-0.005
440.15	-0.005
440.36	-0.005
440.56	-0.006
440.77	-0.006
440.97	-0.005
441.17	-0.005
441.38	-0.005
441.58	-0.005
441.79	-0.005
441.99	-0.005
442.19	-0.005
442.40	-0.005
442.60	-0.005
442.81	-0.005
443.01	-0.005
443.21	-0.005
443.42	-0.005
443.62	-0.005
443.82	-0.005
444.03	-0.005
444.23	-0.005
444.44	-0.005
444.64	-0.005
444.84	-0.005
445.05	-0.005
445.25	-0.005
445.45	-0.005
445.66	-0.005
445.86	-0.005
446.06	-0.005
446.27	-0.005
446.47	-0.005
446.68	-0.005
446.88	-0.005
447.08	-0.005
447.29	-0.005
447.49	-0.005
447.69	-0.005
447.90	-0.005
448.10	-0.005
448.30	-0.005
448.51	-0.005
448.71	-0.005
448.91	-0.005
449.12	-0.005
449.32	-0.005
449.52	-0.005
449.73	-0.005
449.93	-0.005
450.14	-0.005
450.34	-0.005
450.54	-0.005
450.75	-0.005
450.95	-0.005
451.15	-0.005
451.36	-0.005
451.56	-0.005
451.76	-0.005
451.97	-0.005
452.17	-0.005
452.37	-0.005
452.58	-0.005
452.78	-0.005
452.98	-0.005
453.19	-0.005
453.39	-0.005
453.59	-0.005
453.79	-0.005
454.00	-0.005
454.20	-0.005
454.40	-0.005
454.61	-0.005
454.81	-0.005
455.01	-0.005
455.22	-0.005
455.42	-0.005
455.62	-0.005
455.83	-0.005
456.03	-0.005
456.23	-0.005
456.44	-0.005
456.64	-0.005
456.84	-0.005
457.04	-0.005
457.25	-0.005
457.45	-0.005
457.65	-0.005
457.86	-0.005
458.06	-0.005
458.26	-0.005
458.47	-0.005
458.67	-0.005
458.87	-0.005
459.07	-0.005
459.28	-0.005
459.48	-0.005
459.68	-0.005
459.89	-0.005
460.09	-0.005
460.29	-0.005
460.49	-0.005
460.70	-0.005
460.90	-0.005
461.10	-0.005
461.31	-0.005
461.51	-0.005
461.71	-0.005
461.91	-0.005
462.12	-0.005
462.32	-0.005
462.52	-0.005
462.72	-0.005
462.93	-0.005
463.13	-0.005
463.33	-0.005
463.53	-0.005
463.74	-0.005
463.94	-0.005
464.14	-0.005
464.35	-0.005
464.55	-0.005
464.75	-0.005
464.95	-0.005
465.16	-0.005
465.36	-0.005
465.56	-0.005
465.76	-0.005
465.97	-0.004
466.17	-0.004
466.37	-0.004
466.57	-0.005
466.78	-0.004
466.98	-0.004
467.18	-0.005
467.38	-0.005
467.59	-0.005
467.79	-0.005
467.99	-0.005
468.19	-0.005
468.39	-0.005
468.60	-0.005
468.80	-0.005
469.00	-0.005
469.20	-0.005
469.41	-0.005
469.61	-0.005
469.81	-0.005
470.01	-0.005
470.22	-0.005
470.42	-0.005
470.62	-0.005
470.82	-0.005
471.02	-0.004
471.23	-0.005
471.43	-0.005
471.63	-0.005
471.83	-0.005
472.04	-0.005
472.24	-0.005
472.44	-0.005
472.64	-0.005
472.84	-0.005
473.05	-0.005
473.25	-0.005
473.45	-0.005
473.65	-0.005
473.85	-0.005
474.06	-0.005
474.26	-0.005
474.46	-0.005
474.66	-0.005
474.86	-0.005
475.07	-0.005
475.27	-0.005
475.47	-0.005
475.67	-0.005
475.87	-0.005
476.08	-0.005
476.28	-0.005
476.48	-0.005
476.68	-0.005
476.88	-0.005
477.09	-0.005
477.29	-0.004
477.49	-0.004
477.69	-0.004
477.89	-0.004
478.09	-0.004
478.30	-0.004
478.50	-0.004
478.70	-0.004
478.90	-0.004
479.10	-0.004
479.31	-0.004
479.51	-0.004
479.71	-0.004
479.91	-0.005
480.11	-0.005
480.31	-0.005
480.52	-0.005
480.72	-0.005
480.92	-0.005
481.12	-0.005
481.32	-0.005
481.52	-0.005
481.72	-0.005
481.93	-0.005
482.13	-0.005
482.33	-0.004
482.53	-0.004
482.73	-0.004
482.93	-0.004
483.14	-0.004
483.34	-0.004
483.54	-0.004
483.74	-0.004
483.94	-0.005
484.14	-0.005
484.34	-0.004
484.55	-0.004
484.75	-0.005
484.95	-0.005
485.15	-0.004
485.35	-0.004
485.55	-0.004
485.75	-0.004
485.96	-0.004
486.16	-0.004
486.36	-0.004
486.56	-0.004
486.76	-0.004
486.96	-0.004
487.16	-0.004
487.36	-0.004
487.57	-0.004
487.77	-0.004
487.97	-0.004
488.17	-0.004
488.37	-0.004
488.57	-0.004
488.77	-0.004
488.97	-0.004
489.18	-0.004
489.38	-0.004
489.58	-0.004
489.78	-0.004
489.98	-0.004
490.18	-0.004
490.38	-0.004
490.58	-0.004
490.78	-0.004
490.98	-0.004
491.19	-0.004
491.39	-0.004
491.59	-0.004
491.79	-0.004
491.99	-0.004
492.19	-0.004
492.39	-0.004
492.59	-0.004
492.79	-0.004
492.99	-0.004
493.20	-0.004
493.40	-0.004
493.60	-0.004
493.80	-0.004
494.00	-0.004
494.20	-0.004
494.40	-0.004
494.60	-0.004
494.80	-0.004
495.00	-0.004
495.20	-0.004
495.40	-0.004
495.61	-0.004
495.81	-0.004
496.01	-0.004
496.21	-0.004
496.41	-0.004
496.61	-0.004
496.81	-0.004
497.01	-0.004
497.21	-0.004
497.41	-0.004
497.61	-0.004
497.81	-0.004
498.01	-0.004
498.21	-0.004
498.41	-0.004
498.61	-0.004
498.82	-0.004
499.02	-0.004
499.22	-0.004
499.42	-0.004
499.62	-0.004
499.82	-0.004
500.02	-0.004
500.22	-0.004
500.42	-0.004
500.62	-0.004
500.82	-0.004
501.02	-0.004
501.22	-0.004
501.42	-0.004
501.62	-0.004
501.82	-0.004
502.02	-0.004
502.22	-0.004
502.42	-0.004
502.62	-0.004
502.82	-0.004
503.02	-0.004
503.22	-0.004
503.42	-0.004
503.63	-0.004
503.83	-0.004
504.03	-0.004
504.23	-0.004
504.43	-0.004
504.63	-0.004
504.83	-0.004
505.03	-0.004
505.23	-0.004
505.43	-0.004
505.63	-0.004
505.83	-0.004
506.03	-0.004
506.23	-0.004
506.43	-0.004
506.63	-0.004
506.83	-0.004
507.03	-0.004
507.23	-0.004
507.43	-0.004
507.63	-0.004
507.83	-0.004
508.03	-0.004
508.23	-0.003
508.43	-0.003
508.63	-0.003
508.83	-0.003
509.03	-0.003
509.23	-0.003
509.43	-0.003
509.63	-0.003
509.83	-0.003
510.03	-0.003
510.23	-0.003
510.43	-0.003
510.63	-0.003
510.83	-0.003
511.03	-0.003
511.23	-0.004
511.43	-0.003
511.63	-0.003
511.83	-0.003
512.03	-0.003
512.22	-0.003
512.42	-0.003
512.62	-0.004
512.82	-0.004
513.02	-0.004
513.22	-0.004
513.42	-0.003
513.62	-0.003
513.82	-0.004
514.02	-0.004
514.22	-0.004
514.42	-0.004
514.62	-0.004
514.82	-0.004
515.02	-0.004
515.22	-0.004
515.42	-0.004
515.62	-0.004
515.82	-0.004
516.02	-0.004
516.22	-0.004
516.42	-0.004
516.62	-0.004
516.82	-0.004
517.01	-0.004
517.21	-0.004
517.41	-0.004
517.61	-0.004
517.81	-0.004
518.01	-0.004
518.21	-0.004
518.41	-0.004
518.61	-0.004
518.81	-0.003
519.01	-0.004
519.21	-0.004
519.41	-0.004
519.61	-0.003
519.81	-0.004
520.00	-0.003
520.20	-0.004
520.40	-0.004
520.60	-0.004
520.80	-0.004
521.00	-0.004
521.20	-0.004
521.40	-0.004
521.60	-0.004
521.80	-0.004
522.00	-0.004
522.20	-0.004
522.39	-0.004
522.59	-0.003
522.79	-0.003
522.99	-0.003
523.19	-0.003
523.39	-0.003
523.59	-0.003
523.79	-0.003
523.99	-0.003
524.19	-0.003
524.38	-0.003
524.58	-0.003
524.78	-0.003
524.98	-0.003
525.18	-0.003
525.38	-0.003
525.58	-0.003
525.78	-0.003
525.98	-0.003
526.18	-0.003
526.37	-0.003
526.57	-0.003
526.77	-0.003
526.97	-0.003
527.17	-0.003
527.37	-0.003
527.57	-0.003
527.77	-0.003
527.96	-0.003
528.16	-0.003
528.36	-0.003
528.56	-0.003
528.76	-0.003
528.96	-0.003
529.16	-0.003
529.36	-0.003
529.55	-0.003
529.75	-0.003
529.95	-0.003
530.15	-0.003
530.35	-0.003
530.55	-0.003
530.75	-0.003
530.94	-0.003
531.14	-0.003
531.34	-0.003
531.54	-0.003
531.74	-0.003
531.94	-0.003
532.13	-0.003
532.33	-0.003
532.53	-0.003
532.73	-0.003
532.93	-0.003
533.13	-0.003
533.33	-0.003
533.52	-0.003
533.72	-0.003
533.92	-0.003
534.12	-0.003
534.32	-0.003
534.52	-0.003
534.71	-0.003
534.91	-0.003
535.11	-0.003
535.31	-0.003
535.51	-0.003
535.71	-0.003
535.90	-0.003
536.10	-0.003
536.30	-0.003
536.50	-0.003
536.70	-0.003
536.89	-0.003
537.09	-0.003
537.29	-0.003
537.49	-0.003
537.69	-0.003
537.89	-0.003
538.08	-0.003
538.28	-0.003
538.48	-0.003
538.68	-0.003
538.88	-0.003
539.07	-0.003
539.27	-0.003
539.47	-0.003
539.67	-0.003
539.87	-0.003
540.06	-0.003
540.26	-0.003
540.46	-0.003
540.66	-0.003
540.86	-0.003
541.05	-0.003
541.25	-0.003
541.45	-0.003
541.65	-0.003
541.84	-0.003
542.04	-0.003
542.24	-0.003
542.44	-0.003
542.64	-0.003
542.83	-0.003
543.03	-0.003
543.23	-0.003
543.43	-0.003
543.62	-0.003
543.82	-0.003
544.02	-0.003
544.22	-0.003
544.42	-0.003
544.61	-0.003
544.81	-0.003
545.01	-0.003
545.21	-0.003
545.40	-0.003
545.60	-0.003
545.80	-0.003
546.00	-0.003
546.19	-0.003
546.39	-0.003
546.59	-0.003
546.79	-0.003
546.98	-0.003
547.18	-0.003
547.38	-0.003
547.58	-0.003
547.77	-0.003
547.97	-0.003
548.17	-0.003
548.37	-0.003
548.56	-0.003
548.76	-0.003
548.96	-0.003
549.16	-0.003
549.35	-0.003
549.55	-0.003
549.75	-0.003
549.95	-0.003
550.14	-0.003
550.34	-0.003
550.54	-0.003
550.73	-0.003
550.93	-0.003
551.13	-0.003
551.33	-0.003
551.52	-0.003
551.72	-0.003
551.92	-0.003
552.12	-0.003
552.31	-0.003
552.51	-0.003
552.71	-0.003
552.90	-0.003
553.10	-0.003
553.30	-0.003
553.50	-0.003
553.69	-0.003
553.89	-0.003
554.09	-0.003
554.28	-0.003
554.48	-0.003
554.68	-0.003
554.87	-0.003
555.07	-0.003
555.27	-0.003
555.47	-0.003
555.66	-0.003
555.86	-0.003
556.06	-0.003
556.25	-0.003
556.45	-0.003
556.65	-0.003
556.84	-0.003
557.04	-0.003
557.24	-0.003
557.43	-0.003
557.63	-0.003
557.83	-0.003
558.02	-0.003
558.22	-0.003
558.42	-0.003
558.61	-0.003
558.81	-0.003
559.01	-0.003
559.21	-0.003
559.40	-0.003
559.60	-0.003
559.80	-0.003
559.99	-0.003
560.19	-0.003
560.39	-0.003
560.58	-0.003
560.78	-0.003
560.97	-0.003
561.17	-0.003
561.37	-0.003
561.56	-0.003
561.76	-0.003
561.96	-0.003
562.15	-0.003
562.35	-0.003
562.55	-0.003
562.74	-0.003
562.94	-0.003
563.14	-0.003
563.33	-0.003
563.53	-0.003
563.73	-0.003
563.92	-0.003
564.12	-0.003
564.31	-0.003
564.51	-0.003
564.71	-0.003
564.90	-0.003
565.10	-0.003
565.30	-0.003
565.49	-0.003
565.69	-0.003
565.89	-0.003
566.08	-0.003
566.28	-0.003
566.47	-0.003
566.67	-0.003
566.87	-0.003
567.06	-0.003
567.26	-0.003
567.46	-0.003
567.65	-0.003
567.85	-0.003
568.04	-0.003
568.24	-0.003
568.44	-0.003
568.63	-0.003
568.83	-0.003
569.02	-0.003
569.22	-0.003
569.42	-0.003
569.61	-0.003
569.81	-0.003
570.00	-0.003
570.20	-0.003
570.40	-0.003
570.59	-0.003
570.79	-0.003
570.98	-0.003
571.18	-0.003
571.38	-0.003
571.57	-0.003
571.77	-0.003
571.96	-0.003
572.16	-0.003
572.35	-0.003
572.55	-0.003
572.75	-0.003
572.94	-0.003
573.14	-0.003
573.33	-0.003
573.53	-0.003
573.73	-0.003
573.92	-0.003
574.12	-0.003
574.31	-0.003
574.51	-0.003
574.70	-0.003
574.90	-0.002
575.09	-0.002
575.29	-0.002
575.49	-0.002
575.68	-0.001
575.88	-0.001
576.07	-0.001
576.27	-0.001
576.46	-0.000
576.66	-0.000
576.86	-0.000
577.05	-0.000
577.25	-0.000
577.44	-0.000
577.64	-0.000
577.83	-0.000
578.03	-0.000
578.22	-0.000
578.42	-0.000
578.61	-0.000
578.81	-0.000
579.00	-0.000
579.20	-0.000
579.40	-0.000
579.59	-0.000
579.79	-0.000
579.98	-0.000
580.18	-0.000
580.37	-0.000
580.57	-0.000
580.76	-0.000
580.96	-0.000
581.15	-0.000
581.35	-0.000
581.54	-0.000
581.74	-0.000
581.93	-0.000
582.13	-0.000
582.32	-0.000
582.52	-0.000
582.71	-0.000
582.91	-0.000
583.10	-0.000
583.30	-0.000
583.49	-0.000
583.69	-0.000
583.88	-0.000
584.08	-0.000
584.27	-0.000
584.47	-0.000
584.66	-0.000
584.86	-0.000
585.05	-0.000
585.25	-0.000
585.44	-0.000
585.64	-0.000
585.83	-0.000
586.03	-0.000
586.22	-0.000
586.42	-0.000
586.61	-0.001
586.81	-0.001
587.00	-0.001
587.20	-0.001
587.39	-0.002
587.59	-0.002
587.78	-0.002
587.98	-0.002
588.17	-0.002
588.37	-0.003
588.56	-0.002
588.76	-0.002
588.95	-0.002
589.15	-0.002
589.34	-0.002
589.54	-0.002
589.73	-0.002
589.92	-0.002
590.12	-0.002
590.31	-0.002
590.51	-0.003
590.70	-0.003
590.90	-0.003
591.09	-0.003
591.29	-0.003
591.48	-0.003
591.68	-0.003
591.87	-0.003
592.06	-0.003
592.26	-0.003
592.45	-0.003
592.65	-0.003
592.84	-0.003
593.04	-0.003
593.23	-0.003
593.43	-0.003
593.62	-0.003
593.81	-0.003
594.01	-0.003
594.20	-0.003
594.40	-0.003
594.59	-0.003
594.79	-0.002
594.98	-0.002
595.17	-0.002
595.37	-0.002
595.56	-0.002
595.76	-0.002
595.95	-0.002
596.14	-0.002
596.34	-0.002
596.53	-0.003
596.73	-0.002
596.92	-0.003
597.12	-0.003
597.31	-0.003
597.50	-0.003
597.70	-0.003
597.89	-0.003
598.09	-0.003
598.28	-0.003
598.47	-0.003
598.67	-0.003
598.86	-0.003
599.06	-0.003
599.25	-0.003
599.44	-0.003
599.64	-0.003
599.83	-0.003
600.03	-0.002
600.22	-0.002
600.41	-0.002
600.61	-0.002
600.80	-0.002
601.00	-0.002
601.19	-0.002
601.38	-0.002
601.58	-0.002
601.77	-0.002
601.96	-0.002
602.16	-0.002
602.35	-0.002
602.55	-0.002
602.74	-0.002
602.93	-0.002
603.13	-0.002
603.32	-0.002
603.51	-0.003
603.71	-0.003
603.90	-0.003
604.09	-0.003
604.29	-0.003
604.48	-0.003
604.68	-0.003
604.87	-0.003
605.06	-0.003
605.26	-0.003
605.45	-0.003
605.64	-0.003
605.84	-0.003
606.03	-0.003
606.22	-0.003
606.42	-0.003
606.61	-0.003
606.80	-0.003
607.00	-0.003
607.19	-0.002
607.38	-0.002
607.58	-0.002
607.77	-0.002
607.96	-0.002
608.16	-0.002
608.35	-0.002
608.54	-0.002
608.74	-0.002
608.93	-0.002
609.12	-0.002
609.32	-0.002
609.51	-0.002
609.70	-0.002
609.90	-0.002
610.09	-0.002
610.28	-0.002
610.48	-0.002
610.67	-0.002
610.86	-0.002
611.06	-0.003
611.25	-0.003
611.44	-0.003
611.64	-0.003
611.83	-0.003
612.02	-0.003
612.21	-0.003
612.41	-0.003
612.60	-0.003
612.79	-0.003
612.99	-0.003
613.18	-0.002
613.37	-0.003
613.57	-0.002
613.76	-0.002
613.95	-0.002
614.14	-0.002
614.34	-0.002
614.53	-0.002
614.72	-0.002
614.92	-0.002
615.11	-0.002
615.30	-0.002
615.49	-0.002
615.69	-0.002
615.88	-0.002
616.07	-0.002
616.26	-0.002
616.46	-0.002
616.65	-0.002
616.84	-0.002
617.04	-0.002
617.23	-0.002
617.42	-0.002
617.61	-0.002
617.81	-0.001
618.00	-0.001
618.19	-0.001
618.38	-0.001
618.58	-0.002
618.77	-0.002
618.96	-0.002
619.15	-0.002
619.35	-0.002
619.54	-0.002
619.73	-0.002
619.92	-0.002
620.12	-0.002
620.31	-0.002
620.50	-0.002
620.69	-0.002
620.89	-0.002
621.08	-0.002
621.27	-0.002
621.46	-0.003
621.66	-0.003
621.85	-0.003
622.04	-0.003
622.23	-0.002
622.43	-0.003
622.62	-0.002
622.81	-0.002
623.00	-0.002
623.19	-0.002
623.39	-0.002
623.58	-0.002
623.77	-0.002
623.96	-0.002
624.16	-0.002
624.35	-0.002
624.54	-0.002
624.73	-0.002
624.92	-0.002
625.12	-0.002
625.31	-0.002
625.50	-0.002
625.69	-0.002
625.88	-0.002
626.08	-0.002
626.27	-0.002
626.46	-0.002
626.65	-0.002
626.84	-0.002
627.04	-0.002
627.23	-0.002
627.42	-0.002
627.61	-0.002
627.80	-0.002
628.00	-0.002
628.19	-0.002
628.38	-0.002
628.57	-0.002
628.76	-0.002
628.96	-0.002
629.15	-0.001
629.34	-0.001
629.53	-0.001
629.72	-0.001
629.91	-0.001
630.11	-0.002
630.30	-0.002
630.49	-0.001
630.68	-0.001
630.87	-0.001
631.06	-0.001
631.26	-0.001
631.45	-0.001
631.64	-0.001
631.83	-0.001
632.02	-0.001
632.21	-0.001
632.41	-0.001
632.60	-0.001
632.79	-0.001
632.98	-0.001
633.17	-0.001
633.36	-0.001
633.55	-0.001
633.75	-0.001
633.94	-0.001
634.13	-0.001
634.32	-0.002
634.51	-0.002
634.70	-0.002
634.89	-0.002
635.09	-0.002
635.28	-0.002
635.47	-0.002
635.66	-0.002
635.85	-0.002
636.04	-0.002
636.23	-0.002
636.43	-0.002
636.62	-0.002
636.81	-0.002
637.00	-0.002
637.19	-0.002
637.38	-0.002
637.57	-0.002
637.76	-0.002
637.95	-0.002
638.15	-0.002
638.34	-0.002
638.53	-0.002
638.72	-0.002
638.91	-0.001
639.10	-0.002
639.29	-0.002
639.48	-0.001
639.67	-0.002
639.87	-0.002
640.06	-0.002
640.25	-0.002
640.44	-0.002
640.63	-0.002
640.82	-0.002
641.01	-0.002
641.20	-0.002
641.39	-0.002
641.58	-0.002
641.78	-0.002
641.97	-0.002
642.16	-0.002
642.35	-0.002
642.54	-0.002
642.73	-0.002
642.92	-0.002
643.11	-0.002
643.30	-0.001
643.49	-0.001
643.68	-0.001
643.87	-0.001
644.06	-0.002
644.25	-0.002
644.45	-0.001
644.64	-0.001
644.83	-0.001
645.02	-0.001
645.21	-0.002
645.40	-0.002
645.59	-0.002
645.78	-0.002
645.97	-0.002
646.16	-0.002
646.35	-0.002
646.54	-0.002
646.73	-0.002
646.92	-0.002
647.11	-0.002
647.30	-0.002
647.49	-0.002
647.68	-0.002
647.88	-0.002
648.07	-0.002
648.26	-0.002
648.45	-0.002
648.64	-0.002
648.83	-0.002
649.02	-0.002
649.21	-0.002
649.40	-0.002
649.59	-0.002
649.78	-0.002
649.97	-0.002
650.16	-0.001
650.35	-0.001
650.54	-0.001
650.73	-0.001
650.92	-0.001
651.11	-0.001
651.30	-0.001
651.49	-0.001
651.68	-0.001
651.87	-0.001
652.06	-0.001
652.25	-0.001
652.44	-0.002
652.63	-0.002
652.82	-0.002
653.01	-0.002
653.20	-0.003
653.39	-0.003
653.58	-0.003
653.77	-0.003
653.96	-0.003
654.15	-0.003
654.34	-0.003
654.53	-0.003
654.72	-0.003
654.91	-0.003
655.10	-0.002
655.29	-0.002
655.48	-0.002
655.67	-0.002
655.86	-0.002
656.05	-0.002
656.24	-0.002
656.43	-0.002
656.62	-0.002
656.81	-0.002
657.00	-0.001
657.19	-0.001
657.38	-0.001
657.57	-0.001
657.76	-0.001
657.95	-0.000
658.14	-0.000
658.33	-0.000
658.51	-0.000
658.70	-0.000
658.89	-0.000
659.08	-0.000
659.27	-0.001
659.46	-0.001
659.65	-0.001
659.84	-0.001
660.03	-0.001
660.22	-0.001
660.41	-0.001
660.60	-0.001
660.79	-0.001
660.98	-0.001
661.17	-0.001
661.36	-0.001
661.55	-0.001
661.74	-0.001
661.92	-0.001
662.11	-0.002
662.30	-0.001
662.49	-0.001
662.68	-0.001
662.87	-0.001
663.06	-0.002
663.25	-0.002
663.44	-0.001
663.63	-0.002
663.82	-0.002
664.01	-0.002
664.20	-0.002
664.38	-0.001
664.57	-0.002
664.76	-0.001
664.95	-0.001
665.14	-0.001
665.33	-0.001
665.52	-0.001
665.71	-0.001
665.90	-0.001
666.09	-0.001
666.28	-0.001
666.46	-0.001
666.65	-0.001
666.84	-0.001
667.03	-0.001
667.22	-0.001
667.41	-0.001
667.60	-0.001
667.79	-0.001
667.98	-0.001
668.16	-0.001
668.35	-0.001
668.54	-0.001
668.73	-0.002
668.92	-0.002
669.11	-0.001
669.30	-0.002
669.49	-0.002
669.67	-0.002
669.86	-0.002
670.05	-0.002
670.24	-0.002
670.43	-0.001
670.62	-0.001
670.81	-0.001
671.00	-0.002
671.18	-0.002
671.37	-0.002
671.56	-0.002
671.75	-0.002
671.94	-0.002
672.13	-0.001
672.32	-0.001
672.50	-0.002
672.69	-0.002
672.88	-0.002
673.07	-0.002
673.26	-0.002
673.45	-0.001
673.63	-0.001
673.82	-0.001
674.01	-0.001
674.20	-0.001
674.39	-0.001
674.58	-0.001
674.76	-0.001
674.95	-0.001
675.14	-0.001
675.33	-0.001
675.52	-0.001
675.71	-0.001
675.89	-0.001
676.08	-0.001
676.27	-0.001
676.46	-0.001
676.65	-0.001
676.84	-0.001
677.02	-0.001
677.21	-0.001
677.40	-0.002
677.59	-0.001
677.78	-0.001
677.96	-0.001
678.15	-0.001
678.34	-0.001
678.53	-0.002
678.72	-0.001
678.90	-0.002
679.09	-0.001
679.28	-0.001
679.47	-0.001
679.66	-0.001
679.84	-0.001
680.03	-0.001
680.22	-0.001
680.41	-0.001
680.60	-0.001
680.78	-0.001
680.97	-0.001
681.16	-0.001
681.35	-0.001
681.53	-0.001
681.72	-0.001
681.91	-0.001
682.10	-0.001
682.29	-0.001
682.47	-0.001
682.66	-0.001
682.85	-0.001
683.04	-0.001
683.22	-0.001
683.41	-0.001
683.60	-0.001
683.79	-0.001
683.97	-0.001
684.16	-0.001
684.35	-0.001
684.54	-0.001
684.72	-0.001
684.91	-0.001
685.10	-0.001
685.29	-0.001
685.47	-0.001
685.66	-0.001
685.85	-0.001
686.04	-0.001
686.22	-0.001
686.41	-0.001
686.60	-0.001
686.79	-0.001
686.97	-0.001
687.16	-0.001
687.35	-0.001
687.54	-0.001
687.72	-0.001
687.91	-0.001
688.10	-0.001
688.29	-0.001
688.47	-0.001
688.66	-0.001
688.85	-0.001
689.03	-0.001
689.22	-0.001
689.41	-0.001
689.60	-0.001
689.78	-0.001
689.97	-0.001
690.16	-0.001
690.34	-0.001
690.53	-0.001
690.72	-0.001
690.91	-0.001
691.09	-0.001
691.28	-0.001
691.47	-0.001
691.65	-0.001
691.84	-0.001
692.03	-0.001
692.21	-0.001
692.40	-0.001
692.59	-0.001
692.77	-0.001
692.96	-0.002
693.15	-0.002
693.34	-0.002
693.52	-0.002
693.71	-0.001
693.90	-0.002
694.08	-0.002
694.27	-0.001
694.46	-0.001
694.64	-0.001
694.83	-0.001
695.02	-0.001
695.20	-0.001
695.39	-0.001
695.58	-0.001
695.76	-0.001
695.95	-0.001
696.14	-0.001
696.32	-0.001
696.51	-0.001
696.70	-0.001
696.88	-0.001
697.07	-0.001
697.26	-0.002
697.44	-0.001
697.63	-0.001
697.81	-0.001
698.00	-0.001
698.19	-0.001
698.37	-0.001
698.56	-0.001
698.75	-0.001
698.93	-0.001
699.12	-0.001
699.31	-0.001
699.49	-0.001
699.68	-0.001
699.87	-0.001
700.05	-0.002
700.24	-0.002
700.42	-0.002
700.61	-0.001
700.80	-0.001
700.98	-0.001
701.17	-0.001
701.36	-0.001
701.54	-0.001
701.73	-0.001
701.91	-0.001
702.10	-0.000
702.29	-0.000
702.47	-0.000
702.66	-0.001
702.84	-0.000
703.03	-0.000
703.22	-0.001
703.40	-0.001
703.59	-0.001
703.77	-0.001
703.96	-0.001
704.15	-0.001
704.33	-0.001
704.52	-0.001
704.70	-0.001
704.89	-0.001
705.08	-0.001
705.26	-0.001
705.45	-0.001
705.63	-0.001
705.82	-0.001
706.00	-0.001
706.19	-0.001
706.38	-0.001
706.56	-0.001
706.75	-0.001
706.93	-0.001
707.12	-0.000
707.30	-0.000
707.49	-0.000
707.68	-0.000
707.86	-0.000
708.05	-0.001
708.23	-0.001
708.42	-0.001
708.60	-0.001
708.79	-0.001
708.98	-0.001
709.16	-0.001
709.35	-0.001
709.53	-0.001
709.72	-0.001
709.90	-0.001
710.09	-0.001
710.27	-0.001
710.46	-0.001
710.64	-0.001
710.83	-0.001
711.02	-0.001
711.20	-0.001
711.39	-0.001
711.57	-0.001
711.76	-0.001
711.94	-0.001
712.13	-0.001
712.31	-0.001
712.50	-0.001
712.68	-0.001
712.87	-0.001
713.05	-0.001
713.24	-0.001
713.42	-0.001
713.61	-0.001
713.79	-0.001
713.98	-0.001
714.16	-0.001
714.35	-0.001
714.54	-0.001
714.72	-0.001
714.91	-0.001
715.09	-0.001
715.28	-0.001
715.46	-0.001
715.65	-0.001
715.83	-0.001
716.02	-0.001
716.20	-0.001
716.39	-0.001
716.57	-0.001
716.76	-0.001
716.94	-0.001
717.12	-0.001
717.31	-0.001
717.49	-0.001
717.68	-0.001
717.86	-0.001
718.05	-0.001
718.23	-0.001
718.42	-0.001
718.60	-0.001
718.79	-0.001
718.97	-0.001
719.16	-0.001
719.34	-0.001
719.53	-0.001
719.71	-0.001
719.90	-0.001
720.08	-0.001
720.27	-0.001
720.45	-0.001
720.63	-0.001
720.82	-0.000
721.00	-0.001
721.19	-0.001
721.37	-0.000
721.56	-0.001
721.74	-0.001
721.93	-0.001
722.11	-0.001
722.30	-0.001
722.48	-0.001
722.66	-0.001
722.85	-0.001
723.03	-0.001
723.22	-0.001
723.40	-0.001
723.59	-0.001
723.77	-0.001
723.95	-0.001
724.14	-0.001
724.32	-0.001
724.51	-0.001
724.69	-0.001
724.88	-0.001
725.06	-0.001
725.24	-0.001
725.43	-0.001
725.61	-0.001
725.80	-0.001
725.98	-0.001
726.16	-0.001
726.35	-0.001
726.53	-0.001
726.72	-0.001
726.90	-0.001
727.09	-0.001
727.27	-0.001
727.45	-0.001
727.64	-0.001
727.82	-0.001
728.01	-0.001
728.19	-0.001
728.37	-0.001
728.56	-0.001
728.74	-0.001
728.92	-0.001
729.11	-0.002
729.29	-0.001
729.48	-0.002
729.66	-0.002
729.84	-0.002
730.03	-0.002
730.21	-0.002
730.40	-0.002
730.58	-0.003
730.76	-0.002
730.95	-0.003
731.13	-0.002
731.31	-0.002
731.50	-0.002
731.68	-0.002
731.86	-0.002
732.05	-0.002
732.23	-0.002
732.42	-0.002
732.60	-0.002
732.78	-0.002
732.97	-0.002
733.15	-0.002
733.33	-0.002
733.52	-0.002
733.70	-0.002
733.88	-0.002
734.07	-0.003
734.25	-0.003
734.43	-0.003
734.62	-0.003
734.80	-0.003
734.98	-0.003
735.17	-0.003
735.35	-0.003
735.53	-0.003
735.72	-0.002
735.90	-0.001
736.08	-0.002
736.27	-0.002
736.45	-0.001
736.63	-0.001
736.82	-0.001
737.00	-0.001
737.18	-0.001
737.37	-0.001
737.55	-0.001
737.73	-0.002
737.92	-0.002
738.10	-0.002
738.28	-0.002
738.46	-0.001
738.65	-0.001
738.83	-0.001
739.01	-0.001
739.20	-0.001
739.38	-0.002
739.56	-0.001
739.75	-0.001
739.93	-0.001
740.11	-0.001
740.29	-0.001
740.48	-0.001
740.66	-0.001
740.84	-0.001
741.03	-0.001
741.21	-0.001
741.39	-0.001
741.57	-0.001
741.76	-0.001
741.94	-0.001
742.12	-0.001
742.31	-0.001
742.49	-0.000
742.67	-0.000
742.85	-0.000
743.04	-0.001
743.22	-0.000
743.40	-0.000
743.58	-0.001
743.77	-0.001
743.95	-0.001
744.13	-0.001
744.31	-0.002
744.50	-0.003
744.68	-0.002
744.86	-0.002
745.04	-0.002
745.23	-0.002
745.41	-0.003
745.59	-0.003
745.77	-0.003
745.96	-0.003
746.14	-0.002
746.32	-0.002
746.50	-0.002
746.69	-0.002
746.87	-0.002
747.05	-0.002
747.23	-0.002
747.42	-0.001
747.60	-0.001
747.78	-0.001
747.96	-0.000
748.14	-0.000
748.33	-0.000
748.51	-0.001
748.69	-0.001
748.87	-0.001
749.06	-0.000
749.24	-0.000
749.42	-0.001
749.60	-0.000
749.78	-0.001
749.97	-0.001
750.15	-0.001
750.33	-0.001
750.51	-0.001
750.69	-0.001
750.88	-0.002
751.06	-0.002
751.24	-0.002
751.42	-0.002
751.60	-0.002
751.79	-0.002
751.97	-0.002
752.15	-0.002
752.33	-0.001
752.51	-0.001
752.69	-0.001
752.88	-0.001
753.06	-0.001
753.24	-0.001
753.42	-0.002
753.60	-0.001
753.78	-0.001
753.97	-0.002
754.15	-0.002
754.33	-0.002
754.51	-0.002
754.69	-0.003
754.87	-0.003
755.06	-0.003
755.24	-0.003
755.42	-0.004
755.60	-0.003
755.78	-0.004
755.96	-0.004
756.15	-0.003
756.33	-0.003
756.51	-0.003
756.69	-0.002
756.87	-0.002
757.05	-0.003
757.23	-0.002
757.42	-0.001
757.60	-0.001
757.78	-0.001
757.96	-0.001
758.14	-0.001
758.32	-0.001
758.50	-0.002
758.69	-0.002
758.87	-0.002
759.05	-0.001
759.23	-0.001
759.41	-0.001
759.59	-0.001
759.77	-0.002
759.95	-0.002
760.13	-0.002
760.32	-0.001
760.50	-0.001
760.68	-0.001
760.86	-0.001
761.04	-0.001
761.22	-0.001
761.40	-0.002
761.58	-0.002
761.76	-0.002
761.95	-0.002
762.13	-0.002
762.31	-0.002
762.49	-0.001
762.67	-0.001
762.85	-0.001
763.03	-0.002
763.21	-0.001
763.39	-0.001
763.57	-0.001
763.75	-0.001
763.94	-0.000
764.12	-0.000
764.30	-0.001
764.48	-0.001
764.66	-0.002
764.84	-0.002
765.02	-0.001
765.20	-0.001
765.38	-0.002
765.56	-0.001
765.74	-0.002
765.92	-0.003
766.10	-0.002
766.28	-0.002
766.46	-0.002
766.65	-0.002
766.83	-0.001
767.01	-0.002
767.19	-0.002
767.37	-0.002
767.55	-0.001
767.73	-0.001
767.91	-0.000
768.09	0.000
768.27	-0.000
768.45	0.000
768.63	0.000
768.81	0.000
768.99	0.000
769.17	0.000
769.35	0.000
769.53	0.000
769.71	0.000
769.89	-0.000
770.07	-0.001
770.25	-0.001
770.43	-0.001
770.61	-0.001
770.79	-0.002
770.97	-0.001
771.15	-0.001
771.33	-0.001
771.51	-0.002
771.69	-0.002
771.87	-0.001
772.05	-0.001
772.24	-0.001
772.42	-0.000
772.60	-0.000
772.78	0.001
772.96	0.001
773.14	0.000
773.32	0.000
773.49	0.001
773.67	0.000
773.85	-0.000
774.03	-0.000
774.21	-0.000
774.39	-0.001
774.57	-0.000
774.75	-0.000
774.93	-0.000
775.11	-0.000
775.29	-0.000
775.47	-0.000
775.65	0.000
775.83	0.001
776.01	0.000
776.19	0.000
776.37	0.000
776.55	-0.000
776.73	-0.000
776.91	-0.000
777.09	-0.001
777.27	-0.001
777.45	-0.001
777.63	-0.000
777.81	-0.001
777.99	-0.001
778.17	-0.001
778.35	-0.001
778.53	-0.001
778.71	-0.001
778.89	-0.001
779.07	-0.001
779.24	-0.001
779.42	-0.001
779.60	-0.001
779.78	-0.000
779.96	-0.000
780.14	-0.001
780.32	-0.001
780.50	-0.001
780.68	-0.001
780.86	-0.001
781.04	-0.001
781.22	-0.001
781.40	-0.001
781.58	-0.001
781.75	-0.001
781.93	-0.001
782.11	-0.001
782.29	-0.001
782.47	-0.001
782.65	-0.001
782.83	-0.001
783.01	-0.001
783.19	-0.001
783.37	-0.001
783.55	-0.001
783.72	-0.001
783.90	-0.001
784.08	-0.001
784.26	-0.001
784.44	-0.002
784.62	-0.002
784.80	-0.001
784.98	-0.001
785.16	-0.001
785.33	-0.000
785.51	-0.001
785.69	-0.001
785.87	-0.001
786.05	-0.000
786.23	-0.001
786.41	-0.001
786.59	-0.001
786.77	-0.001
786.94	-0.001
787.12	-0.001
787.30	-0.001
787.48	-0.000
787.66	-0.000
787.84	-0.000
788.02	-0.001
788.19	-0.001
788.37	-0.000
788.55	-0.000
788.73	-0.000
788.91	0.000
789.09	0.000
789.27	-0.000
789.44	-0.000
789.62	-0.001
789.80	-0.001
789.98	-0.001
790.16	-0.000
790.34	-0.001
790.51	-0.001
790.69	-0.001
790.87	-0.001
791.05	-0.001
791.23	-0.001
791.41	-0.001
791.58	-0.000
791.76	-0.000
791.94	-0.000
792.12	-0.000
792.30	-0.000
792.48	0.000
792.65	0.000
792.83	-0.000
793.01	0.000
793.19	0.000
793.37	-0.000
793.54	-0.000
793.72	-0.000
793.90	-0.000
794.08	-0.001
794.26	-0.000
794.43	-0.001
794.61	-0.001
794.79	-0.001
794.97	-0.001
795.15	-0.001
795.32	-0.000
795.50	-0.000
795.68	-0.000
795.86	-0.000
796.04	-0.000
796.21	-0.000
796.39	-0.001
796.57	-0.001
796.75	-0.000
796.92	-0.001
797.10	-0.000
797.28	-0.001
797.46	-0.001
797.64	-0.001
797.81	-0.001
797.99	-0.001
798.17	-0.001
798.35	-0.000
798.52	-0.000
798.70	-0.000
798.88	-0.001
799.06	-0.001
799.23	-0.000
799.41	-0.000
799.59	-0.000
799.77	-0.000
799.94	-0.000
800.12	-0.000
800.30	-0.000
800.48	-0.000
800.65	-0.000
800.83	-0.000
801.01	-0.000
801.19	-0.000
801.36	-0.000
801.54	-0.000
801.72	0.000
801.90	0.000
802.07	-0.000
802.25	-0.001
802.43	-0.001
802.60	-0.000
802.78	-0.000
802.96	-0.000
803.14	0.000
803.31	0.000
803.49	-0.000
803.67	-0.001
803.84	-0.001
804.02	-0.001
804.20	-0.001
804.38	-0.001
804.55	-0.001
804.73	-0.001
804.91	-0.002
805.08	-0.002
805.26	-0.002
805.44	-0.002
805.61	-0.002
805.79	-0.001
805.97	-0.001
806.15	-0.002
806.32	-0.001
806.50	-0.001
806.68	-0.002
806.85	-0.001
807.03	-0.001
807.21	-0.001
807.38	-0.001
807.56	-0.001
807.74	-0.001
807.91	-0.001
808.09	-0.001
808.27	-0.001
808.44	-0.001
808.62	-0.000
808.80	-0.000
808.97	-0.000
809.15	-0.000
809.33	-0.000
809.50	-0.000
809.68	-0.000
809.86	-0.000
810.03	-0.000
810.21	-0.000
810.39	-0.000
810.56	-0.001
810.74	-0.001
810.91	-0.001
811.09	-0.001
811.27	-0.001
811.44	-0.001
811.62	-0.000
811.80	-0.001
811.97	-0.000
812.15	-0.000
812.33	-0.000
812.50	-0.000
812.68	-0.001
812.85	-0.001
813.03	-0.000
813.21	-0.000
813.38	-0.001
813.56	-0.001
813.74	-0.001
813.91	-0.001
814.09	-0.001
814.26	-0.001
814.44	-0.000
814.62	-0.000
814.79	-0.000
814.97	-0.000
815.14	-0.001
815.32	-0.001
815.50	-0.001
815.67	-0.001
815.85	-0.001
816.02	-0.001
816.20	-0.001
816.38	-0.002
816.55	-0.001
816.73	-0.001
816.90	-0.001
817.08	-0.001
817.26	-0.000
817.43	-0.001
817.61	-0.000
817.78	-0.000
817.96	-0.000
818.13	-0.000
818.31	0.000
818.49	-0.001
818.66	-0.001
818.84	-0.001
819.01	-0.001
819.19	-0.002
819.36	-0.001
819.54	-0.001
819.71	-0.001
819.89	-0.000
820.07	-0.000
820.24	-0.000
820.42	0.000
820.59	0.001
820.77	0.001
820.94	0.001
821.12	0.001
821.29	0.001
821.47	0.001
821.64	0.000
821.82	-0.000
822.00	-0.001
822.17	-0.001
822.35	-0.001
822.52	-0.001
822.70	-0.001
822.87	-0.001
823.05	-0.002
823.22	-0.002
823.40	-0.002
823.57	-0.002
823.75	-0.001
823.92	-0.001
824.10	-0.001
824.27	-0.001
824.45	-0.001
824.62	-0.001
824.80	-0.001
824.97	-0.000
825.15	0.000
825.32	0.000
825.50	0.000
825.67	0.000
825.85	0.000
826.02	-0.000
826.20	-0.000
826.37	-0.001
826.55	-0.001
826.72	-0.001
826.90	-0.001
827.07	-0.001
827.25	-0.000
827.42	-0.001
827.60	-0.001
827.77	-0.001
827.95	-0.001
828.12	-0.000
828.30	0.001
828.47	0.001
828.65	-0.000
828.82	-0.000
829.00	-0.001
829.17	-0.000
829.34	0.000
829.52	0.001
829.69	0.002
829.87	0.002
830.04	0.002
830.22	0.001
830.39	0.001
830.57	0.001
830.74	0.001
830.92	0.002
831.09	0.001
831.26	0.000
831.44	0.000
831.61	-0.000
831.79	-0.000
831.96	-0.001
832.14	0.001
832.31	0.001
832.49	0.003
832.66	0.002
832.83	0.002
833.01	0.003
833.18	0.003
833.36	0.002
833.53	0.003
833.70	0.003
833.88	0.002
834.05	0.001
834.23	0.002
834.40	0.002
834.58	0.002
834.75	0.001
834.92	-0.000
835.10	-0.000
835.27	-0.000
835.45	-0.000
835.62	-0.002
835.79	-0.004
835.97	-0.004
836.14	-0.006
836.32	-0.006
836.49	-0.006
836.66	-0.006
836.84	-0.005
837.01	-0.005
837.18	-0.004
837.36	-0.006
837.53	-0.004
837.71	-0.002
837.88	-0.003
838.05	-0.001
838.23	-0.001
838.40	-0.001
838.58	-0.002
838.75	0.000
838.92	-0.001
839.10	-0.002
839.27	-0.000
839.44	0.000
839.62	0.002
839.79	0.004
839.96	0.004
840.14	0.006
840.31	0.005
840.48	0.005
840.66	0.003
840.83	0.004
841.01	0.005
841.18	0.006
841.35	0.005
841.53	0.004
841.70	0.003
841.87	0.002
842.05	-0.001
842.22	0.000
842.39	-0.000
842.57	0.000
842.74	0.000
842.91	-0.001
843.09	-0.002
843.26	-0.004
843.43	-0.003
843.60	-0.001
843.78	-0.000
843.95	0.002
844.12	0.001
844.30	0.002
844.47	0.004
844.64	0.002
844.82	0.004
844.99	0.006
845.16	0.006
845.34	0.006
845.51	0.004
845.68	0.004
845.85	0.005
846.03	0.006
846.20	0.005
846.37	0.004
846.55	0.003
846.72	0.003
846.89	0.000
847.06	0.002
847.24	0.001
847.41	0.002
847.58	0.001
847.76	-0.000
847.93	0.000
848.10	-0.000
848.27	-0.002
848.45	-0.000
848.62	0.000
848.79	0.001
848.97	-0.003
849.14	-0.004
849.31	-0.002
849.48	-0.001
849.66	-0.004
849.83	-0.005
850.00	-0.004
850.17	-0.001
850.35	0.000
850.52	-0.002
850.69	-0.004
850.86	-0.000
851.04	0.001
851.21	-0.003
851.38	-0.001
851.55	0.001
851.72	0.001
851.90	0.002
852.07	0.001
852.24	-0.001
852.41	0.001
852.59	0.004
852.76	0.004
852.93	0.003
853.10	0.004
853.28	0.003
853.45	0.005
853.62	0.006
853.79	0.007
853.96	0.007
854.14	0.009
854.31	0.009
854.48	0.008
854.65	0.006
854.82	0.006
855.00	0.004
855.17	0.001
855.34	0.002
855.51	-0.000
855.68	-0.002
855.86	-0.003
856.03	-0.004
856.20	-0.004
856.37	-0.004
856.54	-0.005
856.72	-0.004
856.89	-0.001
857.06	0.001
857.23	-0.001
857.40	0.002
857.57	-0.001
857.75	0.001
857.92	0.002
858.09	-0.000
858.26	0.001
858.43	0.005
858.60	0.007
858.78	0.004
858.95	0.005
859.12	0.002
859.29	0.001
859.46	0.003
859.63	0.001
859.81	-0.000
859.98	0.005
860.15	0.004
860.32	0.005
860.49	0.003
860.66	0.005
860.83	0.004
861.01	0.008
861.18	0.006
861.35	0.005
861.52	0.008
861.69	0.008
861.86	0.006
862.03	0.005
862.21	0.005
862.38	0.002
862.55	0.003
862.72	0.004
862.89	-0.000
863.06	0.001
863.23	-0.002
863.40	-0.006
863.58	-0.004
863.75	-0.003
863.92	-0.002
864.09	-0.005
864.26	-0.005
864.43	-0.005
864.60	-0.005
864.77	-0.005
864.94	-0.007
865.11	0.000
865.29	-0.001
865.46	-0.005
865.63	-0.009
865.80	-0.009
865.97	-0.007
866.14	-0.006
866.31	-0.004
866.48	-0.004
866.65	-0.007
866.82	-0.001
866.99	-0.006
867.16	-0.002
867.34	-0.001
867.51	0.001
867.68	0.002
867.85	0.001
868.02	0.005
868.19	0.006
868.36	0.004
868.53	0.008
868.70	0.008
868.87	0.010
869.04	0.012
869.21	0.013
869.38	0.012
869.55	0.008
869.72	0.007
869.89	-0.000
870.06	0.002
870.24	-0.000
870.41	-0.000
870.58	-0.002
870.75	-0.003
870.92	-0.005
871.09	-0.007
871.26	-0.006
871.43	-0.004
871.60	-0.002
871.77	0.001
871.94	-0.001
872.11	0.004
872.28	0.006
872.45	0.004
872.62	0.002
872.79	0.002
872.96	-0.005
873.13	-0.005
873.30	-0.005
873.47	-0.004
873.64	-0.004
873.81	-0.007
873.98	-0.007
874.15	-0.010
874.32	-0.007
874.49	-0.007
874.66	-0.006
874.83	0.000
875.00	0.002
875.17	0.004
875.34	0.002
875.51	0.002
875.68	0.004
875.85	-0.003
876.02	-0.001
876.19	-0.003
876.36	0.007
876.53	0.007
876.70	0.008
876.87	0.012
877.04	0.009
877.21	0.006
877.38	0.005
877.55	0.001
877.72	0.006
877.89	0.010
878.06	0.007
878.23	-0.003
878.39	-0.001
878.56	0.002
878.73	0.002
878.90	0.001
879.07	0.002
879.24	0.006
879.41	0.010
879.58	0.007
879.75	0.006
879.92	0.013
880.09	0.017
880.26	0.007
880.43	0.005
880.60	0.002
880.77	-0.006
880.94	-0.001
881.11	-0.003
881.27	-0.005
881.44	-0.003
881.61	-0.007
881.78	-0.010
881.95	-0.010
882.12	-0.009
882.29	-0.003
882.46	0.004
882.63	0.013
882.80	0.011
882.97	0.011
883.14	0.005
883.30	0.004
883.47	0.009
883.64	0.001
883.81	0.000
883.98	-0.003
884.15	-0.006
884.32	-0.016
884.49	-0.014
884.66	-0.011
884.82	-0.006
884.99	-0.001
885.16	-0.003
885.33	-0.000
885.50	0.008
885.67	0.009
885.84	0.009
886.01	0.009
886.17	0.000
886.34	-0.003
886.51	-0.007
886.68	-0.014
886.85	-0.012
887.02	-0.009
887.19	-0.016
887.36	-0.017
887.52	-0.019
887.69	-0.015
887.86	-0.011
888.03	-0.005
888.20	0.002
888.37	-0.005
888.54	-0.007
888.70	-0.009
888.87	-0.008
889.04	0.000
889.21	0.003
889.38	0.011
889.55	0.014
889.71	-0.025
889.88	0.080
890.05	0.038
890.22	0.084
890.39	-0.021
>>>>>End Processed Spectral Data<<<<<
