SpectraSuite Data File
++++++++++++++++++++++++++++++++++++
Date: Mon Jun 15 06:23:11 PDT 2015
User: introlabs
Dark Spectrum Present: Yes
Reference Spectrum Present: Yes
Number of Sampled Component Spectra: 1
Spectrometers: USB4H08886
Integration Time (usec): 44366 (USB4H08886)
Spectra Averaged: 20 (USB4H08886)
Boxcar Smoothing: 5 (USB4H08886)
Correct for Electrical Dark: Yes (USB4H08886)
Strobe/Lamp Enabled: No (USB4H08886)
Correct for Detector Non-linearity: Yes (USB4H08886)
Correct for Stray Light: Yes (USB4H08886)
Number of Pixels in Processed Spectrum: 3648
>>>>>Begin Processed Spectral Data<<<<<
178.14	-0.143
178.36	-0.143
178.57	-0.143
178.79	-0.000
179.01	-0.309
179.22	-1.704
179.44	-0.712
179.65	0.547
179.87	-0.228
180.08	0.031
180.30	-0.162
180.52	-0.401
180.73	-0.207
180.95	-0.159
181.16	-0.022
181.38	-0.001
181.59	0.008
181.81	0.022
182.03	0.003
182.24	0.014
182.46	0.015
182.67	0.015
182.89	0.007
183.10	-0.004
183.32	0.001
183.54	-0.006
183.75	-0.016
183.97	-0.015
184.18	-0.014
184.40	0.000
184.61	0.001
184.83	0.002
185.04	-0.002
185.26	0.007
185.48	0.012
185.69	0.016
185.91	0.017
186.12	0.022
186.34	0.025
186.55	0.011
186.77	0.006
186.98	-0.003
187.20	-0.012
187.42	-0.017
187.63	-0.028
187.85	-0.034
188.06	-0.043
188.28	-0.042
188.49	-0.037
188.71	-0.046
188.92	-0.039
189.14	-0.042
189.36	-0.023
189.57	-0.024
189.79	-0.014
190.00	-0.011
190.22	-0.003
190.43	-0.001
190.65	-0.003
190.86	-0.004
191.08	-0.001
191.29	-0.008
191.51	-0.005
191.72	-0.016
191.94	-0.010
192.16	-0.013
192.37	-0.010
192.59	-0.011
192.80	-0.009
193.02	-0.008
193.23	-0.004
193.45	-0.003
193.66	0.006
193.88	0.011
194.09	0.017
194.31	0.014
194.52	0.017
194.74	0.018
194.95	0.016
195.17	0.015
195.38	0.027
195.60	0.032
195.81	0.022
196.03	0.018
196.25	0.025
196.46	0.009
196.68	0.009
196.89	0.004
197.11	0.005
197.32	0.006
197.54	0.009
197.75	0.000
197.97	-0.000
198.18	0.002
198.40	0.004
198.61	-0.011
198.83	-0.008
199.04	-0.008
199.26	-0.009
199.47	-0.008
199.69	-0.008
199.90	-0.009
200.12	-0.007
200.33	-0.018
200.55	-0.020
200.76	-0.026
200.98	-0.017
201.19	-0.001
201.41	-0.003
201.62	-0.003
201.84	-0.009
202.05	-0.017
202.27	-0.030
202.48	-0.035
202.70	-0.024
202.91	-0.023
203.13	-0.008
203.34	-0.017
203.56	-0.023
203.77	-0.021
203.99	-0.022
204.20	-0.017
204.42	-0.006
204.63	0.009
204.85	0.004
205.06	-0.010
205.28	-0.005
205.49	-0.010
205.71	-0.002
205.92	-0.001
206.14	-0.002
206.35	0.005
206.56	0.002
206.78	0.004
206.99	-0.000
207.21	0.007
207.42	0.013
207.64	0.007
207.85	0.006
208.07	0.005
208.28	-0.003
208.50	-0.004
208.71	-0.010
208.93	-0.014
209.14	-0.025
209.36	-0.024
209.57	-0.026
209.79	-0.023
210.00	-0.022
210.22	-0.022
210.43	-0.019
210.64	-0.015
210.86	-0.017
211.07	-0.015
211.29	-0.013
211.50	-0.007
211.72	-0.007
211.93	-0.004
212.15	-0.011
212.36	-0.001
212.58	-0.000
212.79	-0.004
213.01	-0.007
213.22	-0.003
213.43	-0.003
213.65	-0.001
213.86	-0.007
214.08	-0.015
214.29	-0.021
214.51	-0.019
214.72	-0.029
214.94	-0.026
215.15	-0.029
215.36	-0.029
215.58	-0.029
215.79	-0.029
216.01	-0.036
216.22	-0.029
216.44	-0.028
216.65	-0.015
216.87	-0.007
217.08	-0.008
217.29	-0.008
217.51	-0.006
217.72	-0.007
217.94	-0.005
218.15	-0.004
218.37	-0.003
218.58	-0.006
218.80	-0.001
219.01	-0.013
219.22	-0.018
219.44	-0.016
219.65	-0.023
219.87	-0.028
220.08	-0.018
220.30	-0.022
220.51	-0.023
220.72	-0.015
220.94	-0.015
221.15	-0.012
221.37	-0.006
221.58	-0.003
221.79	-0.001
222.01	0.004
222.22	0.007
222.44	-0.009
222.65	0.001
222.87	-0.003
223.08	-0.008
223.29	-0.011
223.51	-0.020
223.72	-0.024
223.94	-0.031
224.15	-0.035
224.36	-0.035
224.58	-0.035
224.79	-0.023
225.01	-0.033
225.22	-0.031
225.44	-0.032
225.65	-0.030
225.86	-0.028
226.08	-0.025
226.29	-0.025
226.51	-0.025
226.72	-0.027
226.93	-0.026
227.15	-0.035
227.36	-0.030
227.58	-0.028
227.79	-0.028
228.00	-0.028
228.22	-0.031
228.43	-0.034
228.65	-0.032
228.86	-0.030
229.07	-0.034
229.29	-0.037
229.50	-0.038
229.72	-0.047
229.93	-0.047
230.14	-0.047
230.36	-0.047
230.57	-0.046
230.78	-0.042
231.00	-0.046
231.21	-0.048
231.43	-0.043
231.64	-0.040
231.85	-0.041
232.07	-0.037
232.28	-0.040
232.50	-0.040
232.71	-0.040
232.92	-0.041
233.14	-0.043
233.35	-0.045
233.56	-0.044
233.78	-0.047
233.99	-0.049
234.21	-0.046
234.42	-0.045
234.63	-0.046
234.85	-0.047
235.06	-0.049
235.27	-0.049
235.49	-0.049
235.70	-0.048
235.91	-0.048
236.13	-0.050
236.34	-0.049
236.56	-0.052
236.77	-0.052
236.98	-0.053
237.20	-0.054
237.41	-0.052
237.62	-0.052
237.84	-0.052
238.05	-0.053
238.26	-0.051
238.48	-0.052
238.69	-0.051
238.91	-0.051
239.12	-0.049
239.33	-0.048
239.55	-0.046
239.76	-0.046
239.97	-0.045
240.19	-0.044
240.40	-0.043
240.61	-0.044
240.83	-0.041
241.04	-0.040
241.25	-0.040
241.47	-0.041
241.68	-0.041
241.89	-0.040
242.11	-0.041
242.32	-0.040
242.53	-0.041
242.75	-0.040
242.96	-0.039
243.17	-0.040
243.39	-0.039
243.60	-0.039
243.81	-0.038
244.03	-0.037
244.24	-0.037
244.45	-0.037
244.67	-0.036
244.88	-0.036
245.09	-0.036
245.31	-0.035
245.52	-0.035
245.73	-0.034
245.95	-0.034
246.16	-0.033
246.37	-0.033
246.59	-0.033
246.80	-0.032
247.01	-0.032
247.23	-0.031
247.44	-0.031
247.65	-0.031
247.87	-0.031
248.08	-0.032
248.29	-0.031
248.51	-0.031
248.72	-0.031
248.93	-0.030
249.15	-0.030
249.36	-0.030
249.57	-0.030
249.78	-0.029
250.00	-0.029
250.21	-0.028
250.42	-0.028
250.64	-0.028
250.85	-0.028
251.06	-0.027
251.28	-0.027
251.49	-0.027
251.70	-0.027
251.92	-0.026
252.13	-0.026
252.34	-0.026
252.55	-0.026
252.77	-0.025
252.98	-0.026
253.19	-0.025
253.41	-0.025
253.62	-0.025
253.83	-0.025
254.05	-0.025
254.26	-0.025
254.47	-0.025
254.68	-0.025
254.90	-0.025
255.11	-0.025
255.32	-0.025
255.54	-0.025
255.75	-0.025
255.96	-0.024
256.17	-0.023
256.39	-0.023
256.60	-0.023
256.81	-0.023
257.03	-0.023
257.24	-0.023
257.45	-0.023
257.66	-0.023
257.88	-0.023
258.09	-0.023
258.30	-0.022
258.51	-0.023
258.73	-0.023
258.94	-0.023
259.15	-0.023
259.37	-0.022
259.58	-0.022
259.79	-0.022
260.00	-0.022
260.22	-0.022
260.43	-0.022
260.64	-0.023
260.85	-0.023
261.07	-0.023
261.28	-0.023
261.49	-0.023
261.71	-0.023
261.92	-0.023
262.13	-0.023
262.34	-0.023
262.56	-0.023
262.77	-0.023
262.98	-0.022
263.19	-0.022
263.41	-0.022
263.62	-0.023
263.83	-0.023
264.04	-0.023
264.26	-0.024
264.47	-0.023
264.68	-0.024
264.89	-0.024
265.11	-0.024
265.32	-0.024
265.53	-0.024
265.74	-0.024
265.96	-0.024
266.17	-0.025
266.38	-0.025
266.59	-0.025
266.81	-0.025
267.02	-0.025
267.23	-0.025
267.44	-0.025
267.65	-0.025
267.87	-0.025
268.08	-0.025
268.29	-0.025
268.50	-0.025
268.72	-0.025
268.93	-0.026
269.14	-0.026
269.35	-0.026
269.57	-0.026
269.78	-0.026
269.99	-0.027
270.20	-0.027
270.41	-0.027
270.63	-0.027
270.84	-0.027
271.05	-0.027
271.26	-0.027
271.48	-0.027
271.69	-0.027
271.90	-0.027
272.11	-0.027
272.32	-0.027
272.54	-0.027
272.75	-0.027
272.96	-0.027
273.17	-0.028
273.39	-0.028
273.60	-0.028
273.81	-0.028
274.02	-0.028
274.23	-0.028
274.45	-0.028
274.66	-0.028
274.87	-0.029
275.08	-0.029
275.29	-0.029
275.51	-0.029
275.72	-0.029
275.93	-0.029
276.14	-0.029
276.35	-0.029
276.57	-0.029
276.78	-0.029
276.99	-0.029
277.20	-0.029
277.41	-0.029
277.63	-0.028
277.84	-0.028
278.05	-0.029
278.26	-0.028
278.47	-0.028
278.69	-0.028
278.90	-0.028
279.11	-0.028
279.32	-0.028
279.53	-0.028
279.74	-0.028
279.96	-0.028
280.17	-0.027
280.38	-0.027
280.59	-0.027
280.80	-0.027
281.02	-0.028
281.23	-0.028
281.44	-0.027
281.65	-0.027
281.86	-0.027
282.07	-0.027
282.29	-0.027
282.50	-0.027
282.71	-0.027
282.92	-0.027
283.13	-0.026
283.35	-0.026
283.56	-0.026
283.77	-0.026
283.98	-0.026
284.19	-0.026
284.40	-0.025
284.62	-0.025
284.83	-0.025
285.04	-0.024
285.25	-0.024
285.46	-0.024
285.67	-0.023
285.88	-0.023
286.10	-0.023
286.31	-0.022
286.52	-0.022
286.73	-0.022
286.94	-0.022
287.15	-0.021
287.37	-0.021
287.58	-0.021
287.79	-0.020
288.00	-0.020
288.21	-0.019
288.42	-0.019
288.63	-0.018
288.85	-0.018
289.06	-0.017
289.27	-0.017
289.48	-0.017
289.69	-0.016
289.90	-0.016
290.11	-0.016
290.33	-0.015
290.54	-0.015
290.75	-0.015
290.96	-0.015
291.17	-0.015
291.38	-0.014
291.59	-0.014
291.81	-0.014
292.02	-0.014
292.23	-0.014
292.44	-0.014
292.65	-0.014
292.86	-0.013
293.07	-0.013
293.28	-0.013
293.50	-0.013
293.71	-0.013
293.92	-0.013
294.13	-0.013
294.34	-0.013
294.55	-0.013
294.76	-0.013
294.97	-0.012
295.19	-0.012
295.40	-0.012
295.61	-0.012
295.82	-0.012
296.03	-0.012
296.24	-0.012
296.45	-0.012
296.66	-0.012
296.87	-0.011
297.09	-0.011
297.30	-0.011
297.51	-0.011
297.72	-0.011
297.93	-0.011
298.14	-0.011
298.35	-0.011
298.56	-0.011
298.77	-0.011
298.99	-0.011
299.20	-0.011
299.41	-0.011
299.62	-0.011
299.83	-0.011
300.04	-0.011
300.25	-0.011
300.46	-0.011
300.67	-0.011
300.88	-0.011
301.10	-0.011
301.31	-0.011
301.52	-0.011
301.73	-0.011
301.94	-0.011
302.15	-0.011
302.36	-0.011
302.57	-0.011
302.78	-0.011
302.99	-0.011
303.20	-0.011
303.41	-0.011
303.63	-0.011
303.84	-0.011
304.05	-0.011
304.26	-0.011
304.47	-0.011
304.68	-0.011
304.89	-0.011
305.10	-0.011
305.31	-0.011
305.52	-0.011
305.73	-0.011
305.94	-0.011
306.15	-0.011
306.37	-0.011
306.58	-0.011
306.79	-0.011
307.00	-0.010
307.21	-0.010
307.42	-0.010
307.63	-0.010
307.84	-0.010
308.05	-0.010
308.26	-0.010
308.47	-0.010
308.68	-0.010
308.89	-0.010
309.10	-0.010
309.31	-0.010
309.52	-0.010
309.73	-0.010
309.95	-0.010
310.16	-0.010
310.37	-0.010
310.58	-0.010
310.79	-0.010
311.00	-0.010
311.21	-0.010
311.42	-0.010
311.63	-0.010
311.84	-0.010
312.05	-0.010
312.26	-0.010
312.47	-0.010
312.68	-0.011
312.89	-0.010
313.10	-0.010
313.31	-0.010
313.52	-0.010
313.73	-0.010
313.94	-0.010
314.15	-0.010
314.36	-0.010
314.57	-0.010
314.78	-0.010
314.99	-0.010
315.21	-0.010
315.42	-0.010
315.63	-0.010
315.84	-0.010
316.05	-0.010
316.26	-0.010
316.47	-0.010
316.68	-0.010
316.89	-0.010
317.10	-0.010
317.31	-0.010
317.52	-0.010
317.73	-0.010
317.94	-0.010
318.15	-0.010
318.36	-0.010
318.57	-0.010
318.78	-0.010
318.99	-0.010
319.20	-0.010
319.41	-0.010
319.62	-0.010
319.83	-0.010
320.04	-0.010
320.25	-0.010
320.46	-0.010
320.67	-0.010
320.88	-0.010
321.09	-0.010
321.30	-0.010
321.51	-0.010
321.72	-0.010
321.93	-0.010
322.14	-0.010
322.35	-0.010
322.56	-0.010
322.77	-0.010
322.98	-0.010
323.19	-0.010
323.40	-0.010
323.61	-0.010
323.82	-0.009
324.03	-0.009
324.24	-0.009
324.45	-0.009
324.66	-0.009
324.87	-0.009
325.08	-0.009
325.29	-0.009
325.50	-0.009
325.71	-0.009
325.92	-0.009
326.13	-0.009
326.34	-0.009
326.55	-0.009
326.76	-0.009
326.97	-0.009
327.18	-0.009
327.39	-0.009
327.60	-0.009
327.80	-0.009
328.01	-0.009
328.22	-0.009
328.43	-0.009
328.64	-0.009
328.85	-0.009
329.06	-0.009
329.27	-0.008
329.48	-0.008
329.69	-0.008
329.90	-0.008
330.11	-0.008
330.32	-0.008
330.53	-0.008
330.74	-0.008
330.95	-0.008
331.16	-0.008
331.37	-0.008
331.58	-0.008
331.79	-0.008
332.00	-0.008
332.21	-0.008
332.42	-0.008
332.63	-0.008
332.83	-0.008
333.04	-0.008
333.25	-0.008
333.46	-0.008
333.67	-0.008
333.88	-0.008
334.09	-0.008
334.30	-0.008
334.51	-0.008
334.72	-0.008
334.93	-0.008
335.14	-0.008
335.35	-0.008
335.56	-0.008
335.77	-0.008
335.98	-0.008
336.18	-0.008
336.39	-0.008
336.60	-0.008
336.81	-0.008
337.02	-0.008
337.23	-0.008
337.44	-0.008
337.65	-0.008
337.86	-0.008
338.07	-0.008
338.28	-0.008
338.49	-0.008
338.70	-0.008
338.91	-0.008
339.11	-0.008
339.32	-0.008
339.53	-0.008
339.74	-0.008
339.95	-0.008
340.16	-0.008
340.37	-0.008
340.58	-0.008
340.79	-0.008
341.00	-0.008
341.21	-0.008
341.41	-0.008
341.62	-0.008
341.83	-0.008
342.04	-0.008
342.25	-0.008
342.46	-0.008
342.67	-0.008
342.88	-0.008
343.09	-0.008
343.30	-0.008
343.50	-0.007
343.71	-0.007
343.92	-0.008
344.13	-0.007
344.34	-0.007
344.55	-0.007
344.76	-0.008
344.97	-0.007
345.18	-0.007
345.38	-0.007
345.59	-0.007
345.80	-0.008
346.01	-0.007
346.22	-0.007
346.43	-0.008
346.64	-0.008
346.85	-0.007
347.06	-0.007
347.26	-0.007
347.47	-0.008
347.68	-0.008
347.89	-0.008
348.10	-0.008
348.31	-0.007
348.52	-0.008
348.73	-0.007
348.93	-0.008
349.14	-0.008
349.35	-0.008
349.56	-0.008
349.77	-0.007
349.98	-0.007
350.19	-0.007
350.39	-0.007
350.60	-0.007
350.81	-0.007
351.02	-0.007
351.23	-0.007
351.44	-0.007
351.65	-0.007
351.86	-0.007
352.06	-0.007
352.27	-0.007
352.48	-0.007
352.69	-0.007
352.90	-0.007
353.11	-0.007
353.31	-0.007
353.52	-0.007
353.73	-0.007
353.94	-0.006
354.15	-0.006
354.36	-0.007
354.57	-0.006
354.77	-0.006
354.98	-0.006
355.19	-0.006
355.40	-0.007
355.61	-0.007
355.82	-0.007
356.02	-0.007
356.23	-0.007
356.44	-0.006
356.65	-0.006
356.86	-0.006
357.07	-0.006
357.27	-0.006
357.48	-0.006
357.69	-0.006
357.90	-0.006
358.11	-0.006
358.32	-0.006
358.52	-0.006
358.73	-0.006
358.94	-0.006
359.15	-0.006
359.36	-0.006
359.56	-0.006
359.77	-0.006
359.98	-0.006
360.19	-0.006
360.40	-0.006
360.61	-0.006
360.81	-0.006
361.02	-0.006
361.23	-0.006
361.44	-0.006
361.65	-0.006
361.85	-0.006
362.06	-0.006
362.27	-0.006
362.48	-0.006
362.69	-0.006
362.89	-0.006
363.10	-0.006
363.31	-0.006
363.52	-0.006
363.73	-0.006
363.93	-0.006
364.14	-0.006
364.35	-0.006
364.56	-0.006
364.77	-0.006
364.97	-0.006
365.18	-0.006
365.39	-0.006
365.60	-0.006
365.81	-0.006
366.01	-0.006
366.22	-0.006
366.43	-0.006
366.64	-0.006
366.84	-0.006
367.05	-0.006
367.26	-0.006
367.47	-0.006
367.68	-0.006
367.88	-0.006
368.09	-0.006
368.30	-0.006
368.51	-0.006
368.71	-0.006
368.92	-0.006
369.13	-0.006
369.34	-0.006
369.55	-0.006
369.75	-0.006
369.96	-0.006
370.17	-0.006
370.38	-0.006
370.58	-0.006
370.79	-0.006
371.00	-0.006
371.21	-0.005
371.41	-0.005
371.62	-0.005
371.83	-0.005
372.04	-0.005
372.24	-0.005
372.45	-0.005
372.66	-0.005
372.87	-0.005
373.07	-0.005
373.28	-0.006
373.49	-0.006
373.70	-0.006
373.90	-0.006
374.11	-0.006
374.32	-0.006
374.53	-0.006
374.73	-0.006
374.94	-0.006
375.15	-0.006
375.36	-0.006
375.56	-0.006
375.77	-0.006
375.98	-0.006
376.19	-0.006
376.39	-0.006
376.60	-0.006
376.81	-0.006
377.02	-0.006
377.22	-0.006
377.43	-0.006
377.64	-0.006
377.84	-0.006
378.05	-0.005
378.26	-0.005
378.47	-0.005
378.67	-0.005
378.88	-0.005
379.09	-0.005
379.30	-0.005
379.50	-0.005
379.71	-0.005
379.92	-0.005
380.12	-0.005
380.33	-0.005
380.54	-0.005
380.75	-0.005
380.95	-0.005
381.16	-0.005
381.37	-0.005
381.57	-0.005
381.78	-0.005
381.99	-0.005
382.20	-0.005
382.40	-0.005
382.61	-0.005
382.82	-0.005
383.02	-0.005
383.23	-0.005
383.44	-0.005
383.64	-0.005
383.85	-0.005
384.06	-0.005
384.27	-0.005
384.47	-0.005
384.68	-0.005
384.89	-0.005
385.09	-0.005
385.30	-0.005
385.51	-0.005
385.71	-0.005
385.92	-0.005
386.13	-0.005
386.33	-0.005
386.54	-0.005
386.75	-0.005
386.95	-0.005
387.16	-0.005
387.37	-0.005
387.58	-0.005
387.78	-0.005
387.99	-0.005
388.20	-0.005
388.40	-0.005
388.61	-0.005
388.82	-0.005
389.02	-0.005
389.23	-0.005
389.44	-0.005
389.64	-0.005
389.85	-0.005
390.06	-0.005
390.26	-0.005
390.47	-0.005
390.68	-0.005
390.88	-0.005
391.09	-0.005
391.30	-0.005
391.50	-0.005
391.71	-0.005
391.92	-0.005
392.12	-0.005
392.33	-0.005
392.53	-0.005
392.74	-0.005
392.95	-0.005
393.15	-0.005
393.36	-0.005
393.57	-0.005
393.77	-0.005
393.98	-0.005
394.19	-0.005
394.39	-0.005
394.60	-0.005
394.81	-0.005
395.01	-0.005
395.22	-0.005
395.43	-0.004
395.63	-0.004
395.84	-0.005
396.04	-0.005
396.25	-0.005
396.46	-0.005
396.66	-0.005
396.87	-0.005
397.08	-0.005
397.28	-0.005
397.49	-0.005
397.69	-0.005
397.90	-0.005
398.11	-0.005
398.31	-0.004
398.52	-0.005
398.73	-0.004
398.93	-0.004
399.14	-0.004
399.34	-0.004
399.55	-0.004
399.76	-0.004
399.96	-0.004
400.17	-0.004
400.37	-0.004
400.58	-0.004
400.79	-0.004
400.99	-0.004
401.20	-0.004
401.41	-0.004
401.61	-0.004
401.82	-0.004
402.02	-0.004
402.23	-0.004
402.44	-0.004
402.64	-0.004
402.85	-0.004
403.05	-0.004
403.26	-0.004
403.47	-0.004
403.67	-0.004
403.88	-0.004
404.08	-0.004
404.29	-0.004
404.50	-0.004
404.70	-0.004
404.91	-0.005
405.11	-0.004
405.32	-0.005
405.52	-0.005
405.73	-0.005
405.94	-0.005
406.14	-0.005
406.35	-0.005
406.55	-0.005
406.76	-0.005
406.97	-0.005
407.17	-0.005
407.38	-0.005
407.58	-0.005
407.79	-0.005
407.99	-0.004
408.20	-0.004
408.41	-0.004
408.61	-0.004
408.82	-0.004
409.02	-0.004
409.23	-0.004
409.43	-0.004
409.64	-0.004
409.84	-0.004
410.05	-0.004
410.26	-0.004
410.46	-0.004
410.67	-0.004
410.87	-0.004
411.08	-0.004
411.28	-0.004
411.49	-0.004
411.69	-0.004
411.90	-0.004
412.11	-0.004
412.31	-0.004
412.52	-0.004
412.72	-0.004
412.93	-0.004
413.13	-0.004
413.34	-0.004
413.54	-0.004
413.75	-0.004
413.95	-0.004
414.16	-0.004
414.37	-0.004
414.57	-0.004
414.78	-0.004
414.98	-0.004
415.19	-0.004
415.39	-0.004
415.60	-0.004
415.80	-0.004
416.01	-0.004
416.21	-0.004
416.42	-0.004
416.62	-0.004
416.83	-0.004
417.03	-0.004
417.24	-0.004
417.44	-0.004
417.65	-0.004
417.86	-0.004
418.06	-0.004
418.27	-0.004
418.47	-0.004
418.68	-0.004
418.88	-0.004
419.09	-0.004
419.29	-0.004
419.50	-0.004
419.70	-0.004
419.91	-0.004
420.11	-0.004
420.32	-0.004
420.52	-0.004
420.73	-0.004
420.93	-0.004
421.14	-0.004
421.34	-0.004
421.55	-0.004
421.75	-0.004
421.96	-0.004
422.16	-0.004
422.37	-0.004
422.57	-0.004
422.78	-0.004
422.98	-0.004
423.19	-0.004
423.39	-0.004
423.60	-0.004
423.80	-0.004
424.01	-0.004
424.21	-0.004
424.42	-0.004
424.62	-0.004
424.83	-0.004
425.03	-0.004
425.23	-0.003
425.44	-0.003
425.64	-0.004
425.85	-0.004
426.05	-0.004
426.26	-0.004
426.46	-0.004
426.67	-0.004
426.87	-0.004
427.08	-0.004
427.28	-0.004
427.49	-0.004
427.69	-0.004
427.90	-0.004
428.10	-0.004
428.31	-0.004
428.51	-0.004
428.71	-0.004
428.92	-0.004
429.12	-0.004
429.33	-0.004
429.53	-0.004
429.74	-0.004
429.94	-0.004
430.15	-0.004
430.35	-0.004
430.56	-0.004
430.76	-0.004
430.96	-0.004
431.17	-0.004
431.37	-0.004
431.58	-0.004
431.78	-0.004
431.99	-0.004
432.19	-0.004
432.40	-0.004
432.60	-0.004
432.80	-0.004
433.01	-0.004
433.21	-0.004
433.42	-0.004
433.62	-0.004
433.83	-0.004
434.03	-0.004
434.23	-0.004
434.44	-0.004
434.64	-0.004
434.85	-0.004
435.05	-0.004
435.26	-0.004
435.46	-0.004
435.66	-0.004
435.87	-0.004
436.07	-0.004
436.28	-0.004
436.48	-0.004
436.69	-0.004
436.89	-0.004
437.09	-0.004
437.30	-0.004
437.50	-0.004
437.71	-0.004
437.91	-0.004
438.11	-0.004
438.32	-0.004
438.52	-0.004
438.73	-0.004
438.93	-0.004
439.13	-0.004
439.34	-0.004
439.54	-0.004
439.75	-0.004
439.95	-0.004
440.15	-0.004
440.36	-0.004
440.56	-0.004
440.77	-0.004
440.97	-0.004
441.17	-0.004
441.38	-0.004
441.58	-0.004
441.79	-0.004
441.99	-0.004
442.19	-0.004
442.40	-0.004
442.60	-0.004
442.81	-0.004
443.01	-0.004
443.21	-0.004
443.42	-0.004
443.62	-0.004
443.82	-0.004
444.03	-0.004
444.23	-0.004
444.44	-0.004
444.64	-0.004
444.84	-0.004
445.05	-0.004
445.25	-0.004
445.45	-0.004
445.66	-0.004
445.86	-0.004
446.06	-0.004
446.27	-0.004
446.47	-0.004
446.68	-0.004
446.88	-0.004
447.08	-0.004
447.29	-0.004
447.49	-0.004
447.69	-0.004
447.90	-0.004
448.10	-0.004
448.30	-0.004
448.51	-0.004
448.71	-0.004
448.91	-0.004
449.12	-0.004
449.32	-0.004
449.52	-0.004
449.73	-0.004
449.93	-0.004
450.14	-0.004
450.34	-0.004
450.54	-0.003
450.75	-0.004
450.95	-0.004
451.15	-0.004
451.36	-0.003
451.56	-0.003
451.76	-0.003
451.97	-0.003
452.17	-0.003
452.37	-0.003
452.58	-0.003
452.78	-0.003
452.98	-0.003
453.19	-0.003
453.39	-0.004
453.59	-0.004
453.79	-0.003
454.00	-0.003
454.20	-0.003
454.40	-0.004
454.61	-0.004
454.81	-0.004
455.01	-0.004
455.22	-0.004
455.42	-0.004
455.62	-0.004
455.83	-0.004
456.03	-0.004
456.23	-0.004
456.44	-0.004
456.64	-0.004
456.84	-0.004
457.04	-0.003
457.25	-0.004
457.45	-0.004
457.65	-0.004
457.86	-0.004
458.06	-0.003
458.26	-0.003
458.47	-0.003
458.67	-0.003
458.87	-0.003
459.07	-0.003
459.28	-0.003
459.48	-0.003
459.68	-0.003
459.89	-0.003
460.09	-0.003
460.29	-0.003
460.49	-0.003
460.70	-0.003
460.90	-0.003
461.10	-0.003
461.31	-0.003
461.51	-0.003
461.71	-0.003
461.91	-0.003
462.12	-0.003
462.32	-0.003
462.52	-0.003
462.72	-0.004
462.93	-0.004
463.13	-0.004
463.33	-0.003
463.53	-0.004
463.74	-0.004
463.94	-0.003
464.14	-0.004
464.35	-0.004
464.55	-0.003
464.75	-0.003
464.95	-0.003
465.16	-0.003
465.36	-0.003
465.56	-0.004
465.76	-0.004
465.97	-0.003
466.17	-0.003
466.37	-0.003
466.57	-0.003
466.78	-0.003
466.98	-0.003
467.18	-0.003
467.38	-0.003
467.59	-0.003
467.79	-0.003
467.99	-0.003
468.19	-0.003
468.39	-0.003
468.60	-0.003
468.80	-0.003
469.00	-0.004
469.20	-0.003
469.41	-0.004
469.61	-0.004
469.81	-0.004
470.01	-0.004
470.22	-0.004
470.42	-0.004
470.62	-0.004
470.82	-0.004
471.02	-0.004
471.23	-0.004
471.43	-0.004
471.63	-0.004
471.83	-0.004
472.04	-0.004
472.24	-0.004
472.44	-0.004
472.64	-0.004
472.84	-0.004
473.05	-0.004
473.25	-0.004
473.45	-0.003
473.65	-0.004
473.85	-0.004
474.06	-0.004
474.26	-0.004
474.46	-0.004
474.66	-0.004
474.86	-0.004
475.07	-0.004
475.27	-0.003
475.47	-0.003
475.67	-0.003
475.87	-0.003
476.08	-0.003
476.28	-0.003
476.48	-0.003
476.68	-0.003
476.88	-0.003
477.09	-0.003
477.29	-0.003
477.49	-0.003
477.69	-0.003
477.89	-0.003
478.09	-0.003
478.30	-0.003
478.50	-0.003
478.70	-0.003
478.90	-0.003
479.10	-0.003
479.31	-0.003
479.51	-0.003
479.71	-0.003
479.91	-0.003
480.11	-0.003
480.31	-0.003
480.52	-0.003
480.72	-0.003
480.92	-0.003
481.12	-0.004
481.32	-0.004
481.52	-0.003
481.72	-0.003
481.93	-0.003
482.13	-0.003
482.33	-0.003
482.53	-0.003
482.73	-0.003
482.93	-0.003
483.14	-0.003
483.34	-0.003
483.54	-0.003
483.74	-0.003
483.94	-0.003
484.14	-0.003
484.34	-0.003
484.55	-0.003
484.75	-0.003
484.95	-0.003
485.15	-0.003
485.35	-0.003
485.55	-0.003
485.75	-0.003
485.96	-0.003
486.16	-0.003
486.36	-0.003
486.56	-0.003
486.76	-0.003
486.96	-0.003
487.16	-0.003
487.36	-0.003
487.57	-0.003
487.77	-0.003
487.97	-0.003
488.17	-0.003
488.37	-0.003
488.57	-0.003
488.77	-0.003
488.97	-0.003
489.18	-0.003
489.38	-0.003
489.58	-0.003
489.78	-0.003
489.98	-0.003
490.18	-0.003
490.38	-0.003
490.58	-0.003
490.78	-0.003
490.98	-0.003
491.19	-0.003
491.39	-0.003
491.59	-0.003
491.79	-0.003
491.99	-0.003
492.19	-0.003
492.39	-0.003
492.59	-0.003
492.79	-0.003
492.99	-0.003
493.20	-0.003
493.40	-0.003
493.60	-0.003
493.80	-0.003
494.00	-0.003
494.20	-0.003
494.40	-0.003
494.60	-0.003
494.80	-0.003
495.00	-0.003
495.20	-0.003
495.40	-0.003
495.61	-0.003
495.81	-0.003
496.01	-0.003
496.21	-0.003
496.41	-0.003
496.61	-0.003
496.81	-0.003
497.01	-0.003
497.21	-0.003
497.41	-0.003
497.61	-0.003
497.81	-0.003
498.01	-0.003
498.21	-0.003
498.41	-0.003
498.61	-0.003
498.82	-0.003
499.02	-0.003
499.22	-0.003
499.42	-0.003
499.62	-0.003
499.82	-0.003
500.02	-0.003
500.22	-0.003
500.42	-0.003
500.62	-0.003
500.82	-0.003
501.02	-0.003
501.22	-0.003
501.42	-0.003
501.62	-0.003
501.82	-0.003
502.02	-0.003
502.22	-0.003
502.42	-0.003
502.62	-0.003
502.82	-0.003
503.02	-0.003
503.22	-0.003
503.42	-0.003
503.63	-0.003
503.83	-0.003
504.03	-0.003
504.23	-0.003
504.43	-0.003
504.63	-0.003
504.83	-0.003
505.03	-0.003
505.23	-0.003
505.43	-0.003
505.63	-0.003
505.83	-0.003
506.03	-0.003
506.23	-0.003
506.43	-0.003
506.63	-0.003
506.83	-0.003
507.03	-0.003
507.23	-0.003
507.43	-0.003
507.63	-0.003
507.83	-0.003
508.03	-0.003
508.23	-0.003
508.43	-0.003
508.63	-0.003
508.83	-0.003
509.03	-0.003
509.23	-0.003
509.43	-0.003
509.63	-0.003
509.83	-0.003
510.03	-0.003
510.23	-0.003
510.43	-0.003
510.63	-0.003
510.83	-0.003
511.03	-0.003
511.23	-0.003
511.43	-0.003
511.63	-0.003
511.83	-0.003
512.03	-0.002
512.22	-0.002
512.42	-0.002
512.62	-0.002
512.82	-0.002
513.02	-0.002
513.22	-0.002
513.42	-0.002
513.62	-0.002
513.82	-0.002
514.02	-0.002
514.22	-0.002
514.42	-0.003
514.62	-0.003
514.82	-0.003
515.02	-0.003
515.22	-0.003
515.42	-0.003
515.62	-0.002
515.82	-0.002
516.02	-0.002
516.22	-0.002
516.42	-0.003
516.62	-0.003
516.82	-0.003
517.01	-0.003
517.21	-0.003
517.41	-0.003
517.61	-0.003
517.81	-0.003
518.01	-0.003
518.21	-0.003
518.41	-0.003
518.61	-0.003
518.81	-0.003
519.01	-0.003
519.21	-0.003
519.41	-0.002
519.61	-0.002
519.81	-0.003
520.00	-0.002
520.20	-0.003
520.40	-0.003
520.60	-0.003
520.80	-0.003
521.00	-0.003
521.20	-0.003
521.40	-0.003
521.60	-0.003
521.80	-0.003
522.00	-0.003
522.20	-0.003
522.39	-0.003
522.59	-0.003
522.79	-0.002
522.99	-0.002
523.19	-0.002
523.39	-0.002
523.59	-0.002
523.79	-0.002
523.99	-0.002
524.19	-0.002
524.38	-0.002
524.58	-0.002
524.78	-0.002
524.98	-0.002
525.18	-0.002
525.38	-0.002
525.58	-0.002
525.78	-0.002
525.98	-0.002
526.18	-0.002
526.37	-0.002
526.57	-0.002
526.77	-0.002
526.97	-0.002
527.17	-0.003
527.37	-0.003
527.57	-0.002
527.77	-0.002
527.96	-0.003
528.16	-0.003
528.36	-0.003
528.56	-0.003
528.76	-0.003
528.96	-0.003
529.16	-0.003
529.36	-0.003
529.55	-0.003
529.75	-0.003
529.95	-0.003
530.15	-0.002
530.35	-0.002
530.55	-0.002
530.75	-0.002
530.94	-0.002
531.14	-0.002
531.34	-0.002
531.54	-0.002
531.74	-0.002
531.94	-0.002
532.13	-0.002
532.33	-0.002
532.53	-0.002
532.73	-0.002
532.93	-0.002
533.13	-0.002
533.33	-0.002
533.52	-0.002
533.72	-0.002
533.92	-0.002
534.12	-0.002
534.32	-0.002
534.52	-0.002
534.71	-0.002
534.91	-0.002
535.11	-0.002
535.31	-0.002
535.51	-0.002
535.71	-0.002
535.90	-0.002
536.10	-0.002
536.30	-0.002
536.50	-0.002
536.70	-0.002
536.89	-0.002
537.09	-0.002
537.29	-0.002
537.49	-0.002
537.69	-0.002
537.89	-0.002
538.08	-0.002
538.28	-0.002
538.48	-0.002
538.68	-0.002
538.88	-0.002
539.07	-0.002
539.27	-0.002
539.47	-0.002
539.67	-0.002
539.87	-0.002
540.06	-0.002
540.26	-0.002
540.46	-0.002
540.66	-0.002
540.86	-0.002
541.05	-0.002
541.25	-0.002
541.45	-0.002
541.65	-0.002
541.84	-0.002
542.04	-0.002
542.24	-0.002
542.44	-0.002
542.64	-0.002
542.83	-0.002
543.03	-0.002
543.23	-0.002
543.43	-0.002
543.62	-0.002
543.82	-0.002
544.02	-0.002
544.22	-0.002
544.42	-0.002
544.61	-0.002
544.81	-0.002
545.01	-0.002
545.21	-0.002
545.40	-0.002
545.60	-0.002
545.80	-0.002
546.00	-0.002
546.19	-0.002
546.39	-0.002
546.59	-0.002
546.79	-0.002
546.98	-0.002
547.18	-0.002
547.38	-0.002
547.58	-0.002
547.77	-0.002
547.97	-0.002
548.17	-0.002
548.37	-0.002
548.56	-0.002
548.76	-0.002
548.96	-0.002
549.16	-0.002
549.35	-0.002
549.55	-0.002
549.75	-0.002
549.95	-0.002
550.14	-0.002
550.34	-0.002
550.54	-0.002
550.73	-0.002
550.93	-0.002
551.13	-0.002
551.33	-0.002
551.52	-0.002
551.72	-0.002
551.92	-0.002
552.12	-0.002
552.31	-0.002
552.51	-0.002
552.71	-0.002
552.90	-0.002
553.10	-0.002
553.30	-0.002
553.50	-0.002
553.69	-0.002
553.89	-0.002
554.09	-0.002
554.28	-0.002
554.48	-0.002
554.68	-0.002
554.87	-0.002
555.07	-0.002
555.27	-0.002
555.47	-0.002
555.66	-0.002
555.86	-0.002
556.06	-0.002
556.25	-0.002
556.45	-0.002
556.65	-0.002
556.84	-0.002
557.04	-0.002
557.24	-0.002
557.43	-0.002
557.63	-0.002
557.83	-0.002
558.02	-0.002
558.22	-0.002
558.42	-0.002
558.61	-0.002
558.81	-0.002
559.01	-0.002
559.21	-0.002
559.40	-0.002
559.60	-0.002
559.80	-0.002
559.99	-0.002
560.19	-0.002
560.39	-0.002
560.58	-0.002
560.78	-0.002
560.97	-0.002
561.17	-0.002
561.37	-0.002
561.56	-0.002
561.76	-0.002
561.96	-0.002
562.15	-0.002
562.35	-0.002
562.55	-0.002
562.74	-0.002
562.94	-0.002
563.14	-0.002
563.33	-0.002
563.53	-0.002
563.73	-0.002
563.92	-0.002
564.12	-0.002
564.31	-0.002
564.51	-0.002
564.71	-0.002
564.90	-0.002
565.10	-0.002
565.30	-0.002
565.49	-0.002
565.69	-0.002
565.89	-0.002
566.08	-0.002
566.28	-0.002
566.47	-0.002
566.67	-0.002
566.87	-0.002
567.06	-0.002
567.26	-0.002
567.46	-0.002
567.65	-0.002
567.85	-0.002
568.04	-0.002
568.24	-0.002
568.44	-0.002
568.63	-0.003
568.83	-0.003
569.02	-0.003
569.22	-0.003
569.42	-0.003
569.61	-0.003
569.81	-0.003
570.00	-0.003
570.20	-0.003
570.40	-0.003
570.59	-0.003
570.79	-0.003
570.98	-0.003
571.18	-0.003
571.38	-0.003
571.57	-0.003
571.77	-0.002
571.96	-0.002
572.16	-0.002
572.35	-0.002
572.55	-0.002
572.75	-0.002
572.94	-0.002
573.14	-0.002
573.33	-0.002
573.53	-0.002
573.73	-0.002
573.92	-0.002
574.12	-0.002
574.31	-0.002
574.51	-0.002
574.70	-0.002
574.90	-0.002
575.09	-0.001
575.29	-0.001
575.49	-0.001
575.68	-0.001
575.88	-0.001
576.07	-0.001
576.27	-0.000
576.46	-0.000
576.66	-0.000
576.86	-0.000
577.05	-0.000
577.25	-0.000
577.44	-0.000
577.64	-0.000
577.83	-0.000
578.03	-0.000
578.22	-0.000
578.42	-0.000
578.61	-0.000
578.81	-0.000
579.00	-0.000
579.20	-0.000
579.40	-0.000
579.59	-0.000
579.79	-0.000
579.98	-0.000
580.18	-0.000
580.37	-0.000
580.57	-0.000
580.76	-0.000
580.96	-0.000
581.15	-0.000
581.35	-0.000
581.54	-0.000
581.74	-0.000
581.93	-0.000
582.13	-0.000
582.32	-0.000
582.52	-0.000
582.71	-0.000
582.91	-0.000
583.10	-0.000
583.30	-0.000
583.49	-0.000
583.69	-0.000
583.88	-0.000
584.08	-0.000
584.27	-0.000
584.47	-0.000
584.66	-0.000
584.86	-0.000
585.05	-0.000
585.25	-0.000
585.44	-0.000
585.64	-0.000
585.83	-0.000
586.03	-0.000
586.22	-0.000
586.42	-0.000
586.61	-0.000
586.81	-0.001
587.00	-0.001
587.20	-0.001
587.39	-0.001
587.59	-0.001
587.78	-0.001
587.98	-0.001
588.17	-0.002
588.37	-0.002
588.56	-0.002
588.76	-0.002
588.95	-0.002
589.15	-0.001
589.34	-0.001
589.54	-0.002
589.73	-0.002
589.92	-0.002
590.12	-0.002
590.31	-0.002
590.51	-0.002
590.70	-0.002
590.90	-0.002
591.09	-0.002
591.29	-0.002
591.48	-0.002
591.68	-0.002
591.87	-0.002
592.06	-0.002
592.26	-0.002
592.45	-0.002
592.65	-0.002
592.84	-0.002
593.04	-0.002
593.23	-0.002
593.43	-0.002
593.62	-0.002
593.81	-0.002
594.01	-0.002
594.20	-0.002
594.40	-0.002
594.59	-0.002
594.79	-0.002
594.98	-0.002
595.17	-0.002
595.37	-0.002
595.56	-0.002
595.76	-0.002
595.95	-0.002
596.14	-0.002
596.34	-0.002
596.53	-0.002
596.73	-0.002
596.92	-0.002
597.12	-0.002
597.31	-0.002
597.50	-0.002
597.70	-0.002
597.89	-0.002
598.09	-0.002
598.28	-0.003
598.47	-0.003
598.67	-0.002
598.86	-0.002
599.06	-0.002
599.25	-0.002
599.44	-0.002
599.64	-0.002
599.83	-0.002
600.03	-0.002
600.22	-0.002
600.41	-0.002
600.61	-0.002
600.80	-0.001
601.00	-0.001
601.19	-0.001
601.38	-0.001
601.58	-0.001
601.77	-0.001
601.96	-0.001
602.16	-0.001
602.35	-0.001
602.55	-0.001
602.74	-0.001
602.93	-0.002
603.13	-0.002
603.32	-0.002
603.51	-0.002
603.71	-0.002
603.90	-0.002
604.09	-0.002
604.29	-0.002
604.48	-0.002
604.68	-0.002
604.87	-0.002
605.06	-0.002
605.26	-0.002
605.45	-0.002
605.64	-0.002
605.84	-0.002
606.03	-0.002
606.22	-0.002
606.42	-0.002
606.61	-0.002
606.80	-0.002
607.00	-0.002
607.19	-0.002
607.38	-0.002
607.58	-0.002
607.77	-0.001
607.96	-0.001
608.16	-0.001
608.35	-0.001
608.54	-0.001
608.74	-0.001
608.93	-0.001
609.12	-0.001
609.32	-0.001
609.51	-0.001
609.70	-0.001
609.90	-0.001
610.09	-0.001
610.28	-0.001
610.48	-0.001
610.67	-0.002
610.86	-0.002
611.06	-0.002
611.25	-0.002
611.44	-0.002
611.64	-0.002
611.83	-0.002
612.02	-0.002
612.21	-0.002
612.41	-0.002
612.60	-0.002
612.79	-0.002
612.99	-0.002
613.18	-0.002
613.37	-0.002
613.57	-0.002
613.76	-0.002
613.95	-0.002
614.14	-0.002
614.34	-0.002
614.53	-0.002
614.72	-0.002
614.92	-0.002
615.11	-0.002
615.30	-0.002
615.49	-0.002
615.69	-0.001
615.88	-0.001
616.07	-0.002
616.26	-0.001
616.46	-0.001
616.65	-0.001
616.84	-0.001
617.04	-0.001
617.23	-0.001
617.42	-0.001
617.61	-0.001
617.81	-0.001
618.00	-0.001
618.19	-0.001
618.38	-0.001
618.58	-0.001
618.77	-0.002
618.96	-0.002
619.15	-0.002
619.35	-0.002
619.54	-0.001
619.73	-0.002
619.92	-0.002
620.12	-0.002
620.31	-0.002
620.50	-0.002
620.69	-0.002
620.89	-0.002
621.08	-0.001
621.27	-0.001
621.46	-0.001
621.66	-0.001
621.85	-0.001
622.04	-0.001
622.23	-0.001
622.43	-0.001
622.62	-0.001
622.81	-0.001
623.00	-0.001
623.19	-0.001
623.39	-0.001
623.58	-0.001
623.77	-0.001
623.96	-0.001
624.16	-0.002
624.35	-0.001
624.54	-0.001
624.73	-0.002
624.92	-0.001
625.12	-0.001
625.31	-0.001
625.50	-0.001
625.69	-0.001
625.88	-0.001
626.08	-0.001
626.27	-0.001
626.46	-0.001
626.65	-0.001
626.84	-0.001
627.04	-0.001
627.23	-0.001
627.42	-0.001
627.61	-0.001
627.80	-0.001
628.00	-0.001
628.19	-0.001
628.38	-0.001
628.57	-0.001
628.76	-0.001
628.96	-0.001
629.15	-0.001
629.34	-0.001
629.53	-0.001
629.72	-0.001
629.91	-0.001
630.11	-0.001
630.30	-0.001
630.49	-0.001
630.68	-0.001
630.87	-0.001
631.06	-0.001
631.26	-0.001
631.45	-0.001
631.64	-0.001
631.83	-0.001
632.02	-0.001
632.21	-0.001
632.41	-0.000
632.60	-0.001
632.79	-0.001
632.98	-0.001
633.17	-0.001
633.36	-0.001
633.55	-0.001
633.75	-0.001
633.94	-0.001
634.13	-0.001
634.32	-0.001
634.51	-0.001
634.70	-0.001
634.89	-0.001
635.09	-0.001
635.28	-0.001
635.47	-0.001
635.66	-0.001
635.85	-0.001
636.04	-0.001
636.23	-0.001
636.43	-0.001
636.62	-0.001
636.81	-0.001
637.00	-0.001
637.19	-0.001
637.38	-0.001
637.57	-0.001
637.76	-0.001
637.95	-0.001
638.15	-0.001
638.34	-0.001
638.53	-0.001
638.72	-0.001
638.91	-0.001
639.10	-0.001
639.29	-0.001
639.48	-0.001
639.67	-0.001
639.87	-0.001
640.06	-0.001
640.25	-0.001
640.44	-0.001
640.63	-0.001
640.82	-0.001
641.01	-0.001
641.20	-0.001
641.39	-0.001
641.58	-0.001
641.78	-0.001
641.97	-0.001
642.16	-0.001
642.35	-0.001
642.54	-0.001
642.73	-0.001
642.92	-0.001
643.11	-0.001
643.30	-0.001
643.49	-0.001
643.68	-0.001
643.87	-0.001
644.06	-0.001
644.25	-0.001
644.45	-0.001
644.64	-0.001
644.83	-0.001
645.02	-0.001
645.21	-0.001
645.40	-0.001
645.59	-0.001
645.78	-0.001
645.97	-0.001
646.16	-0.001
646.35	-0.001
646.54	-0.001
646.73	-0.001
646.92	-0.001
647.11	-0.001
647.30	-0.001
647.49	-0.001
647.68	-0.001
647.88	-0.001
648.07	-0.001
648.26	-0.001
648.45	-0.001
648.64	-0.001
648.83	-0.001
649.02	-0.001
649.21	-0.001
649.40	-0.001
649.59	-0.001
649.78	-0.001
649.97	-0.001
650.16	-0.001
650.35	-0.001
650.54	-0.001
650.73	-0.001
650.92	-0.001
651.11	-0.001
651.30	-0.001
651.49	-0.001
651.68	-0.001
651.87	-0.001
652.06	-0.001
652.25	-0.001
652.44	-0.001
652.63	-0.001
652.82	-0.002
653.01	-0.002
653.20	-0.002
653.39	-0.002
653.58	-0.002
653.77	-0.002
653.96	-0.003
654.15	-0.003
654.34	-0.003
654.53	-0.003
654.72	-0.002
654.91	-0.002
655.10	-0.002
655.29	-0.002
655.48	-0.002
655.67	-0.002
655.86	-0.002
656.05	-0.002
656.24	-0.002
656.43	-0.002
656.62	-0.002
656.81	-0.001
657.00	-0.001
657.19	-0.001
657.38	-0.001
657.57	-0.001
657.76	-0.000
657.95	-0.000
658.14	-0.000
658.33	-0.000
658.51	0.000
658.70	0.000
658.89	0.000
659.08	-0.000
659.27	-0.000
659.46	-0.000
659.65	-0.001
659.84	-0.001
660.03	-0.001
660.22	-0.001
660.41	-0.000
660.60	-0.000
660.79	-0.001
660.98	-0.000
661.17	-0.000
661.36	-0.000
661.55	-0.000
661.74	-0.000
661.92	-0.001
662.11	-0.001
662.30	-0.001
662.49	-0.001
662.68	-0.001
662.87	-0.001
663.06	-0.001
663.25	-0.001
663.44	-0.001
663.63	-0.001
663.82	-0.001
664.01	-0.001
664.20	-0.001
664.38	-0.001
664.57	-0.001
664.76	-0.001
664.95	-0.001
665.14	-0.001
665.33	-0.000
665.52	-0.000
665.71	-0.000
665.90	-0.001
666.09	-0.000
666.28	-0.001
666.46	-0.001
666.65	-0.001
666.84	-0.001
667.03	-0.001
667.22	-0.001
667.41	-0.001
667.60	-0.001
667.79	-0.001
667.98	-0.001
668.16	-0.001
668.35	-0.001
668.54	-0.001
668.73	-0.001
668.92	-0.001
669.11	-0.001
669.30	-0.001
669.49	-0.001
669.67	-0.001
669.86	-0.001
670.05	-0.001
670.24	-0.001
670.43	-0.001
670.62	-0.001
670.81	-0.001
671.00	-0.001
671.18	-0.001
671.37	-0.001
671.56	-0.001
671.75	-0.001
671.94	-0.001
672.13	-0.001
672.32	-0.001
672.50	-0.001
672.69	-0.001
672.88	-0.001
673.07	-0.001
673.26	-0.001
673.45	-0.001
673.63	-0.001
673.82	-0.001
674.01	-0.001
674.20	-0.001
674.39	-0.001
674.58	-0.001
674.76	-0.001
674.95	-0.001
675.14	-0.001
675.33	-0.001
675.52	-0.001
675.71	-0.001
675.89	-0.001
676.08	-0.001
676.27	-0.001
676.46	-0.001
676.65	-0.000
676.84	-0.001
677.02	-0.001
677.21	-0.001
677.40	-0.001
677.59	-0.001
677.78	-0.001
677.96	-0.001
678.15	-0.001
678.34	-0.001
678.53	-0.001
678.72	-0.001
678.90	-0.001
679.09	-0.001
679.28	-0.001
679.47	-0.001
679.66	-0.001
679.84	-0.001
680.03	-0.001
680.22	-0.001
680.41	-0.001
680.60	-0.001
680.78	-0.001
680.97	-0.001
681.16	-0.001
681.35	-0.001
681.53	-0.001
681.72	-0.001
681.91	-0.001
682.10	-0.001
682.29	-0.001
682.47	-0.000
682.66	-0.000
682.85	-0.000
683.04	-0.000
683.22	-0.001
683.41	-0.001
683.60	-0.001
683.79	-0.001
683.97	-0.001
684.16	-0.001
684.35	-0.001
684.54	-0.001
684.72	-0.001
684.91	-0.001
685.10	-0.001
685.29	-0.001
685.47	-0.001
685.66	-0.001
685.85	-0.001
686.04	-0.001
686.22	-0.001
686.41	-0.001
686.60	-0.001
686.79	-0.001
686.97	-0.001
687.16	-0.000
687.35	-0.000
687.54	-0.000
687.72	-0.000
687.91	-0.001
688.10	-0.000
688.29	-0.000
688.47	-0.000
688.66	-0.000
688.85	-0.001
689.03	-0.001
689.22	-0.001
689.41	-0.001
689.60	-0.001
689.78	-0.001
689.97	-0.001
690.16	-0.001
690.34	-0.001
690.53	-0.001
690.72	-0.001
690.91	-0.000
691.09	-0.001
691.28	-0.001
691.47	-0.001
691.65	-0.001
691.84	-0.001
692.03	-0.001
692.21	-0.001
692.40	-0.001
692.59	-0.001
692.77	-0.001
692.96	-0.001
693.15	-0.001
693.34	-0.001
693.52	-0.001
693.71	-0.001
693.90	-0.001
694.08	-0.001
694.27	-0.001
694.46	-0.001
694.64	-0.001
694.83	-0.001
695.02	-0.001
695.20	-0.001
695.39	-0.001
695.58	-0.001
695.76	-0.001
695.95	-0.001
696.14	-0.001
696.32	-0.001
696.51	-0.001
696.70	-0.001
696.88	-0.001
697.07	-0.001
697.26	-0.001
697.44	-0.001
697.63	-0.001
697.81	-0.001
698.00	-0.001
698.19	-0.001
698.37	-0.001
698.56	-0.001
698.75	-0.001
698.93	-0.001
699.12	-0.001
699.31	-0.001
699.49	-0.001
699.68	-0.001
699.87	-0.001
700.05	-0.001
700.24	-0.001
700.42	-0.001
700.61	-0.001
700.80	-0.001
700.98	-0.001
701.17	-0.001
701.36	-0.001
701.54	-0.001
701.73	-0.001
701.91	-0.000
702.10	-0.000
702.29	-0.000
702.47	-0.000
702.66	-0.000
702.84	-0.000
703.03	-0.000
703.22	-0.000
703.40	-0.000
703.59	-0.000
703.77	-0.000
703.96	-0.001
704.15	-0.001
704.33	-0.001
704.52	-0.001
704.70	-0.001
704.89	-0.001
705.08	-0.001
705.26	-0.001
705.45	-0.001
705.63	-0.001
705.82	-0.001
706.00	-0.001
706.19	-0.001
706.38	-0.001
706.56	-0.001
706.75	-0.000
706.93	-0.000
707.12	-0.000
707.30	-0.000
707.49	-0.000
707.68	-0.000
707.86	-0.000
708.05	-0.000
708.23	-0.000
708.42	-0.000
708.60	-0.000
708.79	-0.000
708.98	-0.001
709.16	-0.001
709.35	-0.001
709.53	-0.001
709.72	-0.001
709.90	-0.001
710.09	-0.001
710.27	-0.001
710.46	-0.001
710.64	-0.001
710.83	-0.001
711.02	-0.001
711.20	-0.001
711.39	-0.001
711.57	-0.001
711.76	-0.001
711.94	-0.000
712.13	-0.000
712.31	-0.001
712.50	-0.001
712.68	-0.001
712.87	-0.001
713.05	-0.000
713.24	-0.000
713.42	-0.001
713.61	-0.001
713.79	-0.001
713.98	-0.001
714.16	-0.001
714.35	-0.001
714.54	-0.001
714.72	-0.001
714.91	-0.000
715.09	-0.000
715.28	-0.001
715.46	-0.001
715.65	-0.001
715.83	-0.001
716.02	-0.001
716.20	-0.001
716.39	-0.001
716.57	-0.001
716.76	-0.001
716.94	-0.001
717.12	-0.001
717.31	-0.001
717.49	-0.001
717.68	-0.001
717.86	-0.000
718.05	-0.001
718.23	-0.000
718.42	-0.000
718.60	-0.000
718.79	-0.000
718.97	0.000
719.16	0.000
719.34	-0.000
719.53	-0.000
719.71	-0.000
719.90	-0.000
720.08	-0.000
720.27	-0.000
720.45	-0.000
720.63	-0.000
720.82	-0.000
721.00	-0.000
721.19	-0.000
721.37	-0.000
721.56	-0.000
721.74	-0.000
721.93	-0.001
722.11	-0.001
722.30	-0.000
722.48	-0.000
722.66	-0.000
722.85	-0.000
723.03	-0.000
723.22	-0.000
723.40	-0.000
723.59	-0.000
723.77	-0.000
723.95	-0.000
724.14	-0.000
724.32	-0.000
724.51	-0.000
724.69	-0.001
724.88	-0.001
725.06	-0.000
725.24	-0.000
725.43	-0.000
725.61	-0.000
725.80	-0.000
725.98	-0.000
726.16	-0.000
726.35	-0.001
726.53	-0.000
726.72	-0.000
726.90	-0.001
727.09	-0.001
727.27	-0.001
727.45	-0.001
727.64	-0.001
727.82	-0.001
728.01	-0.001
728.19	-0.001
728.37	-0.001
728.56	-0.001
728.74	-0.002
728.92	-0.002
729.11	-0.002
729.29	-0.001
729.48	-0.002
729.66	-0.001
729.84	-0.001
730.03	-0.001
730.21	-0.001
730.40	-0.001
730.58	-0.001
730.76	-0.001
730.95	-0.001
731.13	-0.001
731.31	-0.001
731.50	-0.001
731.68	-0.002
731.86	-0.001
732.05	-0.001
732.23	-0.001
732.42	-0.001
732.60	-0.001
732.78	-0.001
732.97	-0.001
733.15	-0.001
733.33	-0.001
733.52	-0.001
733.70	-0.001
733.88	-0.002
734.07	-0.002
734.25	-0.002
734.43	-0.001
734.62	-0.002
734.80	-0.002
734.98	-0.002
735.17	-0.001
735.35	-0.001
735.53	-0.001
735.72	-0.000
735.90	0.000
736.08	-0.000
736.27	-0.001
736.45	-0.000
736.63	-0.000
736.82	-0.000
737.00	-0.001
737.18	-0.001
737.37	-0.001
737.55	-0.001
737.73	-0.002
737.92	-0.002
738.10	-0.002
738.28	-0.002
738.46	-0.002
738.65	-0.002
738.83	-0.001
739.01	-0.002
739.20	-0.002
739.38	-0.003
739.56	-0.002
739.75	-0.002
739.93	-0.002
740.11	-0.002
740.29	-0.002
740.48	-0.002
740.66	-0.002
740.84	-0.002
741.03	-0.001
741.21	-0.001
741.39	-0.001
741.57	-0.001
741.76	-0.001
741.94	-0.001
742.12	-0.001
742.31	-0.001
742.49	0.000
742.67	0.000
742.85	-0.001
743.04	-0.001
743.22	-0.001
743.40	0.000
743.58	0.000
743.77	-0.000
743.95	-0.001
744.13	-0.001
744.31	-0.001
744.50	-0.002
744.68	-0.001
744.86	-0.001
745.04	-0.001
745.23	-0.001
745.41	-0.002
745.59	-0.002
745.77	-0.002
745.96	-0.002
746.14	-0.002
746.32	-0.001
746.50	-0.001
746.69	-0.001
746.87	-0.001
747.05	-0.001
747.23	-0.001
747.42	0.000
747.60	-0.001
747.78	-0.001
747.96	0.000
748.14	0.001
748.33	0.000
748.51	-0.000
748.69	-0.001
748.87	-0.000
749.06	-0.001
749.24	-0.001
749.42	-0.001
749.60	-0.000
749.78	-0.001
749.97	-0.001
750.15	-0.001
750.33	-0.001
750.51	-0.001
750.69	-0.001
750.88	-0.001
751.06	-0.001
751.24	-0.001
751.42	-0.001
751.60	-0.002
751.79	-0.001
751.97	-0.001
752.15	-0.001
752.33	-0.001
752.51	-0.001
752.69	-0.001
752.88	-0.001
753.06	-0.000
753.24	-0.001
753.42	-0.000
753.60	-0.001
753.78	-0.001
753.97	-0.001
754.15	-0.002
754.33	-0.002
754.51	-0.002
754.69	-0.002
754.87	-0.002
755.06	-0.002
755.24	-0.003
755.42	-0.003
755.60	-0.003
755.78	-0.003
755.96	-0.003
756.15	-0.003
756.33	-0.003
756.51	-0.002
756.69	-0.003
756.87	-0.002
757.05	-0.002
757.23	-0.003
757.42	-0.002
757.60	-0.002
757.78	-0.002
757.96	-0.001
758.14	-0.002
758.32	-0.002
758.50	-0.002
758.69	-0.002
758.87	-0.002
759.05	-0.001
759.23	-0.001
759.41	-0.001
759.59	-0.001
759.77	-0.001
759.95	-0.001
760.13	-0.001
760.32	-0.000
760.50	-0.000
760.68	0.000
760.86	-0.000
761.04	-0.000
761.22	-0.001
761.40	-0.001
761.58	-0.001
761.76	-0.001
761.95	-0.001
762.13	-0.002
762.31	-0.002
762.49	-0.002
762.67	-0.002
762.85	-0.001
763.03	-0.001
763.21	-0.001
763.39	-0.001
763.57	-0.001
763.75	-0.001
763.94	-0.000
764.12	-0.000
764.30	-0.001
764.48	-0.001
764.66	-0.001
764.84	-0.002
765.02	-0.002
765.20	-0.002
765.38	-0.002
765.56	-0.003
765.74	-0.003
765.92	-0.003
766.10	-0.003
766.28	-0.003
766.46	-0.002
766.65	-0.002
766.83	-0.001
767.01	-0.001
767.19	-0.001
767.37	-0.001
767.55	-0.001
767.73	-0.001
767.91	-0.001
768.09	-0.001
768.27	-0.001
768.45	-0.001
768.63	-0.000
768.81	-0.001
768.99	-0.000
769.17	-0.000
769.35	0.000
769.53	-0.000
769.71	-0.000
769.89	-0.000
770.07	0.000
770.25	-0.000
770.43	-0.001
770.61	-0.001
770.79	-0.001
770.97	-0.001
771.15	-0.002
771.33	-0.002
771.51	-0.001
771.69	-0.001
771.87	-0.001
772.05	-0.001
772.24	0.000
772.42	0.000
772.60	0.000
772.78	0.001
772.96	0.001
773.14	0.001
773.32	0.001
773.49	-0.000
773.67	-0.001
773.85	-0.001
774.03	-0.001
774.21	-0.001
774.39	-0.001
774.57	-0.001
774.75	-0.001
774.93	-0.001
775.11	-0.001
775.29	-0.001
775.47	-0.001
775.65	-0.000
775.83	0.000
776.01	-0.000
776.19	-0.001
776.37	-0.001
776.55	-0.001
776.73	-0.001
776.91	-0.001
777.09	-0.001
777.27	-0.001
777.45	-0.001
777.63	-0.001
777.81	-0.002
777.99	-0.002
778.17	-0.001
778.35	-0.001
778.53	-0.001
778.71	-0.001
778.89	-0.002
779.07	-0.001
779.24	-0.002
779.42	-0.001
779.60	-0.001
779.78	-0.001
779.96	-0.001
780.14	-0.001
780.32	-0.001
780.50	-0.001
780.68	-0.001
780.86	-0.001
781.04	-0.001
781.22	-0.001
781.40	-0.001
781.58	-0.000
781.75	-0.000
781.93	0.000
782.11	0.000
782.29	0.000
782.47	0.000
782.65	0.001
782.83	0.001
783.01	0.001
783.19	0.001
783.37	0.001
783.55	-0.000
783.72	-0.001
783.90	-0.001
784.08	-0.001
784.26	-0.002
784.44	-0.001
784.62	-0.002
784.80	-0.001
784.98	-0.002
785.16	-0.002
785.33	-0.002
785.51	-0.002
785.69	-0.002
785.87	-0.002
786.05	-0.002
786.23	-0.002
786.41	-0.002
786.59	-0.002
786.77	-0.002
786.94	-0.002
787.12	-0.002
787.30	-0.001
787.48	-0.001
787.66	-0.001
787.84	-0.001
788.02	-0.001
788.19	-0.001
788.37	-0.001
788.55	-0.000
788.73	-0.000
788.91	-0.000
789.09	0.000
789.27	-0.000
789.44	-0.000
789.62	-0.000
789.80	-0.000
789.98	-0.000
790.16	-0.001
790.34	-0.001
790.51	-0.001
790.69	-0.001
790.87	-0.001
791.05	-0.001
791.23	-0.001
791.41	-0.000
791.58	0.000
791.76	0.000
791.94	-0.000
792.12	0.000
792.30	0.001
792.48	0.000
792.65	0.000
792.83	0.000
793.01	0.000
793.19	0.000
793.37	-0.000
793.54	-0.000
793.72	-0.000
793.90	0.000
794.08	-0.000
794.26	-0.000
794.43	-0.000
794.61	-0.000
794.79	-0.001
794.97	-0.001
795.15	-0.001
795.32	-0.000
795.50	-0.001
795.68	-0.001
795.86	-0.001
796.04	-0.000
796.21	-0.001
796.39	-0.001
796.57	-0.001
796.75	-0.001
796.92	-0.001
797.10	-0.001
797.28	-0.001
797.46	-0.001
797.64	-0.001
797.81	-0.001
797.99	-0.001
798.17	-0.001
798.35	-0.000
798.52	-0.000
798.70	0.000
798.88	0.000
799.06	0.001
799.23	0.001
799.41	0.001
799.59	0.001
799.77	0.000
799.94	0.000
800.12	0.001
800.30	0.001
800.48	0.001
800.65	0.000
800.83	0.000
801.01	-0.000
801.19	-0.001
801.36	-0.001
801.54	-0.001
801.72	0.000
801.90	0.000
802.07	0.000
802.25	-0.000
802.43	-0.000
802.60	-0.000
802.78	0.000
802.96	0.000
803.14	0.000
803.31	0.000
803.49	-0.000
803.67	-0.000
803.84	-0.001
804.02	-0.001
804.20	-0.001
804.38	-0.001
804.55	-0.001
804.73	-0.001
804.91	-0.001
805.08	-0.001
805.26	-0.001
805.44	-0.001
805.61	-0.001
805.79	-0.001
805.97	-0.001
806.15	-0.001
806.32	-0.001
806.50	-0.001
806.68	-0.001
806.85	-0.001
807.03	-0.001
807.21	-0.001
807.38	-0.001
807.56	-0.001
807.74	-0.001
807.91	-0.000
808.09	-0.000
808.27	-0.000
808.44	-0.000
808.62	-0.000
808.80	-0.001
808.97	-0.000
809.15	-0.001
809.33	-0.000
809.50	-0.000
809.68	-0.000
809.86	-0.000
810.03	-0.001
810.21	-0.001
810.39	-0.001
810.56	-0.000
810.74	0.000
810.91	-0.000
811.09	-0.001
811.27	-0.001
811.44	-0.000
811.62	-0.000
811.80	-0.001
811.97	-0.000
812.15	-0.000
812.33	-0.000
812.50	-0.000
812.68	-0.001
812.85	-0.001
813.03	-0.000
813.21	-0.001
813.38	-0.001
813.56	-0.001
813.74	-0.000
813.91	-0.000
814.09	-0.000
814.26	-0.000
814.44	-0.000
814.62	0.000
814.79	0.000
814.97	0.000
815.14	0.000
815.32	0.000
815.50	-0.000
815.67	-0.000
815.85	-0.001
816.02	-0.001
816.20	-0.000
816.38	-0.001
816.55	-0.000
816.73	-0.000
816.90	-0.000
817.08	0.000
817.26	0.000
817.43	0.000
817.61	0.000
817.78	0.000
817.96	0.001
818.13	0.000
818.31	0.001
818.49	0.000
818.66	0.000
818.84	0.000
819.01	-0.000
819.19	-0.000
819.36	0.001
819.54	0.001
819.71	0.001
819.89	0.001
820.07	0.001
820.24	0.000
820.42	0.000
820.59	0.000
820.77	0.000
820.94	0.000
821.12	0.000
821.29	-0.000
821.47	-0.000
821.64	-0.000
821.82	-0.001
822.00	-0.001
822.17	-0.001
822.35	-0.001
822.52	-0.001
822.70	-0.001
822.87	-0.001
823.05	-0.002
823.22	-0.002
823.40	-0.002
823.57	-0.001
823.75	-0.001
823.92	-0.001
824.10	-0.001
824.27	-0.001
824.45	-0.001
824.62	-0.001
824.80	-0.001
824.97	-0.001
825.15	-0.000
825.32	-0.000
825.50	-0.001
825.67	-0.001
825.85	-0.000
826.02	-0.001
826.20	-0.001
826.37	-0.001
826.55	-0.001
826.72	-0.000
826.90	-0.000
827.07	-0.000
827.25	-0.000
827.42	-0.000
827.60	-0.001
827.77	-0.001
827.95	-0.000
828.12	-0.000
828.30	-0.000
828.47	-0.000
828.65	-0.001
828.82	-0.002
829.00	-0.001
829.17	-0.001
829.34	-0.001
829.52	-0.001
829.69	-0.001
829.87	-0.001
830.04	-0.000
830.22	-0.000
830.39	-0.001
830.57	-0.001
830.74	-0.001
830.92	-0.001
831.09	-0.001
831.26	-0.001
831.44	-0.001
831.61	-0.001
831.79	-0.001
831.96	-0.001
832.14	-0.001
832.31	-0.000
832.49	0.002
832.66	0.002
832.83	0.002
833.01	0.001
833.18	0.001
833.36	0.001
833.53	0.001
833.70	0.001
833.88	0.001
834.05	0.000
834.23	-0.000
834.40	-0.001
834.58	-0.001
834.75	-0.001
834.92	-0.001
835.10	-0.000
835.27	-0.000
835.45	0.001
835.62	-0.002
835.79	-0.004
835.97	-0.005
836.14	-0.005
836.32	-0.005
836.49	-0.004
836.66	-0.005
836.84	-0.004
837.01	-0.006
837.18	-0.005
837.36	-0.006
837.53	-0.004
837.71	-0.004
837.88	-0.002
838.05	-0.002
838.23	-0.002
838.40	-0.002
838.58	-0.002
838.75	-0.001
838.92	-0.000
839.10	0.001
839.27	0.000
839.44	-0.001
839.62	-0.000
839.79	-0.000
839.96	0.000
840.14	0.002
840.31	0.001
840.48	0.000
840.66	0.000
840.83	0.001
841.01	0.000
841.18	0.001
841.35	0.003
841.53	0.004
841.70	0.004
841.87	0.003
842.05	0.001
842.22	0.002
842.39	0.002
842.57	0.002
842.74	-0.000
842.91	-0.001
843.09	-0.002
843.26	-0.005
843.43	-0.004
843.60	-0.004
843.78	-0.004
843.95	-0.003
844.12	-0.002
844.30	-0.002
844.47	-0.003
844.64	-0.002
844.82	-0.002
844.99	0.000
845.16	0.002
845.34	0.001
845.51	0.002
845.68	0.001
845.85	0.003
846.03	0.001
846.20	0.003
846.37	0.004
846.55	0.002
846.72	0.001
846.89	-0.001
847.06	0.000
847.24	0.001
847.41	0.001
847.58	-0.000
847.76	-0.002
847.93	-0.001
848.10	-0.001
848.27	-0.001
848.45	0.003
848.62	0.003
848.79	0.003
848.97	-0.001
849.14	-0.001
849.31	-0.002
849.48	-0.001
849.66	-0.003
849.83	-0.004
850.00	-0.005
850.17	-0.005
850.35	-0.007
850.52	-0.006
850.69	-0.007
850.86	-0.004
851.04	-0.004
851.21	-0.005
851.38	-0.006
851.55	-0.005
851.72	-0.004
851.90	-0.004
852.07	-0.004
852.24	-0.005
852.41	-0.006
852.59	-0.002
852.76	-0.002
852.93	-0.002
853.10	-0.000
853.28	-0.000
853.45	0.002
853.62	0.002
853.79	0.002
853.96	0.001
854.14	0.004
854.31	0.003
854.48	0.004
854.65	0.005
854.82	0.004
855.00	0.004
855.17	0.004
855.34	0.005
855.51	0.001
855.68	0.003
855.86	0.004
856.03	0.004
856.20	0.002
856.37	-0.002
856.54	-0.005
856.72	-0.002
856.89	-0.001
857.06	0.000
857.23	-0.002
857.40	0.001
857.57	0.001
857.75	0.001
857.92	0.001
858.09	0.000
858.26	0.003
858.43	0.004
858.60	0.005
858.78	0.003
858.95	0.002
859.12	0.001
859.29	-0.001
859.46	0.000
859.63	-0.002
859.81	-0.003
859.98	0.001
860.15	0.001
860.32	0.003
860.49	0.001
860.66	-0.003
860.83	-0.000
861.01	0.002
861.18	-0.000
861.35	-0.003
861.52	-0.002
861.69	-0.003
861.86	-0.005
862.03	-0.005
862.21	-0.006
862.38	-0.008
862.55	-0.006
862.72	-0.006
862.89	-0.008
863.06	-0.006
863.23	-0.007
863.40	-0.009
863.58	-0.009
863.75	-0.007
863.92	-0.007
864.09	-0.011
864.26	-0.009
864.43	-0.008
864.60	-0.006
864.77	-0.005
864.94	-0.005
865.11	-0.002
865.29	-0.003
865.46	-0.003
865.63	-0.003
865.80	-0.001
865.97	0.005
866.14	0.002
866.31	0.002
866.48	-0.003
866.65	-0.003
866.82	0.000
866.99	-0.000
867.16	0.002
867.34	0.001
867.51	0.003
867.68	-0.002
867.85	-0.006
868.02	-0.003
868.19	-0.001
868.36	0.001
868.53	-0.001
868.70	-0.003
868.87	-0.002
869.04	0.001
869.21	0.001
869.38	-0.001
869.55	0.003
869.72	0.003
869.89	0.002
870.06	-0.001
870.24	-0.002
870.41	0.003
870.58	0.002
870.75	0.003
870.92	-0.000
871.09	0.003
871.26	0.002
871.43	-0.001
871.60	0.001
871.77	-0.000
871.94	-0.000
872.11	0.004
872.28	0.004
872.45	0.003
872.62	0.000
872.79	0.001
872.96	-0.002
873.13	0.001
873.30	0.004
873.47	0.005
873.64	0.010
873.81	0.011
873.98	0.014
874.15	0.010
874.32	0.011
874.49	0.010
874.66	0.009
874.83	0.007
875.00	0.005
875.17	0.003
875.34	-0.002
875.51	-0.004
875.68	-0.003
875.85	-0.014
876.02	-0.009
876.19	-0.010
876.36	0.001
876.53	-0.002
876.70	-0.002
876.87	-0.003
877.04	-0.004
877.21	-0.002
877.38	-0.006
877.55	-0.011
877.72	-0.008
877.89	-0.011
878.06	-0.010
878.23	-0.024
878.39	-0.019
878.56	-0.017
878.73	-0.012
878.90	-0.011
879.07	-0.013
879.24	-0.005
879.41	-0.008
879.58	-0.010
879.75	-0.012
879.92	-0.006
880.09	0.001
880.26	-0.005
880.43	-0.005
880.60	-0.009
880.77	-0.017
880.94	-0.014
881.11	-0.019
881.27	-0.014
881.44	-0.013
881.61	-0.013
881.78	-0.022
881.95	-0.020
882.12	-0.020
882.29	-0.013
882.46	-0.010
882.63	0.002
882.80	0.000
882.97	-0.002
883.14	-0.002
883.30	-0.004
883.47	-0.006
883.64	-0.005
883.81	-0.007
883.98	-0.004
884.15	-0.013
884.32	-0.020
884.49	-0.026
884.66	-0.032
884.82	-0.024
884.99	-0.020
885.16	-0.018
885.33	-0.012
885.50	-0.011
885.67	-0.005
885.84	-0.005
886.01	-0.004
886.17	-0.006
886.34	-0.005
886.51	0.008
886.68	-0.001
886.85	0.002
887.02	0.008
887.19	-0.000
887.36	0.001
887.52	-0.011
887.69	-0.008
887.86	-0.005
888.03	0.004
888.20	0.010
888.37	-0.000
888.54	0.007
888.70	0.003
888.87	-0.006
889.04	0.008
889.21	0.012
889.38	0.017
889.55	0.008
889.71	-0.075
889.88	0.092
890.05	0.026
890.22	0.010
890.39	-0.083
>>>>>End Processed Spectral Data<<<<<
