SpectraSuite Data File
++++++++++++++++++++++++++++++++++++
Date: Mon Jun 15 09:52:17 PDT 2015
User: introlabs
Dark Spectrum Present: Yes
Reference Spectrum Present: Yes
Number of Sampled Component Spectra: 1
Spectrometers: USB4H08886
Integration Time (usec): 44366 (USB4H08886)
Spectra Averaged: 20 (USB4H08886)
Boxcar Smoothing: 5 (USB4H08886)
Correct for Electrical Dark: Yes (USB4H08886)
Strobe/Lamp Enabled: No (USB4H08886)
Correct for Detector Non-linearity: Yes (USB4H08886)
Correct for Stray Light: Yes (USB4H08886)
Number of Pixels in Processed Spectrum: 3648
>>>>>Begin Processed Spectral Data<<<<<
178.14	-0.000
178.36	-0.000
178.57	-0.000
178.79	0.133
179.01	-0.000
179.22	-0.000
179.44	-0.000
179.65	-0.165
179.87	0.233
180.08	0.290
180.30	0.915
180.52	-0.000
180.73	-0.000
180.95	0.517
181.16	0.302
181.38	0.232
181.59	0.190
181.81	0.186
182.03	0.192
182.24	0.176
182.46	0.157
182.67	0.137
182.89	0.125
183.10	0.126
183.32	0.113
183.54	0.103
183.75	0.100
183.97	0.102
184.18	0.087
184.40	0.077
184.61	0.080
184.83	0.084
185.04	0.082
185.26	0.089
185.48	0.083
185.69	0.095
185.91	0.102
186.12	0.098
186.34	0.099
186.55	0.097
186.77	0.105
186.98	0.108
187.20	0.104
187.42	0.110
187.63	0.113
187.85	0.114
188.06	0.117
188.28	0.124
188.49	0.130
188.71	0.127
188.92	0.130
189.14	0.115
189.36	0.116
189.57	0.113
189.79	0.109
190.00	0.097
190.22	0.098
190.43	0.097
190.65	0.083
190.86	0.085
191.08	0.089
191.29	0.085
191.51	0.094
191.72	0.085
191.94	0.085
192.16	0.091
192.37	0.100
192.59	0.107
192.80	0.095
193.02	0.108
193.23	0.104
193.45	0.099
193.66	0.096
193.88	0.102
194.09	0.102
194.31	0.108
194.52	0.095
194.74	0.091
194.95	0.085
195.17	0.090
195.38	0.084
195.60	0.083
195.81	0.081
196.03	0.090
196.25	0.091
196.46	0.087
196.68	0.082
196.89	0.084
197.11	0.087
197.32	0.079
197.54	0.075
197.75	0.080
197.97	0.079
198.18	0.079
198.40	0.085
198.61	0.074
198.83	0.077
199.04	0.072
199.26	0.075
199.47	0.064
199.69	0.078
199.90	0.089
200.12	0.081
200.33	0.083
200.55	0.086
200.76	0.074
200.98	0.075
201.19	0.072
201.41	0.072
201.62	0.071
201.84	0.078
202.05	0.074
202.27	0.073
202.48	0.081
202.70	0.075
202.91	0.074
203.13	0.071
203.34	0.066
203.56	0.071
203.77	0.074
203.99	0.074
204.20	0.072
204.42	0.066
204.63	0.068
204.85	0.062
205.06	0.067
205.28	0.064
205.49	0.075
205.71	0.082
205.92	0.080
206.14	0.077
206.35	0.087
206.56	0.089
206.78	0.090
206.99	0.086
207.21	0.090
207.42	0.087
207.64	0.090
207.85	0.092
208.07	0.100
208.28	0.104
208.50	0.115
208.71	0.109
208.93	0.108
209.14	0.111
209.36	0.108
209.57	0.115
209.79	0.120
210.00	0.119
210.22	0.114
210.43	0.102
210.64	0.103
210.86	0.095
211.07	0.090
211.29	0.091
211.50	0.090
211.72	0.084
211.93	0.075
212.15	0.074
212.36	0.070
212.58	0.072
212.79	0.074
213.01	0.065
213.22	0.069
213.43	0.071
213.65	0.074
213.86	0.071
214.08	0.077
214.29	0.079
214.51	0.077
214.72	0.076
214.94	0.071
215.15	0.077
215.36	0.077
215.58	0.068
215.79	0.067
216.01	0.066
216.22	0.071
216.44	0.064
216.65	0.060
216.87	0.061
217.08	0.063
217.29	0.069
217.51	0.067
217.72	0.070
217.94	0.076
218.15	0.078
218.37	0.076
218.58	0.072
218.80	0.079
219.01	0.077
219.22	0.072
219.44	0.075
219.65	0.067
219.87	0.061
220.08	0.055
220.30	0.053
220.51	0.047
220.72	0.044
220.94	0.041
221.15	0.035
221.37	0.034
221.58	0.038
221.79	0.036
222.01	0.030
222.22	0.031
222.44	0.030
222.65	0.027
222.87	0.023
223.08	0.022
223.29	0.020
223.51	0.019
223.72	0.016
223.94	0.011
224.15	0.008
224.36	0.011
224.58	0.002
224.79	0.007
225.01	0.001
225.22	-0.003
225.44	-0.006
225.65	-0.004
225.86	-0.004
226.08	-0.004
226.29	-0.007
226.51	-0.008
226.72	-0.009
226.93	-0.007
227.15	-0.018
227.36	-0.020
227.58	-0.022
227.79	-0.025
228.00	-0.032
228.22	-0.045
228.43	-0.055
228.65	-0.061
228.86	-0.068
229.07	-0.075
229.29	-0.082
229.50	-0.084
229.72	-0.089
229.93	-0.093
230.14	-0.099
230.36	-0.104
230.57	-0.104
230.78	-0.109
231.00	-0.116
231.21	-0.123
231.43	-0.126
231.64	-0.130
231.85	-0.134
232.07	-0.139
232.28	-0.145
232.50	-0.151
232.71	-0.158
232.92	-0.164
233.14	-0.169
233.35	-0.173
233.56	-0.177
233.78	-0.184
233.99	-0.190
234.21	-0.195
234.42	-0.198
234.63	-0.200
234.85	-0.203
235.06	-0.206
235.27	-0.209
235.49	-0.209
235.70	-0.211
235.91	-0.214
236.13	-0.215
236.34	-0.216
236.56	-0.218
236.77	-0.220
236.98	-0.220
237.20	-0.221
237.41	-0.219
237.62	-0.219
237.84	-0.219
238.05	-0.218
238.26	-0.217
238.48	-0.215
238.69	-0.212
238.91	-0.210
239.12	-0.209
239.33	-0.207
239.55	-0.204
239.76	-0.202
239.97	-0.198
240.19	-0.195
240.40	-0.193
240.61	-0.190
240.83	-0.188
241.04	-0.185
241.25	-0.183
241.47	-0.179
241.68	-0.175
241.89	-0.172
242.11	-0.170
242.32	-0.167
242.53	-0.164
242.75	-0.161
242.96	-0.158
243.17	-0.155
243.39	-0.152
243.60	-0.150
243.81	-0.147
244.03	-0.145
244.24	-0.142
244.45	-0.138
244.67	-0.136
244.88	-0.132
245.09	-0.129
245.31	-0.126
245.52	-0.124
245.73	-0.122
245.95	-0.119
246.16	-0.116
246.37	-0.114
246.59	-0.112
246.80	-0.110
247.01	-0.107
247.23	-0.106
247.44	-0.104
247.65	-0.102
247.87	-0.100
248.08	-0.098
248.29	-0.096
248.51	-0.093
248.72	-0.091
248.93	-0.090
249.15	-0.088
249.36	-0.086
249.57	-0.085
249.78	-0.084
250.00	-0.082
250.21	-0.080
250.42	-0.078
250.64	-0.076
250.85	-0.074
251.06	-0.073
251.28	-0.071
251.49	-0.069
251.70	-0.068
251.92	-0.066
252.13	-0.063
252.34	-0.062
252.55	-0.061
252.77	-0.059
252.98	-0.058
253.19	-0.057
253.41	-0.055
253.62	-0.054
253.83	-0.053
254.05	-0.052
254.26	-0.051
254.47	-0.050
254.68	-0.049
254.90	-0.048
255.11	-0.047
255.32	-0.046
255.54	-0.045
255.75	-0.044
255.96	-0.043
256.17	-0.043
256.39	-0.042
256.60	-0.041
256.81	-0.040
257.03	-0.039
257.24	-0.039
257.45	-0.039
257.66	-0.038
257.88	-0.038
258.09	-0.037
258.30	-0.037
258.51	-0.036
258.73	-0.036
258.94	-0.035
259.15	-0.035
259.37	-0.034
259.58	-0.034
259.79	-0.033
260.00	-0.033
260.22	-0.032
260.43	-0.032
260.64	-0.032
260.85	-0.032
261.07	-0.032
261.28	-0.032
261.49	-0.032
261.71	-0.032
261.92	-0.032
262.13	-0.033
262.34	-0.033
262.56	-0.033
262.77	-0.033
262.98	-0.033
263.19	-0.033
263.41	-0.033
263.62	-0.034
263.83	-0.035
264.04	-0.035
264.26	-0.036
264.47	-0.036
264.68	-0.037
264.89	-0.037
265.11	-0.038
265.32	-0.039
265.53	-0.039
265.74	-0.039
265.96	-0.040
266.17	-0.040
266.38	-0.040
266.59	-0.041
266.81	-0.041
267.02	-0.042
267.23	-0.043
267.44	-0.043
267.65	-0.044
267.87	-0.045
268.08	-0.046
268.29	-0.046
268.50	-0.047
268.72	-0.047
268.93	-0.048
269.14	-0.048
269.35	-0.049
269.57	-0.050
269.78	-0.050
269.99	-0.051
270.20	-0.051
270.41	-0.052
270.63	-0.052
270.84	-0.053
271.05	-0.054
271.26	-0.055
271.48	-0.055
271.69	-0.056
271.90	-0.057
272.11	-0.058
272.32	-0.059
272.54	-0.059
272.75	-0.060
272.96	-0.060
273.17	-0.061
273.39	-0.061
273.60	-0.062
273.81	-0.062
274.02	-0.062
274.23	-0.062
274.45	-0.063
274.66	-0.063
274.87	-0.064
275.08	-0.064
275.29	-0.064
275.51	-0.064
275.72	-0.064
275.93	-0.064
276.14	-0.064
276.35	-0.064
276.57	-0.064
276.78	-0.063
276.99	-0.063
277.20	-0.062
277.41	-0.062
277.63	-0.061
277.84	-0.061
278.05	-0.060
278.26	-0.059
278.47	-0.059
278.69	-0.058
278.90	-0.057
279.11	-0.056
279.32	-0.055
279.53	-0.054
279.74	-0.053
279.96	-0.052
280.17	-0.052
280.38	-0.051
280.59	-0.050
280.80	-0.049
281.02	-0.048
281.23	-0.047
281.44	-0.046
281.65	-0.045
281.86	-0.044
282.07	-0.044
282.29	-0.043
282.50	-0.042
282.71	-0.040
282.92	-0.039
283.13	-0.038
283.35	-0.037
283.56	-0.036
283.77	-0.034
283.98	-0.033
284.19	-0.031
284.40	-0.029
284.62	-0.028
284.83	-0.026
285.04	-0.023
285.25	-0.021
285.46	-0.019
285.67	-0.017
285.88	-0.014
286.10	-0.012
286.31	-0.009
286.52	-0.006
286.73	-0.003
286.94	-0.001
287.15	0.002
287.37	0.005
287.58	0.007
287.79	0.010
288.00	0.013
288.21	0.015
288.42	0.018
288.63	0.020
288.85	0.023
289.06	0.025
289.27	0.028
289.48	0.030
289.69	0.032
289.90	0.034
290.11	0.036
290.33	0.038
290.54	0.040
290.75	0.042
290.96	0.044
291.17	0.045
291.38	0.047
291.59	0.049
291.81	0.050
292.02	0.051
292.23	0.053
292.44	0.054
292.65	0.055
292.86	0.056
293.07	0.057
293.28	0.058
293.50	0.059
293.71	0.060
293.92	0.061
294.13	0.062
294.34	0.063
294.55	0.063
294.76	0.064
294.97	0.065
295.19	0.065
295.40	0.066
295.61	0.066
295.82	0.067
296.03	0.067
296.24	0.068
296.45	0.068
296.66	0.068
296.87	0.069
297.09	0.069
297.30	0.069
297.51	0.070
297.72	0.070
297.93	0.070
298.14	0.071
298.35	0.071
298.56	0.071
298.77	0.071
298.99	0.072
299.20	0.072
299.41	0.073
299.62	0.073
299.83	0.073
300.04	0.073
300.25	0.073
300.46	0.074
300.67	0.074
300.88	0.074
301.10	0.074
301.31	0.074
301.52	0.074
301.73	0.075
301.94	0.075
302.15	0.075
302.36	0.075
302.57	0.075
302.78	0.075
302.99	0.075
303.20	0.075
303.41	0.076
303.63	0.076
303.84	0.076
304.05	0.076
304.26	0.076
304.47	0.076
304.68	0.076
304.89	0.077
305.10	0.077
305.31	0.077
305.52	0.077
305.73	0.077
305.94	0.077
306.15	0.077
306.37	0.078
306.58	0.078
306.79	0.078
307.00	0.078
307.21	0.078
307.42	0.079
307.63	0.079
307.84	0.079
308.05	0.079
308.26	0.079
308.47	0.079
308.68	0.079
308.89	0.079
309.10	0.079
309.31	0.079
309.52	0.079
309.73	0.079
309.95	0.079
310.16	0.079
310.37	0.079
310.58	0.080
310.79	0.080
311.00	0.080
311.21	0.080
311.42	0.080
311.63	0.080
311.84	0.080
312.05	0.080
312.26	0.081
312.47	0.081
312.68	0.081
312.89	0.081
313.10	0.081
313.31	0.082
313.52	0.082
313.73	0.082
313.94	0.082
314.15	0.082
314.36	0.082
314.57	0.082
314.78	0.083
314.99	0.083
315.21	0.083
315.42	0.083
315.63	0.083
315.84	0.083
316.05	0.083
316.26	0.083
316.47	0.083
316.68	0.084
316.89	0.084
317.10	0.084
317.31	0.084
317.52	0.084
317.73	0.085
317.94	0.085
318.15	0.085
318.36	0.085
318.57	0.085
318.78	0.086
318.99	0.086
319.20	0.086
319.41	0.086
319.62	0.086
319.83	0.086
320.04	0.086
320.25	0.086
320.46	0.086
320.67	0.086
320.88	0.086
321.09	0.087
321.30	0.087
321.51	0.087
321.72	0.087
321.93	0.087
322.14	0.087
322.35	0.088
322.56	0.088
322.77	0.088
322.98	0.088
323.19	0.088
323.40	0.089
323.61	0.089
323.82	0.089
324.03	0.089
324.24	0.089
324.45	0.090
324.66	0.090
324.87	0.090
325.08	0.090
325.29	0.090
325.50	0.090
325.71	0.090
325.92	0.091
326.13	0.091
326.34	0.091
326.55	0.091
326.76	0.091
326.97	0.091
327.18	0.091
327.39	0.092
327.60	0.092
327.80	0.092
328.01	0.092
328.22	0.093
328.43	0.093
328.64	0.093
328.85	0.093
329.06	0.093
329.27	0.094
329.48	0.094
329.69	0.094
329.90	0.094
330.11	0.094
330.32	0.094
330.53	0.094
330.74	0.095
330.95	0.095
331.16	0.095
331.37	0.095
331.58	0.095
331.79	0.096
332.00	0.096
332.21	0.096
332.42	0.096
332.63	0.096
332.83	0.097
333.04	0.097
333.25	0.097
333.46	0.097
333.67	0.097
333.88	0.097
334.09	0.097
334.30	0.098
334.51	0.098
334.72	0.098
334.93	0.098
335.14	0.098
335.35	0.098
335.56	0.099
335.77	0.099
335.98	0.099
336.18	0.099
336.39	0.100
336.60	0.100
336.81	0.100
337.02	0.100
337.23	0.101
337.44	0.101
337.65	0.101
337.86	0.101
338.07	0.101
338.28	0.102
338.49	0.102
338.70	0.102
338.91	0.102
339.11	0.102
339.32	0.102
339.53	0.102
339.74	0.102
339.95	0.102
340.16	0.102
340.37	0.103
340.58	0.103
340.79	0.103
341.00	0.103
341.21	0.103
341.41	0.104
341.62	0.104
341.83	0.104
342.04	0.104
342.25	0.104
342.46	0.104
342.67	0.104
342.88	0.105
343.09	0.105
343.30	0.105
343.50	0.105
343.71	0.105
343.92	0.106
344.13	0.106
344.34	0.106
344.55	0.106
344.76	0.106
344.97	0.106
345.18	0.107
345.38	0.107
345.59	0.107
345.80	0.107
346.01	0.107
346.22	0.107
346.43	0.108
346.64	0.108
346.85	0.108
347.06	0.108
347.26	0.109
347.47	0.109
347.68	0.109
347.89	0.109
348.10	0.109
348.31	0.109
348.52	0.109
348.73	0.109
348.93	0.109
349.14	0.109
349.35	0.109
349.56	0.109
349.77	0.110
349.98	0.110
350.19	0.110
350.39	0.110
350.60	0.110
350.81	0.110
351.02	0.110
351.23	0.111
351.44	0.111
351.65	0.111
351.86	0.111
352.06	0.111
352.27	0.112
352.48	0.112
352.69	0.112
352.90	0.112
353.11	0.112
353.31	0.113
353.52	0.113
353.73	0.113
353.94	0.113
354.15	0.113
354.36	0.113
354.57	0.114
354.77	0.114
354.98	0.114
355.19	0.114
355.40	0.114
355.61	0.114
355.82	0.114
356.02	0.114
356.23	0.115
356.44	0.115
356.65	0.115
356.86	0.115
357.07	0.115
357.27	0.116
357.48	0.116
357.69	0.116
357.90	0.116
358.11	0.116
358.32	0.116
358.52	0.116
358.73	0.116
358.94	0.116
359.15	0.116
359.36	0.117
359.56	0.117
359.77	0.117
359.98	0.117
360.19	0.117
360.40	0.117
360.61	0.117
360.81	0.118
361.02	0.118
361.23	0.118
361.44	0.118
361.65	0.118
361.85	0.118
362.06	0.118
362.27	0.118
362.48	0.118
362.69	0.118
362.89	0.119
363.10	0.119
363.31	0.119
363.52	0.119
363.73	0.119
363.93	0.119
364.14	0.119
364.35	0.119
364.56	0.119
364.77	0.119
364.97	0.119
365.18	0.120
365.39	0.120
365.60	0.120
365.81	0.120
366.01	0.120
366.22	0.120
366.43	0.120
366.64	0.120
366.84	0.120
367.05	0.121
367.26	0.121
367.47	0.121
367.68	0.121
367.88	0.121
368.09	0.121
368.30	0.122
368.51	0.122
368.71	0.122
368.92	0.122
369.13	0.122
369.34	0.122
369.55	0.122
369.75	0.122
369.96	0.122
370.17	0.122
370.38	0.123
370.58	0.123
370.79	0.123
371.00	0.123
371.21	0.123
371.41	0.123
371.62	0.123
371.83	0.123
372.04	0.123
372.24	0.123
372.45	0.123
372.66	0.123
372.87	0.123
373.07	0.123
373.28	0.123
373.49	0.124
373.70	0.124
373.90	0.124
374.11	0.124
374.32	0.124
374.53	0.124
374.73	0.124
374.94	0.124
375.15	0.124
375.36	0.124
375.56	0.124
375.77	0.124
375.98	0.124
376.19	0.124
376.39	0.124
376.60	0.124
376.81	0.124
377.02	0.125
377.22	0.125
377.43	0.125
377.64	0.125
377.84	0.125
378.05	0.125
378.26	0.125
378.47	0.125
378.67	0.125
378.88	0.125
379.09	0.126
379.30	0.126
379.50	0.126
379.71	0.126
379.92	0.126
380.12	0.126
380.33	0.126
380.54	0.126
380.75	0.126
380.95	0.126
381.16	0.126
381.37	0.126
381.57	0.126
381.78	0.126
381.99	0.126
382.20	0.126
382.40	0.126
382.61	0.126
382.82	0.126
383.02	0.126
383.23	0.127
383.44	0.127
383.64	0.127
383.85	0.127
384.06	0.127
384.27	0.127
384.47	0.127
384.68	0.127
384.89	0.127
385.09	0.127
385.30	0.126
385.51	0.127
385.71	0.126
385.92	0.127
386.13	0.127
386.33	0.127
386.54	0.127
386.75	0.127
386.95	0.127
387.16	0.127
387.37	0.127
387.58	0.127
387.78	0.127
387.99	0.127
388.20	0.127
388.40	0.128
388.61	0.128
388.82	0.128
389.02	0.128
389.23	0.127
389.44	0.127
389.64	0.128
389.85	0.128
390.06	0.127
390.26	0.127
390.47	0.127
390.68	0.127
390.88	0.127
391.09	0.127
391.30	0.127
391.50	0.128
391.71	0.128
391.92	0.128
392.12	0.128
392.33	0.128
392.53	0.128
392.74	0.128
392.95	0.128
393.15	0.129
393.36	0.129
393.57	0.129
393.77	0.129
393.98	0.129
394.19	0.129
394.39	0.129
394.60	0.129
394.81	0.129
395.01	0.129
395.22	0.129
395.43	0.129
395.63	0.129
395.84	0.129
396.04	0.129
396.25	0.128
396.46	0.128
396.66	0.128
396.87	0.129
397.08	0.129
397.28	0.129
397.49	0.129
397.69	0.129
397.90	0.129
398.11	0.129
398.31	0.129
398.52	0.129
398.73	0.129
398.93	0.129
399.14	0.129
399.34	0.129
399.55	0.129
399.76	0.129
399.96	0.129
400.17	0.129
400.37	0.129
400.58	0.130
400.79	0.130
400.99	0.129
401.20	0.130
401.41	0.130
401.61	0.130
401.82	0.130
402.02	0.130
402.23	0.130
402.44	0.130
402.64	0.130
402.85	0.130
403.05	0.130
403.26	0.130
403.47	0.130
403.67	0.130
403.88	0.130
404.08	0.130
404.29	0.129
404.50	0.129
404.70	0.130
404.91	0.130
405.11	0.130
405.32	0.129
405.52	0.129
405.73	0.129
405.94	0.129
406.14	0.129
406.35	0.129
406.55	0.129
406.76	0.129
406.97	0.129
407.17	0.129
407.38	0.129
407.58	0.130
407.79	0.129
407.99	0.130
408.20	0.130
408.41	0.130
408.61	0.130
408.82	0.130
409.02	0.130
409.23	0.130
409.43	0.130
409.64	0.130
409.84	0.130
410.05	0.130
410.26	0.130
410.46	0.130
410.67	0.130
410.87	0.130
411.08	0.130
411.28	0.130
411.49	0.130
411.69	0.130
411.90	0.130
412.11	0.130
412.31	0.130
412.52	0.130
412.72	0.130
412.93	0.130
413.13	0.130
413.34	0.130
413.54	0.130
413.75	0.130
413.95	0.130
414.16	0.130
414.37	0.131
414.57	0.131
414.78	0.131
414.98	0.131
415.19	0.131
415.39	0.131
415.60	0.131
415.80	0.131
416.01	0.131
416.21	0.131
416.42	0.131
416.62	0.131
416.83	0.131
417.03	0.131
417.24	0.131
417.44	0.131
417.65	0.131
417.86	0.131
418.06	0.131
418.27	0.130
418.47	0.130
418.68	0.130
418.88	0.130
419.09	0.130
419.29	0.130
419.50	0.130
419.70	0.130
419.91	0.130
420.11	0.130
420.32	0.131
420.52	0.131
420.73	0.131
420.93	0.131
421.14	0.131
421.34	0.131
421.55	0.131
421.75	0.131
421.96	0.131
422.16	0.131
422.37	0.131
422.57	0.131
422.78	0.131
422.98	0.131
423.19	0.131
423.39	0.131
423.60	0.131
423.80	0.131
424.01	0.132
424.21	0.132
424.42	0.132
424.62	0.132
424.83	0.132
425.03	0.132
425.23	0.132
425.44	0.132
425.64	0.131
425.85	0.131
426.05	0.131
426.26	0.131
426.46	0.131
426.67	0.131
426.87	0.131
427.08	0.131
427.28	0.131
427.49	0.131
427.69	0.131
427.90	0.131
428.10	0.131
428.31	0.131
428.51	0.131
428.71	0.131
428.92	0.131
429.12	0.131
429.33	0.131
429.53	0.131
429.74	0.131
429.94	0.131
430.15	0.132
430.35	0.132
430.56	0.132
430.76	0.132
430.96	0.132
431.17	0.132
431.37	0.132
431.58	0.132
431.78	0.132
431.99	0.132
432.19	0.133
432.40	0.133
432.60	0.133
432.80	0.133
433.01	0.133
433.21	0.133
433.42	0.133
433.62	0.133
433.83	0.132
434.03	0.132
434.23	0.132
434.44	0.132
434.64	0.132
434.85	0.132
435.05	0.132
435.26	0.132
435.46	0.132
435.66	0.132
435.87	0.132
436.07	0.132
436.28	0.132
436.48	0.132
436.69	0.132
436.89	0.132
437.09	0.132
437.30	0.132
437.50	0.132
437.71	0.132
437.91	0.133
438.11	0.133
438.32	0.133
438.52	0.133
438.73	0.133
438.93	0.133
439.13	0.133
439.34	0.133
439.54	0.133
439.75	0.133
439.95	0.133
440.15	0.133
440.36	0.132
440.56	0.133
440.77	0.133
440.97	0.133
441.17	0.133
441.38	0.133
441.58	0.132
441.79	0.132
441.99	0.132
442.19	0.132
442.40	0.132
442.60	0.132
442.81	0.132
443.01	0.132
443.21	0.132
443.42	0.132
443.62	0.132
443.82	0.132
444.03	0.132
444.23	0.132
444.44	0.133
444.64	0.132
444.84	0.133
445.05	0.133
445.25	0.133
445.45	0.133
445.66	0.133
445.86	0.133
446.06	0.133
446.27	0.133
446.47	0.133
446.68	0.133
446.88	0.133
447.08	0.133
447.29	0.133
447.49	0.133
447.69	0.133
447.90	0.133
448.10	0.133
448.30	0.133
448.51	0.133
448.71	0.133
448.91	0.133
449.12	0.133
449.32	0.133
449.52	0.133
449.73	0.133
449.93	0.133
450.14	0.133
450.34	0.133
450.54	0.133
450.75	0.133
450.95	0.133
451.15	0.133
451.36	0.133
451.56	0.133
451.76	0.133
451.97	0.133
452.17	0.133
452.37	0.133
452.58	0.133
452.78	0.133
452.98	0.133
453.19	0.133
453.39	0.133
453.59	0.133
453.79	0.133
454.00	0.133
454.20	0.133
454.40	0.133
454.61	0.133
454.81	0.133
455.01	0.133
455.22	0.133
455.42	0.133
455.62	0.133
455.83	0.133
456.03	0.133
456.23	0.133
456.44	0.133
456.64	0.133
456.84	0.133
457.04	0.133
457.25	0.133
457.45	0.133
457.65	0.133
457.86	0.133
458.06	0.133
458.26	0.133
458.47	0.133
458.67	0.133
458.87	0.133
459.07	0.133
459.28	0.133
459.48	0.133
459.68	0.134
459.89	0.134
460.09	0.134
460.29	0.134
460.49	0.134
460.70	0.134
460.90	0.134
461.10	0.134
461.31	0.134
461.51	0.134
461.71	0.134
461.91	0.134
462.12	0.134
462.32	0.134
462.52	0.134
462.72	0.134
462.93	0.134
463.13	0.134
463.33	0.134
463.53	0.134
463.74	0.133
463.94	0.133
464.14	0.133
464.35	0.133
464.55	0.133
464.75	0.133
464.95	0.133
465.16	0.133
465.36	0.133
465.56	0.134
465.76	0.134
465.97	0.134
466.17	0.134
466.37	0.134
466.57	0.134
466.78	0.134
466.98	0.134
467.18	0.134
467.38	0.134
467.59	0.134
467.79	0.134
467.99	0.134
468.19	0.135
468.39	0.134
468.60	0.134
468.80	0.134
469.00	0.134
469.20	0.134
469.41	0.134
469.61	0.134
469.81	0.134
470.01	0.134
470.22	0.134
470.42	0.134
470.62	0.134
470.82	0.134
471.02	0.134
471.23	0.134
471.43	0.134
471.63	0.134
471.83	0.134
472.04	0.134
472.24	0.134
472.44	0.133
472.64	0.134
472.84	0.134
473.05	0.134
473.25	0.133
473.45	0.133
473.65	0.133
473.85	0.133
474.06	0.133
474.26	0.133
474.46	0.134
474.66	0.134
474.86	0.134
475.07	0.134
475.27	0.134
475.47	0.134
475.67	0.134
475.87	0.134
476.08	0.134
476.28	0.134
476.48	0.134
476.68	0.134
476.88	0.135
477.09	0.135
477.29	0.135
477.49	0.135
477.69	0.135
477.89	0.135
478.09	0.135
478.30	0.134
478.50	0.134
478.70	0.134
478.90	0.134
479.10	0.134
479.31	0.134
479.51	0.134
479.71	0.134
479.91	0.134
480.11	0.134
480.31	0.134
480.52	0.134
480.72	0.134
480.92	0.134
481.12	0.134
481.32	0.134
481.52	0.134
481.72	0.134
481.93	0.134
482.13	0.134
482.33	0.134
482.53	0.134
482.73	0.134
482.93	0.134
483.14	0.134
483.34	0.134
483.54	0.134
483.74	0.134
483.94	0.134
484.14	0.134
484.34	0.134
484.55	0.134
484.75	0.134
484.95	0.134
485.15	0.134
485.35	0.134
485.55	0.134
485.75	0.134
485.96	0.134
486.16	0.134
486.36	0.134
486.56	0.134
486.76	0.134
486.96	0.135
487.16	0.135
487.36	0.135
487.57	0.135
487.77	0.135
487.97	0.135
488.17	0.135
488.37	0.135
488.57	0.136
488.77	0.136
488.97	0.136
489.18	0.136
489.38	0.136
489.58	0.136
489.78	0.135
489.98	0.135
490.18	0.136
490.38	0.136
490.58	0.135
490.78	0.135
490.98	0.135
491.19	0.135
491.39	0.135
491.59	0.135
491.79	0.135
491.99	0.135
492.19	0.135
492.39	0.135
492.59	0.135
492.79	0.135
492.99	0.135
493.20	0.135
493.40	0.135
493.60	0.135
493.80	0.135
494.00	0.135
494.20	0.135
494.40	0.135
494.60	0.135
494.80	0.135
495.00	0.135
495.20	0.135
495.40	0.135
495.61	0.135
495.81	0.136
496.01	0.136
496.21	0.136
496.41	0.136
496.61	0.136
496.81	0.136
497.01	0.136
497.21	0.136
497.41	0.136
497.61	0.136
497.81	0.136
498.01	0.136
498.21	0.136
498.41	0.136
498.61	0.136
498.82	0.136
499.02	0.136
499.22	0.136
499.42	0.136
499.62	0.136
499.82	0.136
500.02	0.136
500.22	0.136
500.42	0.136
500.62	0.136
500.82	0.136
501.02	0.136
501.22	0.136
501.42	0.136
501.62	0.136
501.82	0.136
502.02	0.136
502.22	0.136
502.42	0.136
502.62	0.136
502.82	0.136
503.02	0.136
503.22	0.136
503.42	0.136
503.63	0.136
503.83	0.136
504.03	0.136
504.23	0.136
504.43	0.137
504.63	0.137
504.83	0.137
505.03	0.137
505.23	0.137
505.43	0.137
505.63	0.137
505.83	0.137
506.03	0.137
506.23	0.137
506.43	0.137
506.63	0.137
506.83	0.137
507.03	0.137
507.23	0.137
507.43	0.137
507.63	0.137
507.83	0.137
508.03	0.137
508.23	0.137
508.43	0.137
508.63	0.137
508.83	0.137
509.03	0.137
509.23	0.137
509.43	0.137
509.63	0.137
509.83	0.137
510.03	0.137
510.23	0.137
510.43	0.137
510.63	0.137
510.83	0.137
511.03	0.137
511.23	0.137
511.43	0.137
511.63	0.137
511.83	0.137
512.03	0.137
512.22	0.137
512.42	0.137
512.62	0.137
512.82	0.137
513.02	0.137
513.22	0.137
513.42	0.137
513.62	0.137
513.82	0.137
514.02	0.137
514.22	0.137
514.42	0.137
514.62	0.137
514.82	0.137
515.02	0.137
515.22	0.137
515.42	0.137
515.62	0.137
515.82	0.137
516.02	0.137
516.22	0.137
516.42	0.137
516.62	0.137
516.82	0.137
517.01	0.137
517.21	0.137
517.41	0.137
517.61	0.137
517.81	0.137
518.01	0.137
518.21	0.137
518.41	0.137
518.61	0.137
518.81	0.138
519.01	0.138
519.21	0.138
519.41	0.138
519.61	0.138
519.81	0.138
520.00	0.138
520.20	0.138
520.40	0.138
520.60	0.138
520.80	0.138
521.00	0.138
521.20	0.138
521.40	0.138
521.60	0.138
521.80	0.138
522.00	0.138
522.20	0.138
522.39	0.138
522.59	0.137
522.79	0.137
522.99	0.137
523.19	0.137
523.39	0.137
523.59	0.137
523.79	0.137
523.99	0.137
524.19	0.138
524.38	0.138
524.58	0.138
524.78	0.138
524.98	0.138
525.18	0.138
525.38	0.138
525.58	0.138
525.78	0.138
525.98	0.138
526.18	0.138
526.37	0.138
526.57	0.137
526.77	0.137
526.97	0.138
527.17	0.138
527.37	0.137
527.57	0.138
527.77	0.138
527.96	0.138
528.16	0.138
528.36	0.138
528.56	0.138
528.76	0.138
528.96	0.138
529.16	0.138
529.36	0.138
529.55	0.138
529.75	0.138
529.95	0.138
530.15	0.138
530.35	0.138
530.55	0.138
530.75	0.138
530.94	0.138
531.14	0.138
531.34	0.138
531.54	0.138
531.74	0.138
531.94	0.138
532.13	0.138
532.33	0.138
532.53	0.138
532.73	0.138
532.93	0.138
533.13	0.138
533.33	0.138
533.52	0.138
533.72	0.138
533.92	0.138
534.12	0.138
534.32	0.138
534.52	0.138
534.71	0.138
534.91	0.138
535.11	0.138
535.31	0.138
535.51	0.138
535.71	0.138
535.90	0.138
536.10	0.138
536.30	0.138
536.50	0.138
536.70	0.138
536.89	0.138
537.09	0.138
537.29	0.138
537.49	0.138
537.69	0.138
537.89	0.138
538.08	0.138
538.28	0.138
538.48	0.138
538.68	0.138
538.88	0.138
539.07	0.138
539.27	0.138
539.47	0.138
539.67	0.138
539.87	0.138
540.06	0.138
540.26	0.139
540.46	0.139
540.66	0.139
540.86	0.139
541.05	0.139
541.25	0.139
541.45	0.139
541.65	0.139
541.84	0.139
542.04	0.138
542.24	0.138
542.44	0.138
542.64	0.138
542.83	0.138
543.03	0.138
543.23	0.138
543.43	0.138
543.62	0.138
543.82	0.138
544.02	0.138
544.22	0.138
544.42	0.138
544.61	0.138
544.81	0.138
545.01	0.138
545.21	0.138
545.40	0.138
545.60	0.139
545.80	0.138
546.00	0.139
546.19	0.139
546.39	0.139
546.59	0.139
546.79	0.139
546.98	0.139
547.18	0.139
547.38	0.139
547.58	0.139
547.77	0.139
547.97	0.139
548.17	0.139
548.37	0.139
548.56	0.139
548.76	0.139
548.96	0.139
549.16	0.139
549.35	0.139
549.55	0.139
549.75	0.139
549.95	0.139
550.14	0.139
550.34	0.139
550.54	0.139
550.73	0.139
550.93	0.139
551.13	0.138
551.33	0.138
551.52	0.138
551.72	0.138
551.92	0.138
552.12	0.138
552.31	0.138
552.51	0.138
552.71	0.138
552.90	0.138
553.10	0.138
553.30	0.138
553.50	0.139
553.69	0.139
553.89	0.139
554.09	0.139
554.28	0.139
554.48	0.139
554.68	0.139
554.87	0.139
555.07	0.139
555.27	0.139
555.47	0.140
555.66	0.140
555.86	0.140
556.06	0.140
556.25	0.140
556.45	0.140
556.65	0.140
556.84	0.140
557.04	0.140
557.24	0.140
557.43	0.140
557.63	0.139
557.83	0.139
558.02	0.139
558.22	0.139
558.42	0.139
558.61	0.139
558.81	0.138
559.01	0.138
559.21	0.138
559.40	0.138
559.60	0.138
559.80	0.138
559.99	0.138
560.19	0.138
560.39	0.138
560.58	0.138
560.78	0.138
560.97	0.139
561.17	0.139
561.37	0.139
561.56	0.139
561.76	0.139
561.96	0.139
562.15	0.139
562.35	0.139
562.55	0.139
562.74	0.139
562.94	0.139
563.14	0.140
563.33	0.140
563.53	0.140
563.73	0.140
563.92	0.140
564.12	0.139
564.31	0.139
564.51	0.139
564.71	0.139
564.90	0.139
565.10	0.139
565.30	0.139
565.49	0.139
565.69	0.139
565.89	0.139
566.08	0.139
566.28	0.139
566.47	0.139
566.67	0.139
566.87	0.138
567.06	0.138
567.26	0.138
567.46	0.138
567.65	0.138
567.85	0.138
568.04	0.138
568.24	0.137
568.44	0.137
568.63	0.137
568.83	0.137
569.02	0.137
569.22	0.137
569.42	0.137
569.61	0.137
569.81	0.137
570.00	0.137
570.20	0.137
570.40	0.137
570.59	0.137
570.79	0.137
570.98	0.137
571.18	0.137
571.38	0.136
571.57	0.136
571.77	0.136
571.96	0.136
572.16	0.137
572.35	0.137
572.55	0.137
572.75	0.137
572.94	0.137
573.14	0.138
573.33	0.138
573.53	0.138
573.73	0.138
573.92	0.139
574.12	0.139
574.31	0.139
574.51	0.138
574.70	0.138
574.90	0.136
575.09	0.134
575.29	0.132
575.49	0.129
575.68	0.127
575.88	0.125
576.07	0.122
576.27	0.120
576.46	0.118
576.66	0.115
576.86	0.113
577.05	0.112
577.25	0.111
577.44	0.111
577.64	0.110
577.83	0.110
578.03	0.108
578.22	0.107
578.42	0.104
578.61	0.100
578.81	0.097
579.00	0.094
579.20	0.092
579.40	0.090
579.59	0.087
579.79	0.085
579.98	0.083
580.18	0.082
580.37	0.081
580.57	0.082
580.76	0.084
580.96	0.085
581.15	0.087
581.35	0.088
581.54	0.089
581.74	0.090
581.93	0.090
582.13	0.091
582.32	0.091
582.52	0.092
582.71	0.093
582.91	0.094
583.10	0.096
583.30	0.098
583.49	0.100
583.69	0.103
583.88	0.106
584.08	0.110
584.27	0.114
584.47	0.117
584.66	0.120
584.86	0.122
585.05	0.124
585.25	0.124
585.44	0.124
585.64	0.124
585.83	0.123
586.03	0.123
586.22	0.124
586.42	0.125
586.61	0.126
586.81	0.128
587.00	0.129
587.20	0.131
587.39	0.133
587.59	0.134
587.78	0.136
587.98	0.138
588.17	0.139
588.37	0.140
588.56	0.140
588.76	0.139
588.95	0.139
589.15	0.139
589.34	0.139
589.54	0.139
589.73	0.139
589.92	0.138
590.12	0.138
590.31	0.138
590.51	0.138
590.70	0.138
590.90	0.137
591.09	0.137
591.29	0.137
591.48	0.137
591.68	0.137
591.87	0.137
592.06	0.137
592.26	0.137
592.45	0.137
592.65	0.137
592.84	0.138
593.04	0.138
593.23	0.138
593.43	0.138
593.62	0.138
593.81	0.138
594.01	0.139
594.20	0.139
594.40	0.139
594.59	0.140
594.79	0.140
594.98	0.140
595.17	0.140
595.37	0.140
595.56	0.139
595.76	0.139
595.95	0.139
596.14	0.138
596.34	0.138
596.53	0.137
596.73	0.137
596.92	0.137
597.12	0.136
597.31	0.136
597.50	0.136
597.70	0.136
597.89	0.136
598.09	0.136
598.28	0.136
598.47	0.137
598.67	0.137
598.86	0.137
599.06	0.137
599.25	0.137
599.44	0.138
599.64	0.138
599.83	0.138
600.03	0.138
600.22	0.139
600.41	0.139
600.61	0.139
600.80	0.139
601.00	0.139
601.19	0.139
601.38	0.139
601.58	0.139
601.77	0.139
601.96	0.139
602.16	0.139
602.35	0.139
602.55	0.139
602.74	0.138
602.93	0.138
603.13	0.138
603.32	0.138
603.51	0.137
603.71	0.137
603.90	0.137
604.09	0.137
604.29	0.136
604.48	0.136
604.68	0.136
604.87	0.136
605.06	0.136
605.26	0.137
605.45	0.137
605.64	0.137
605.84	0.137
606.03	0.137
606.22	0.137
606.42	0.138
606.61	0.138
606.80	0.138
607.00	0.138
607.19	0.138
607.38	0.138
607.58	0.139
607.77	0.139
607.96	0.139
608.16	0.139
608.35	0.140
608.54	0.140
608.74	0.140
608.93	0.140
609.12	0.140
609.32	0.140
609.51	0.140
609.70	0.140
609.90	0.140
610.09	0.140
610.28	0.140
610.48	0.139
610.67	0.139
610.86	0.139
611.06	0.139
611.25	0.139
611.44	0.139
611.64	0.139
611.83	0.139
612.02	0.139
612.21	0.138
612.41	0.138
612.60	0.139
612.79	0.138
612.99	0.139
613.18	0.139
613.37	0.139
613.57	0.139
613.76	0.139
613.95	0.139
614.14	0.139
614.34	0.139
614.53	0.139
614.72	0.139
614.92	0.140
615.11	0.140
615.30	0.140
615.49	0.140
615.69	0.140
615.88	0.140
616.07	0.140
616.26	0.140
616.46	0.140
616.65	0.140
616.84	0.140
617.04	0.141
617.23	0.141
617.42	0.141
617.61	0.141
617.81	0.141
618.00	0.141
618.19	0.141
618.38	0.141
618.58	0.140
618.77	0.140
618.96	0.140
619.15	0.140
619.35	0.140
619.54	0.140
619.73	0.140
619.92	0.140
620.12	0.140
620.31	0.140
620.50	0.140
620.69	0.141
620.89	0.141
621.08	0.141
621.27	0.140
621.46	0.141
621.66	0.141
621.85	0.141
622.04	0.141
622.23	0.141
622.43	0.140
622.62	0.140
622.81	0.140
623.00	0.140
623.19	0.141
623.39	0.141
623.58	0.141
623.77	0.141
623.96	0.141
624.16	0.141
624.35	0.141
624.54	0.141
624.73	0.141
624.92	0.141
625.12	0.141
625.31	0.141
625.50	0.141
625.69	0.141
625.88	0.141
626.08	0.142
626.27	0.142
626.46	0.142
626.65	0.142
626.84	0.142
627.04	0.142
627.23	0.142
627.42	0.142
627.61	0.142
627.80	0.142
628.00	0.142
628.19	0.142
628.38	0.142
628.57	0.142
628.76	0.142
628.96	0.142
629.15	0.143
629.34	0.143
629.53	0.143
629.72	0.143
629.91	0.143
630.11	0.143
630.30	0.143
630.49	0.143
630.68	0.143
630.87	0.143
631.06	0.143
631.26	0.143
631.45	0.143
631.64	0.143
631.83	0.143
632.02	0.143
632.21	0.143
632.41	0.143
632.60	0.143
632.79	0.143
632.98	0.143
633.17	0.143
633.36	0.143
633.55	0.143
633.75	0.143
633.94	0.143
634.13	0.143
634.32	0.143
634.51	0.143
634.70	0.143
634.89	0.143
635.09	0.143
635.28	0.143
635.47	0.144
635.66	0.144
635.85	0.144
636.04	0.144
636.23	0.144
636.43	0.144
636.62	0.144
636.81	0.144
637.00	0.144
637.19	0.144
637.38	0.144
637.57	0.144
637.76	0.144
637.95	0.144
638.15	0.144
638.34	0.144
638.53	0.144
638.72	0.144
638.91	0.144
639.10	0.144
639.29	0.144
639.48	0.144
639.67	0.144
639.87	0.144
640.06	0.144
640.25	0.144
640.44	0.144
640.63	0.144
640.82	0.144
641.01	0.144
641.20	0.145
641.39	0.145
641.58	0.145
641.78	0.145
641.97	0.145
642.16	0.145
642.35	0.145
642.54	0.145
642.73	0.145
642.92	0.145
643.11	0.145
643.30	0.145
643.49	0.145
643.68	0.145
643.87	0.145
644.06	0.145
644.25	0.145
644.45	0.144
644.64	0.145
644.83	0.145
645.02	0.145
645.21	0.145
645.40	0.145
645.59	0.144
645.78	0.144
645.97	0.144
646.16	0.144
646.35	0.144
646.54	0.143
646.73	0.143
646.92	0.143
647.11	0.143
647.30	0.143
647.49	0.143
647.68	0.143
647.88	0.143
648.07	0.143
648.26	0.143
648.45	0.143
648.64	0.143
648.83	0.143
649.02	0.143
649.21	0.143
649.40	0.143
649.59	0.144
649.78	0.144
649.97	0.144
650.16	0.144
650.35	0.144
650.54	0.144
650.73	0.145
650.92	0.145
651.11	0.145
651.30	0.145
651.49	0.145
651.68	0.145
651.87	0.145
652.06	0.145
652.25	0.145
652.44	0.144
652.63	0.143
652.82	0.142
653.01	0.140
653.20	0.139
653.39	0.138
653.58	0.138
653.77	0.137
653.96	0.136
654.15	0.136
654.34	0.136
654.53	0.136
654.72	0.136
654.91	0.137
655.10	0.137
655.29	0.138
655.48	0.138
655.67	0.138
655.86	0.138
656.05	0.138
656.24	0.138
656.43	0.139
656.62	0.139
656.81	0.139
657.00	0.140
657.19	0.142
657.38	0.142
657.57	0.143
657.76	0.144
657.95	0.145
658.14	0.145
658.33	0.146
658.51	0.146
658.70	0.147
658.89	0.147
659.08	0.147
659.27	0.146
659.46	0.145
659.65	0.145
659.84	0.145
660.03	0.145
660.22	0.145
660.41	0.145
660.60	0.145
660.79	0.145
660.98	0.145
661.17	0.145
661.36	0.145
661.55	0.145
661.74	0.145
661.92	0.145
662.11	0.144
662.30	0.144
662.49	0.144
662.68	0.144
662.87	0.144
663.06	0.144
663.25	0.144
663.44	0.144
663.63	0.144
663.82	0.144
664.01	0.144
664.20	0.144
664.38	0.144
664.57	0.144
664.76	0.144
664.95	0.144
665.14	0.144
665.33	0.144
665.52	0.144
665.71	0.145
665.90	0.145
666.09	0.145
666.28	0.145
666.46	0.145
666.65	0.145
666.84	0.145
667.03	0.145
667.22	0.145
667.41	0.145
667.60	0.145
667.79	0.145
667.98	0.145
668.16	0.145
668.35	0.145
668.54	0.144
668.73	0.144
668.92	0.144
669.11	0.144
669.30	0.144
669.49	0.143
669.67	0.143
669.86	0.143
670.05	0.143
670.24	0.143
670.43	0.143
670.62	0.143
670.81	0.143
671.00	0.143
671.18	0.143
671.37	0.143
671.56	0.143
671.75	0.143
671.94	0.143
672.13	0.143
672.32	0.143
672.50	0.143
672.69	0.143
672.88	0.143
673.07	0.143
673.26	0.144
673.45	0.144
673.63	0.144
673.82	0.144
674.01	0.144
674.20	0.145
674.39	0.145
674.58	0.145
674.76	0.145
674.95	0.145
675.14	0.145
675.33	0.145
675.52	0.145
675.71	0.145
675.89	0.144
676.08	0.145
676.27	0.145
676.46	0.145
676.65	0.144
676.84	0.144
677.02	0.144
677.21	0.144
677.40	0.144
677.59	0.144
677.78	0.144
677.96	0.144
678.15	0.144
678.34	0.144
678.53	0.144
678.72	0.143
678.90	0.143
679.09	0.144
679.28	0.143
679.47	0.143
679.66	0.143
679.84	0.143
680.03	0.143
680.22	0.143
680.41	0.143
680.60	0.143
680.78	0.143
680.97	0.143
681.16	0.143
681.35	0.143
681.53	0.143
681.72	0.143
681.91	0.143
682.10	0.143
682.29	0.143
682.47	0.143
682.66	0.143
682.85	0.143
683.04	0.143
683.22	0.143
683.41	0.143
683.60	0.143
683.79	0.143
683.97	0.143
684.16	0.143
684.35	0.143
684.54	0.143
684.72	0.143
684.91	0.143
685.10	0.143
685.29	0.143
685.47	0.143
685.66	0.143
685.85	0.143
686.04	0.143
686.22	0.143
686.41	0.143
686.60	0.143
686.79	0.143
686.97	0.143
687.16	0.143
687.35	0.143
687.54	0.143
687.72	0.144
687.91	0.143
688.10	0.143
688.29	0.143
688.47	0.143
688.66	0.143
688.85	0.143
689.03	0.143
689.22	0.143
689.41	0.143
689.60	0.143
689.78	0.143
689.97	0.143
690.16	0.143
690.34	0.143
690.53	0.143
690.72	0.143
690.91	0.144
691.09	0.144
691.28	0.144
691.47	0.144
691.65	0.144
691.84	0.144
692.03	0.144
692.21	0.144
692.40	0.144
692.59	0.144
692.77	0.144
692.96	0.144
693.15	0.144
693.34	0.144
693.52	0.144
693.71	0.144
693.90	0.144
694.08	0.144
694.27	0.144
694.46	0.144
694.64	0.144
694.83	0.143
695.02	0.143
695.20	0.143
695.39	0.143
695.58	0.143
695.76	0.143
695.95	0.143
696.14	0.143
696.32	0.143
696.51	0.143
696.70	0.143
696.88	0.143
697.07	0.143
697.26	0.143
697.44	0.143
697.63	0.143
697.81	0.143
698.00	0.143
698.19	0.144
698.37	0.144
698.56	0.144
698.75	0.144
698.93	0.144
699.12	0.144
699.31	0.144
699.49	0.145
699.68	0.145
699.87	0.145
700.05	0.145
700.24	0.145
700.42	0.145
700.61	0.145
700.80	0.145
700.98	0.145
701.17	0.145
701.36	0.145
701.54	0.145
701.73	0.145
701.91	0.145
702.10	0.145
702.29	0.145
702.47	0.145
702.66	0.145
702.84	0.145
703.03	0.145
703.22	0.145
703.40	0.145
703.59	0.145
703.77	0.145
703.96	0.144
704.15	0.144
704.33	0.144
704.52	0.144
704.70	0.144
704.89	0.144
705.08	0.144
705.26	0.144
705.45	0.143
705.63	0.143
705.82	0.143
706.00	0.143
706.19	0.143
706.38	0.143
706.56	0.142
706.75	0.142
706.93	0.142
707.12	0.142
707.30	0.142
707.49	0.142
707.68	0.142
707.86	0.141
708.05	0.141
708.23	0.141
708.42	0.141
708.60	0.142
708.79	0.142
708.98	0.142
709.16	0.142
709.35	0.142
709.53	0.142
709.72	0.143
709.90	0.143
710.09	0.143
710.27	0.143
710.46	0.143
710.64	0.143
710.83	0.143
711.02	0.143
711.20	0.143
711.39	0.143
711.57	0.143
711.76	0.143
711.94	0.143
712.13	0.143
712.31	0.143
712.50	0.142
712.68	0.142
712.87	0.142
713.05	0.142
713.24	0.142
713.42	0.142
713.61	0.142
713.79	0.142
713.98	0.142
714.16	0.142
714.35	0.142
714.54	0.142
714.72	0.142
714.91	0.142
715.09	0.142
715.28	0.142
715.46	0.142
715.65	0.142
715.83	0.142
716.02	0.141
716.20	0.141
716.39	0.141
716.57	0.141
716.76	0.141
716.94	0.141
717.12	0.141
717.31	0.141
717.49	0.141
717.68	0.141
717.86	0.140
718.05	0.140
718.23	0.140
718.42	0.140
718.60	0.140
718.79	0.140
718.97	0.140
719.16	0.140
719.34	0.140
719.53	0.140
719.71	0.140
719.90	0.140
720.08	0.140
720.27	0.140
720.45	0.140
720.63	0.140
720.82	0.140
721.00	0.140
721.19	0.140
721.37	0.140
721.56	0.140
721.74	0.140
721.93	0.140
722.11	0.141
722.30	0.140
722.48	0.140
722.66	0.140
722.85	0.140
723.03	0.140
723.22	0.139
723.40	0.139
723.59	0.139
723.77	0.139
723.95	0.139
724.14	0.138
724.32	0.138
724.51	0.138
724.69	0.138
724.88	0.137
725.06	0.138
725.24	0.137
725.43	0.137
725.61	0.137
725.80	0.136
725.98	0.136
726.16	0.136
726.35	0.136
726.53	0.136
726.72	0.136
726.90	0.136
727.09	0.136
727.27	0.136
727.45	0.136
727.64	0.136
727.82	0.136
728.01	0.136
728.19	0.136
728.37	0.136
728.56	0.135
728.74	0.135
728.92	0.135
729.11	0.135
729.29	0.136
729.48	0.136
729.66	0.136
729.84	0.135
730.03	0.135
730.21	0.135
730.40	0.135
730.58	0.134
730.76	0.134
730.95	0.134
731.13	0.134
731.31	0.133
731.50	0.133
731.68	0.133
731.86	0.133
732.05	0.133
732.23	0.133
732.42	0.133
732.60	0.134
732.78	0.133
732.97	0.133
733.15	0.132
733.33	0.132
733.52	0.132
733.70	0.131
733.88	0.131
734.07	0.130
734.25	0.130
734.43	0.129
734.62	0.129
734.80	0.129
734.98	0.128
735.17	0.128
735.35	0.127
735.53	0.127
735.72	0.128
735.90	0.128
736.08	0.127
736.27	0.127
736.45	0.127
736.63	0.127
736.82	0.127
737.00	0.127
737.18	0.128
737.37	0.128
737.55	0.128
737.73	0.127
737.92	0.127
738.10	0.127
738.28	0.127
738.46	0.127
738.65	0.127
738.83	0.127
739.01	0.127
739.20	0.126
739.38	0.127
739.56	0.127
739.75	0.127
739.93	0.128
740.11	0.128
740.29	0.128
740.48	0.129
740.66	0.129
740.84	0.129
741.03	0.129
741.21	0.129
741.39	0.129
741.57	0.129
741.76	0.129
741.94	0.128
742.12	0.128
742.31	0.127
742.49	0.127
742.67	0.127
742.85	0.127
743.04	0.127
743.22	0.126
743.40	0.126
743.58	0.127
743.77	0.126
743.95	0.126
744.13	0.126
744.31	0.126
744.50	0.127
744.68	0.126
744.86	0.127
745.04	0.128
745.23	0.128
745.41	0.128
745.59	0.128
745.77	0.128
745.96	0.128
746.14	0.129
746.32	0.129
746.50	0.129
746.69	0.129
746.87	0.129
747.05	0.129
747.23	0.129
747.42	0.129
747.60	0.129
747.78	0.130
747.96	0.130
748.14	0.130
748.33	0.130
748.51	0.130
748.69	0.130
748.87	0.131
749.06	0.131
749.24	0.131
749.42	0.132
749.60	0.132
749.78	0.132
749.97	0.132
750.15	0.132
750.33	0.133
750.51	0.132
750.69	0.132
750.88	0.132
751.06	0.132
751.24	0.131
751.42	0.131
751.60	0.131
751.79	0.132
751.97	0.132
752.15	0.132
752.33	0.131
752.51	0.131
752.69	0.131
752.88	0.131
753.06	0.131
753.24	0.131
753.42	0.131
753.60	0.131
753.78	0.130
753.97	0.129
754.15	0.129
754.33	0.129
754.51	0.128
754.69	0.128
754.87	0.127
755.06	0.127
755.24	0.127
755.42	0.128
755.60	0.127
755.78	0.128
755.96	0.129
756.15	0.129
756.33	0.129
756.51	0.129
756.69	0.130
756.87	0.130
757.05	0.130
757.23	0.130
757.42	0.130
757.60	0.130
757.78	0.130
757.96	0.130
758.14	0.130
758.32	0.130
758.50	0.130
758.69	0.131
758.87	0.131
759.05	0.132
759.23	0.132
759.41	0.131
759.59	0.132
759.77	0.132
759.95	0.132
760.13	0.133
760.32	0.133
760.50	0.133
760.68	0.133
760.86	0.134
761.04	0.134
761.22	0.134
761.40	0.134
761.58	0.134
761.76	0.134
761.95	0.134
762.13	0.134
762.31	0.134
762.49	0.134
762.67	0.134
762.85	0.133
763.03	0.132
763.21	0.132
763.39	0.131
763.57	0.132
763.75	0.131
763.94	0.131
764.12	0.131
764.30	0.130
764.48	0.131
764.66	0.130
764.84	0.131
765.02	0.131
765.20	0.131
765.38	0.131
765.56	0.131
765.74	0.131
765.92	0.131
766.10	0.132
766.28	0.132
766.46	0.132
766.65	0.132
766.83	0.132
767.01	0.132
767.19	0.132
767.37	0.132
767.55	0.132
767.73	0.132
767.91	0.132
768.09	0.132
768.27	0.132
768.45	0.133
768.63	0.133
768.81	0.133
768.99	0.133
769.17	0.134
769.35	0.134
769.53	0.135
769.71	0.135
769.89	0.136
770.07	0.136
770.25	0.136
770.43	0.136
770.61	0.137
770.79	0.137
770.97	0.137
771.15	0.137
771.33	0.137
771.51	0.137
771.69	0.137
771.87	0.137
772.05	0.137
772.24	0.137
772.42	0.137
772.60	0.137
772.78	0.137
772.96	0.138
773.14	0.138
773.32	0.138
773.49	0.138
773.67	0.137
773.85	0.137
774.03	0.137
774.21	0.137
774.39	0.136
774.57	0.136
774.75	0.136
774.93	0.136
775.11	0.135
775.29	0.135
775.47	0.135
775.65	0.135
775.83	0.135
776.01	0.135
776.19	0.135
776.37	0.135
776.55	0.135
776.73	0.135
776.91	0.135
777.09	0.135
777.27	0.135
777.45	0.136
777.63	0.136
777.81	0.137
777.99	0.137
778.17	0.138
778.35	0.138
778.53	0.137
778.71	0.138
778.89	0.137
779.07	0.137
779.24	0.137
779.42	0.136
779.60	0.137
779.78	0.136
779.96	0.136
780.14	0.136
780.32	0.136
780.50	0.137
780.68	0.136
780.86	0.137
781.04	0.138
781.22	0.138
781.40	0.139
781.58	0.138
781.75	0.139
781.93	0.140
782.11	0.140
782.29	0.141
782.47	0.141
782.65	0.141
782.83	0.141
783.01	0.142
783.19	0.142
783.37	0.141
783.55	0.141
783.72	0.141
783.90	0.141
784.08	0.141
784.26	0.141
784.44	0.141
784.62	0.140
784.80	0.140
784.98	0.140
785.16	0.140
785.33	0.140
785.51	0.140
785.69	0.140
785.87	0.140
786.05	0.140
786.23	0.139
786.41	0.139
786.59	0.138
786.77	0.139
786.94	0.139
787.12	0.139
787.30	0.138
787.48	0.139
787.66	0.138
787.84	0.138
788.02	0.138
788.19	0.139
788.37	0.139
788.55	0.139
788.73	0.139
788.91	0.139
789.09	0.139
789.27	0.139
789.44	0.139
789.62	0.139
789.80	0.139
789.98	0.139
790.16	0.139
790.34	0.139
790.51	0.139
790.69	0.139
790.87	0.140
791.05	0.139
791.23	0.140
791.41	0.140
791.58	0.140
791.76	0.140
791.94	0.141
792.12	0.141
792.30	0.141
792.48	0.141
792.65	0.141
792.83	0.140
793.01	0.141
793.19	0.141
793.37	0.141
793.54	0.141
793.72	0.141
793.90	0.141
794.08	0.141
794.26	0.141
794.43	0.142
794.61	0.142
794.79	0.142
794.97	0.142
795.15	0.142
795.32	0.143
795.50	0.143
795.68	0.143
795.86	0.143
796.04	0.143
796.21	0.144
796.39	0.143
796.57	0.144
796.75	0.144
796.92	0.143
797.10	0.144
797.28	0.144
797.46	0.144
797.64	0.143
797.81	0.143
797.99	0.143
798.17	0.142
798.35	0.142
798.52	0.142
798.70	0.142
798.88	0.142
799.06	0.141
799.23	0.141
799.41	0.141
799.59	0.141
799.77	0.141
799.94	0.141
800.12	0.141
800.30	0.140
800.48	0.141
800.65	0.140
800.83	0.140
801.01	0.140
801.19	0.140
801.36	0.140
801.54	0.140
801.72	0.140
801.90	0.140
802.07	0.140
802.25	0.140
802.43	0.140
802.60	0.140
802.78	0.141
802.96	0.141
803.14	0.141
803.31	0.141
803.49	0.141
803.67	0.141
803.84	0.141
804.02	0.141
804.20	0.141
804.38	0.141
804.55	0.141
804.73	0.140
804.91	0.140
805.08	0.141
805.26	0.140
805.44	0.140
805.61	0.141
805.79	0.142
805.97	0.141
806.15	0.141
806.32	0.141
806.50	0.141
806.68	0.141
806.85	0.141
807.03	0.141
807.21	0.142
807.38	0.142
807.56	0.142
807.74	0.142
807.91	0.142
808.09	0.142
808.27	0.142
808.44	0.142
808.62	0.142
808.80	0.142
808.97	0.142
809.15	0.142
809.33	0.142
809.50	0.142
809.68	0.141
809.86	0.141
810.03	0.141
810.21	0.141
810.39	0.141
810.56	0.141
810.74	0.141
810.91	0.140
811.09	0.140
811.27	0.139
811.44	0.139
811.62	0.139
811.80	0.139
811.97	0.139
812.15	0.139
812.33	0.139
812.50	0.139
812.68	0.138
812.85	0.139
813.03	0.139
813.21	0.139
813.38	0.139
813.56	0.139
813.74	0.140
813.91	0.139
814.09	0.139
814.26	0.140
814.44	0.140
814.62	0.140
814.79	0.139
814.97	0.139
815.14	0.139
815.32	0.138
815.50	0.138
815.67	0.138
815.85	0.139
816.02	0.139
816.20	0.139
816.38	0.139
816.55	0.139
816.73	0.139
816.90	0.140
817.08	0.140
817.26	0.140
817.43	0.140
817.61	0.140
817.78	0.140
817.96	0.140
818.13	0.140
818.31	0.140
818.49	0.140
818.66	0.141
818.84	0.141
819.01	0.141
819.19	0.140
819.36	0.141
819.54	0.141
819.71	0.141
819.89	0.141
820.07	0.141
820.24	0.140
820.42	0.140
820.59	0.140
820.77	0.140
820.94	0.140
821.12	0.141
821.29	0.140
821.47	0.140
821.64	0.140
821.82	0.140
822.00	0.139
822.17	0.139
822.35	0.139
822.52	0.139
822.70	0.139
822.87	0.138
823.05	0.137
823.22	0.137
823.40	0.137
823.57	0.136
823.75	0.136
823.92	0.136
824.10	0.136
824.27	0.135
824.45	0.134
824.62	0.134
824.80	0.133
824.97	0.134
825.15	0.134
825.32	0.134
825.50	0.133
825.67	0.133
825.85	0.132
826.02	0.133
826.20	0.133
826.37	0.133
826.55	0.133
826.72	0.134
826.90	0.133
827.07	0.133
827.25	0.132
827.42	0.133
827.60	0.133
827.77	0.133
827.95	0.133
828.12	0.132
828.30	0.132
828.47	0.131
828.65	0.131
828.82	0.132
829.00	0.131
829.17	0.132
829.34	0.131
829.52	0.131
829.69	0.131
829.87	0.131
830.04	0.130
830.22	0.131
830.39	0.131
830.57	0.131
830.74	0.130
830.92	0.131
831.09	0.131
831.26	0.131
831.44	0.131
831.61	0.133
831.79	0.133
831.96	0.134
832.14	0.132
832.31	0.131
832.49	0.131
832.66	0.131
832.83	0.131
833.01	0.130
833.18	0.130
833.36	0.128
833.53	0.127
833.70	0.126
833.88	0.124
834.05	0.124
834.23	0.124
834.40	0.122
834.58	0.120
834.75	0.118
834.92	0.118
835.10	0.116
835.27	0.116
835.45	0.112
835.62	0.112
835.79	0.112
835.97	0.113
836.14	0.114
836.32	0.114
836.49	0.114
836.66	0.114
836.84	0.112
837.01	0.112
837.18	0.113
837.36	0.115
837.53	0.116
837.71	0.116
837.88	0.114
838.05	0.112
838.23	0.113
838.40	0.113
838.58	0.112
838.75	0.113
838.92	0.112
839.10	0.111
839.27	0.110
839.44	0.110
839.62	0.110
839.79	0.111
839.96	0.114
840.14	0.113
840.31	0.116
840.48	0.118
840.66	0.119
840.83	0.119
841.01	0.120
841.18	0.121
841.35	0.121
841.53	0.121
841.70	0.122
841.87	0.120
842.05	0.120
842.22	0.122
842.39	0.120
842.57	0.120
842.74	0.121
842.91	0.123
843.09	0.123
843.26	0.125
843.43	0.127
843.60	0.125
843.78	0.128
843.95	0.128
844.12	0.126
844.30	0.125
844.47	0.123
844.64	0.125
844.82	0.120
844.99	0.120
845.16	0.119
845.34	0.119
845.51	0.119
845.68	0.119
845.85	0.121
846.03	0.120
846.20	0.121
846.37	0.123
846.55	0.124
846.72	0.128
846.89	0.129
847.06	0.126
847.24	0.127
847.41	0.128
847.58	0.125
847.76	0.123
847.93	0.122
848.10	0.121
848.27	0.120
848.45	0.119
848.62	0.118
848.79	0.114
848.97	0.114
849.14	0.112
849.31	0.111
849.48	0.110
849.66	0.111
849.83	0.111
850.00	0.108
850.17	0.104
850.35	0.100
850.52	0.099
850.69	0.099
850.86	0.100
851.04	0.101
851.21	0.102
851.38	0.101
851.55	0.099
851.72	0.100
851.90	0.102
852.07	0.105
852.24	0.107
852.41	0.104
852.59	0.106
852.76	0.107
852.93	0.106
853.10	0.106
853.28	0.109
853.45	0.110
853.62	0.108
853.79	0.109
853.96	0.107
854.14	0.110
854.31	0.114
854.48	0.114
854.65	0.115
854.82	0.117
855.00	0.118
855.17	0.117
855.34	0.119
855.51	0.121
855.68	0.120
855.86	0.123
856.03	0.120
856.20	0.118
856.37	0.117
856.54	0.115
856.72	0.113
856.89	0.108
857.06	0.110
857.23	0.108
857.40	0.107
857.57	0.104
857.75	0.108
857.92	0.111
858.09	0.111
858.26	0.114
858.43	0.115
858.60	0.117
858.78	0.119
858.95	0.118
859.12	0.119
859.29	0.118
859.46	0.120
859.63	0.120
859.81	0.118
859.98	0.117
860.15	0.117
860.32	0.115
860.49	0.109
860.66	0.109
860.83	0.108
861.01	0.105
861.18	0.108
861.35	0.108
861.52	0.104
861.69	0.105
861.86	0.108
862.03	0.109
862.21	0.112
862.38	0.117
862.55	0.114
862.72	0.115
862.89	0.120
863.06	0.117
863.23	0.123
863.40	0.121
863.58	0.116
863.75	0.115
863.92	0.111
864.09	0.109
864.26	0.108
864.43	0.108
864.60	0.109
864.77	0.103
864.94	0.110
865.11	0.104
865.29	0.107
865.46	0.111
865.63	0.110
865.80	0.114
865.97	0.115
866.14	0.117
866.31	0.123
866.48	0.119
866.65	0.124
866.82	0.122
866.99	0.125
867.16	0.120
867.34	0.115
867.51	0.117
867.68	0.118
867.85	0.115
868.02	0.113
868.19	0.109
868.36	0.110
868.53	0.107
868.70	0.107
868.87	0.103
869.04	0.110
869.21	0.118
869.38	0.117
869.55	0.113
869.72	0.116
869.89	0.120
870.06	0.117
870.24	0.122
870.41	0.118
870.58	0.118
870.75	0.121
870.92	0.115
871.09	0.109
871.26	0.110
871.43	0.114
871.60	0.120
871.77	0.115
871.94	0.120
872.11	0.114
872.28	0.117
872.45	0.115
872.62	0.119
872.79	0.120
872.96	0.123
873.13	0.116
873.30	0.112
873.47	0.109
873.64	0.113
873.81	0.107
873.98	0.117
874.15	0.123
874.32	0.120
874.49	0.120
874.66	0.120
874.83	0.118
875.00	0.121
875.17	0.123
875.34	0.116
875.51	0.113
875.68	0.116
875.85	0.108
876.02	0.107
876.19	0.107
876.36	0.103
876.53	0.109
876.70	0.110
876.87	0.115
877.04	0.118
877.21	0.121
877.38	0.119
877.55	0.119
877.72	0.120
877.89	0.112
878.06	0.112
878.23	0.113
878.39	0.109
878.56	0.108
878.73	0.107
878.90	0.104
879.07	0.108
879.24	0.106
879.41	0.106
879.58	0.103
879.75	0.102
879.92	0.105
880.09	0.105
880.26	0.100
880.43	0.099
880.60	0.104
880.77	0.105
880.94	0.104
881.11	0.110
881.27	0.114
881.44	0.113
881.61	0.121
881.78	0.122
881.95	0.120
882.12	0.124
882.29	0.127
882.46	0.116
882.63	0.123
882.80	0.124
882.97	0.121
883.14	0.118
883.30	0.120
883.47	0.127
883.64	0.120
883.81	0.123
883.98	0.120
884.15	0.114
884.32	0.122
884.49	0.118
884.66	0.114
884.82	0.118
884.99	0.114
885.16	0.123
885.33	0.114
885.50	0.119
885.67	0.126
885.84	0.136
886.01	0.142
886.17	0.130
886.34	0.137
886.51	0.153
886.68	0.153
886.85	0.159
887.02	0.156
887.19	0.157
887.36	0.149
887.52	0.148
887.69	0.146
887.86	0.146
888.03	0.160
888.20	0.154
888.37	0.141
888.54	0.137
888.70	0.135
888.87	0.128
889.04	0.130
889.21	0.128
889.38	0.125
889.55	0.124
889.71	0.086
889.88	0.144
890.05	0.016
890.22	0.147
890.39	0.139
>>>>>End Processed Spectral Data<<<<<
