SpectraSuite Data File
++++++++++++++++++++++++++++++++++++
Date: Mon Jun 15 05:27:07 PDT 2015
User: introlabs
Dark Spectrum Present: Yes
Reference Spectrum Present: Yes
Number of Sampled Component Spectra: 1
Spectrometers: USB4H08886
Integration Time (usec): 99009 (USB4H08886)
Spectra Averaged: 20 (USB4H08886)
Boxcar Smoothing: 5 (USB4H08886)
Correct for Electrical Dark: Yes (USB4H08886)
Strobe/Lamp Enabled: No (USB4H08886)
Correct for Detector Non-linearity: Yes (USB4H08886)
Correct for Stray Light: Yes (USB4H08886)
Number of Pixels in Processed Spectrum: 3648
>>>>>Begin Processed Spectral Data<<<<<
178.14	-0.139
178.36	-0.139
178.57	-0.139
178.79	-0.264
179.01	-0.070
179.22	0.298
179.44	0.007
179.65	0.023
179.87	-0.004
180.08	-0.054
180.30	-0.149
180.52	-0.120
180.73	-0.874
180.95	-0.276
181.16	-0.484
181.38	-0.321
181.59	-0.321
181.81	-0.332
182.03	-0.344
182.24	-0.340
182.46	-0.348
182.67	-0.362
182.89	-0.359
183.10	-0.363
183.32	-0.358
183.54	-0.350
183.75	-0.365
183.97	-0.361
184.18	-0.363
184.40	-0.363
184.61	-0.376
184.83	-0.388
185.04	-0.386
185.26	-0.399
185.48	-0.387
185.69	-0.392
185.91	-0.391
186.12	-0.399
186.34	-0.411
186.55	-0.405
186.77	-0.389
186.98	-0.387
187.20	-0.384
187.42	-0.390
187.63	-0.397
187.85	-0.408
188.06	-0.408
188.28	-0.401
188.49	-0.395
188.71	-0.385
188.92	-0.383
189.14	-0.390
189.36	-0.380
189.57	-0.393
189.79	-0.374
190.00	-0.355
190.22	-0.347
190.43	-0.346
190.65	-0.359
190.86	-0.352
191.08	-0.349
191.29	-0.347
191.51	-0.359
191.72	-0.354
191.94	-0.337
192.16	-0.351
192.37	-0.344
192.59	-0.351
192.80	-0.358
193.02	-0.345
193.23	-0.345
193.45	-0.352
193.66	-0.359
193.88	-0.351
194.09	-0.362
194.31	-0.363
194.52	-0.361
194.74	-0.380
194.95	-0.372
195.17	-0.379
195.38	-0.392
195.60	-0.399
195.81	-0.394
196.03	-0.400
196.25	-0.395
196.46	-0.401
196.68	-0.409
196.89	-0.402
197.11	-0.390
197.32	-0.402
197.54	-0.397
197.75	-0.398
197.97	-0.389
198.18	-0.385
198.40	-0.381
198.61	-0.386
198.83	-0.377
199.04	-0.371
199.26	-0.367
199.47	-0.365
199.69	-0.359
199.90	-0.360
200.12	-0.345
200.33	-0.352
200.55	-0.360
200.76	-0.369
200.98	-0.360
201.19	-0.358
201.41	-0.369
201.62	-0.380
201.84	-0.386
202.05	-0.386
202.27	-0.372
202.48	-0.387
202.70	-0.380
202.91	-0.386
203.13	-0.375
203.34	-0.378
203.56	-0.382
203.77	-0.373
203.99	-0.369
204.20	-0.356
204.42	-0.359
204.63	-0.353
204.85	-0.345
205.06	-0.349
205.28	-0.344
205.49	-0.351
205.71	-0.360
205.92	-0.366
206.14	-0.363
206.35	-0.361
206.56	-0.361
206.78	-0.352
206.99	-0.351
207.21	-0.364
207.42	-0.365
207.64	-0.371
207.85	-0.357
208.07	-0.350
208.28	-0.347
208.50	-0.337
208.71	-0.332
208.93	-0.338
209.14	-0.348
209.36	-0.363
209.57	-0.360
209.79	-0.363
210.00	-0.352
210.22	-0.364
210.43	-0.360
210.64	-0.361
210.86	-0.373
211.07	-0.383
211.29	-0.389
211.50	-0.388
211.72	-0.383
211.93	-0.378
212.15	-0.373
212.36	-0.368
212.58	-0.361
212.79	-0.360
213.01	-0.354
213.22	-0.359
213.43	-0.355
213.65	-0.350
213.86	-0.345
214.08	-0.345
214.29	-0.343
214.51	-0.338
214.72	-0.346
214.94	-0.355
215.15	-0.354
215.36	-0.366
215.58	-0.362
215.79	-0.368
216.01	-0.376
216.22	-0.379
216.44	-0.387
216.65	-0.389
216.87	-0.395
217.08	-0.389
217.29	-0.377
217.51	-0.378
217.72	-0.369
217.94	-0.374
218.15	-0.372
218.37	-0.372
218.58	-0.376
218.80	-0.364
219.01	-0.361
219.22	-0.362
219.44	-0.369
219.65	-0.367
219.87	-0.362
220.08	-0.363
220.30	-0.360
220.51	-0.358
220.72	-0.353
220.94	-0.355
221.15	-0.371
221.37	-0.377
221.58	-0.371
221.79	-0.372
222.01	-0.380
222.22	-0.383
222.44	-0.387
222.65	-0.382
222.87	-0.384
223.08	-0.387
223.29	-0.388
223.51	-0.380
223.72	-0.374
223.94	-0.381
224.15	-0.376
224.36	-0.380
224.58	-0.397
224.79	-0.393
225.01	-0.406
225.22	-0.407
225.44	-0.418
225.65	-0.411
225.86	-0.402
226.08	-0.409
226.29	-0.401
226.51	-0.410
226.72	-0.407
226.93	-0.408
227.15	-0.414
227.36	-0.401
227.58	-0.403
227.79	-0.402
228.00	-0.403
228.22	-0.418
228.43	-0.418
228.65	-0.425
228.86	-0.429
229.07	-0.423
229.29	-0.408
229.50	-0.411
229.72	-0.417
229.93	-0.419
230.14	-0.417
230.36	-0.420
230.57	-0.412
230.78	-0.421
231.00	-0.423
231.21	-0.418
231.43	-0.431
231.64	-0.438
231.85	-0.431
232.07	-0.433
232.28	-0.429
232.50	-0.431
232.71	-0.432
232.92	-0.434
233.14	-0.427
233.35	-0.428
233.56	-0.429
233.78	-0.424
233.99	-0.427
234.21	-0.433
234.42	-0.433
234.63	-0.442
234.85	-0.445
235.06	-0.446
235.27	-0.450
235.49	-0.457
235.70	-0.460
235.91	-0.463
236.13	-0.464
236.34	-0.464
236.56	-0.464
236.77	-0.467
236.98	-0.463
237.20	-0.463
237.41	-0.464
237.62	-0.463
237.84	-0.460
238.05	-0.461
238.26	-0.458
238.48	-0.459
238.69	-0.458
238.91	-0.457
239.12	-0.456
239.33	-0.456
239.55	-0.454
239.76	-0.454
239.97	-0.454
240.19	-0.453
240.40	-0.452
240.61	-0.453
240.83	-0.453
241.04	-0.453
241.25	-0.454
241.47	-0.453
241.68	-0.452
241.89	-0.451
242.11	-0.450
242.32	-0.449
242.53	-0.449
242.75	-0.449
242.96	-0.449
243.17	-0.448
243.39	-0.448
243.60	-0.445
243.81	-0.444
244.03	-0.443
244.24	-0.443
244.45	-0.442
244.67	-0.441
244.88	-0.439
245.09	-0.439
245.31	-0.439
245.52	-0.438
245.73	-0.437
245.95	-0.437
246.16	-0.438
246.37	-0.438
246.59	-0.438
246.80	-0.438
247.01	-0.438
247.23	-0.440
247.44	-0.439
247.65	-0.438
247.87	-0.439
248.08	-0.439
248.29	-0.439
248.51	-0.439
248.72	-0.438
248.93	-0.438
249.15	-0.438
249.36	-0.438
249.57	-0.437
249.78	-0.437
250.00	-0.437
250.21	-0.436
250.42	-0.436
250.64	-0.436
250.85	-0.436
251.06	-0.436
251.28	-0.436
251.49	-0.435
251.70	-0.436
251.92	-0.435
252.13	-0.435
252.34	-0.435
252.55	-0.435
252.77	-0.434
252.98	-0.434
253.19	-0.435
253.41	-0.434
253.62	-0.434
253.83	-0.434
254.05	-0.433
254.26	-0.433
254.47	-0.432
254.68	-0.432
254.90	-0.432
255.11	-0.432
255.32	-0.432
255.54	-0.431
255.75	-0.432
255.96	-0.432
256.17	-0.432
256.39	-0.432
256.60	-0.432
256.81	-0.433
257.03	-0.433
257.24	-0.433
257.45	-0.434
257.66	-0.434
257.88	-0.434
258.09	-0.434
258.30	-0.434
258.51	-0.434
258.73	-0.434
258.94	-0.435
259.15	-0.434
259.37	-0.434
259.58	-0.434
259.79	-0.434
260.00	-0.434
260.22	-0.434
260.43	-0.434
260.64	-0.435
260.85	-0.434
261.07	-0.434
261.28	-0.434
261.49	-0.434
261.71	-0.434
261.92	-0.433
262.13	-0.433
262.34	-0.433
262.56	-0.433
262.77	-0.433
262.98	-0.433
263.19	-0.433
263.41	-0.433
263.62	-0.432
263.83	-0.432
264.04	-0.433
264.26	-0.433
264.47	-0.432
264.68	-0.432
264.89	-0.431
265.11	-0.431
265.32	-0.431
265.53	-0.431
265.74	-0.431
265.96	-0.431
266.17	-0.431
266.38	-0.431
266.59	-0.432
266.81	-0.431
267.02	-0.431
267.23	-0.431
267.44	-0.432
267.65	-0.431
267.87	-0.431
268.08	-0.430
268.29	-0.430
268.50	-0.430
268.72	-0.429
268.93	-0.429
269.14	-0.429
269.35	-0.429
269.57	-0.429
269.78	-0.428
269.99	-0.429
270.20	-0.429
270.41	-0.428
270.63	-0.428
270.84	-0.427
271.05	-0.428
271.26	-0.427
271.48	-0.426
271.69	-0.426
271.90	-0.426
272.11	-0.426
272.32	-0.425
272.54	-0.424
272.75	-0.424
272.96	-0.424
273.17	-0.424
273.39	-0.424
273.60	-0.423
273.81	-0.423
274.02	-0.423
274.23	-0.423
274.45	-0.423
274.66	-0.422
274.87	-0.422
275.08	-0.421
275.29	-0.421
275.51	-0.420
275.72	-0.420
275.93	-0.419
276.14	-0.419
276.35	-0.418
276.57	-0.417
276.78	-0.416
276.99	-0.416
277.20	-0.416
277.41	-0.415
277.63	-0.414
277.84	-0.414
278.05	-0.413
278.26	-0.413
278.47	-0.413
278.69	-0.413
278.90	-0.412
279.11	-0.412
279.32	-0.412
279.53	-0.411
279.74	-0.410
279.96	-0.410
280.17	-0.410
280.38	-0.409
280.59	-0.408
280.80	-0.407
281.02	-0.407
281.23	-0.406
281.44	-0.405
281.65	-0.405
281.86	-0.405
282.07	-0.404
282.29	-0.404
282.50	-0.403
282.71	-0.403
282.92	-0.402
283.13	-0.402
283.35	-0.401
283.56	-0.401
283.77	-0.400
283.98	-0.400
284.19	-0.399
284.40	-0.399
284.62	-0.398
284.83	-0.397
285.04	-0.397
285.25	-0.396
285.46	-0.396
285.67	-0.395
285.88	-0.395
286.10	-0.394
286.31	-0.393
286.52	-0.393
286.73	-0.392
286.94	-0.392
287.15	-0.391
287.37	-0.391
287.58	-0.390
287.79	-0.390
288.00	-0.389
288.21	-0.389
288.42	-0.389
288.63	-0.388
288.85	-0.388
289.06	-0.387
289.27	-0.387
289.48	-0.386
289.69	-0.386
289.90	-0.385
290.11	-0.385
290.33	-0.385
290.54	-0.384
290.75	-0.384
290.96	-0.383
291.17	-0.382
291.38	-0.382
291.59	-0.382
291.81	-0.381
292.02	-0.381
292.23	-0.381
292.44	-0.380
292.65	-0.380
292.86	-0.380
293.07	-0.379
293.28	-0.379
293.50	-0.379
293.71	-0.379
293.92	-0.378
294.13	-0.378
294.34	-0.378
294.55	-0.377
294.76	-0.377
294.97	-0.377
295.19	-0.376
295.40	-0.376
295.61	-0.376
295.82	-0.376
296.03	-0.375
296.24	-0.375
296.45	-0.375
296.66	-0.375
296.87	-0.375
297.09	-0.374
297.30	-0.374
297.51	-0.374
297.72	-0.374
297.93	-0.374
298.14	-0.374
298.35	-0.374
298.56	-0.374
298.77	-0.373
298.99	-0.373
299.20	-0.373
299.41	-0.372
299.62	-0.372
299.83	-0.372
300.04	-0.372
300.25	-0.372
300.46	-0.372
300.67	-0.372
300.88	-0.372
301.10	-0.371
301.31	-0.371
301.52	-0.371
301.73	-0.371
301.94	-0.371
302.15	-0.371
302.36	-0.370
302.57	-0.370
302.78	-0.370
302.99	-0.370
303.20	-0.370
303.41	-0.370
303.63	-0.370
303.84	-0.370
304.05	-0.369
304.26	-0.369
304.47	-0.369
304.68	-0.369
304.89	-0.369
305.10	-0.369
305.31	-0.368
305.52	-0.368
305.73	-0.368
305.94	-0.368
306.15	-0.368
306.37	-0.368
306.58	-0.367
306.79	-0.367
307.00	-0.367
307.21	-0.367
307.42	-0.367
307.63	-0.367
307.84	-0.367
308.05	-0.367
308.26	-0.367
308.47	-0.366
308.68	-0.366
308.89	-0.366
309.10	-0.366
309.31	-0.366
309.52	-0.366
309.73	-0.366
309.95	-0.366
310.16	-0.366
310.37	-0.365
310.58	-0.365
310.79	-0.365
311.00	-0.365
311.21	-0.365
311.42	-0.365
311.63	-0.365
311.84	-0.364
312.05	-0.364
312.26	-0.364
312.47	-0.364
312.68	-0.364
312.89	-0.364
313.10	-0.364
313.31	-0.364
313.52	-0.364
313.73	-0.364
313.94	-0.364
314.15	-0.363
314.36	-0.363
314.57	-0.363
314.78	-0.363
314.99	-0.363
315.21	-0.363
315.42	-0.362
315.63	-0.362
315.84	-0.362
316.05	-0.362
316.26	-0.362
316.47	-0.362
316.68	-0.362
316.89	-0.361
317.10	-0.361
317.31	-0.361
317.52	-0.361
317.73	-0.361
317.94	-0.361
318.15	-0.361
318.36	-0.361
318.57	-0.361
318.78	-0.361
318.99	-0.361
319.20	-0.361
319.41	-0.360
319.62	-0.360
319.83	-0.360
320.04	-0.360
320.25	-0.360
320.46	-0.360
320.67	-0.360
320.88	-0.360
321.09	-0.360
321.30	-0.360
321.51	-0.360
321.72	-0.360
321.93	-0.360
322.14	-0.360
322.35	-0.360
322.56	-0.360
322.77	-0.360
322.98	-0.359
323.19	-0.359
323.40	-0.359
323.61	-0.359
323.82	-0.359
324.03	-0.358
324.24	-0.358
324.45	-0.358
324.66	-0.358
324.87	-0.358
325.08	-0.358
325.29	-0.358
325.50	-0.358
325.71	-0.358
325.92	-0.358
326.13	-0.358
326.34	-0.358
326.55	-0.358
326.76	-0.358
326.97	-0.358
327.18	-0.358
327.39	-0.358
327.60	-0.357
327.80	-0.358
328.01	-0.357
328.22	-0.357
328.43	-0.357
328.64	-0.357
328.85	-0.357
329.06	-0.357
329.27	-0.357
329.48	-0.357
329.69	-0.357
329.90	-0.357
330.11	-0.357
330.32	-0.357
330.53	-0.357
330.74	-0.356
330.95	-0.356
331.16	-0.356
331.37	-0.356
331.58	-0.356
331.79	-0.356
332.00	-0.356
332.21	-0.356
332.42	-0.356
332.63	-0.356
332.83	-0.355
333.04	-0.355
333.25	-0.355
333.46	-0.355
333.67	-0.355
333.88	-0.355
334.09	-0.355
334.30	-0.355
334.51	-0.355
334.72	-0.355
334.93	-0.355
335.14	-0.355
335.35	-0.355
335.56	-0.355
335.77	-0.355
335.98	-0.355
336.18	-0.355
336.39	-0.355
336.60	-0.355
336.81	-0.355
337.02	-0.355
337.23	-0.354
337.44	-0.355
337.65	-0.354
337.86	-0.354
338.07	-0.354
338.28	-0.354
338.49	-0.354
338.70	-0.354
338.91	-0.354
339.11	-0.354
339.32	-0.354
339.53	-0.354
339.74	-0.354
339.95	-0.354
340.16	-0.354
340.37	-0.354
340.58	-0.354
340.79	-0.354
341.00	-0.354
341.21	-0.354
341.41	-0.353
341.62	-0.353
341.83	-0.353
342.04	-0.353
342.25	-0.353
342.46	-0.353
342.67	-0.353
342.88	-0.353
343.09	-0.353
343.30	-0.353
343.50	-0.353
343.71	-0.353
343.92	-0.353
344.13	-0.353
344.34	-0.353
344.55	-0.353
344.76	-0.353
344.97	-0.353
345.18	-0.353
345.38	-0.353
345.59	-0.353
345.80	-0.353
346.01	-0.353
346.22	-0.353
346.43	-0.353
346.64	-0.353
346.85	-0.353
347.06	-0.353
347.26	-0.353
347.47	-0.353
347.68	-0.352
347.89	-0.352
348.10	-0.352
348.31	-0.352
348.52	-0.352
348.73	-0.352
348.93	-0.352
349.14	-0.352
349.35	-0.352
349.56	-0.352
349.77	-0.352
349.98	-0.352
350.19	-0.352
350.39	-0.352
350.60	-0.352
350.81	-0.352
351.02	-0.352
351.23	-0.352
351.44	-0.352
351.65	-0.352
351.86	-0.352
352.06	-0.352
352.27	-0.352
352.48	-0.352
352.69	-0.352
352.90	-0.352
353.11	-0.351
353.31	-0.351
353.52	-0.351
353.73	-0.351
353.94	-0.351
354.15	-0.351
354.36	-0.351
354.57	-0.351
354.77	-0.351
354.98	-0.351
355.19	-0.351
355.40	-0.351
355.61	-0.351
355.82	-0.351
356.02	-0.351
356.23	-0.351
356.44	-0.351
356.65	-0.351
356.86	-0.351
357.07	-0.351
357.27	-0.351
357.48	-0.350
357.69	-0.350
357.90	-0.350
358.11	-0.351
358.32	-0.350
358.52	-0.351
358.73	-0.350
358.94	-0.350
359.15	-0.350
359.36	-0.350
359.56	-0.350
359.77	-0.350
359.98	-0.350
360.19	-0.350
360.40	-0.350
360.61	-0.350
360.81	-0.350
361.02	-0.350
361.23	-0.350
361.44	-0.350
361.65	-0.350
361.85	-0.350
362.06	-0.350
362.27	-0.350
362.48	-0.349
362.69	-0.349
362.89	-0.349
363.10	-0.349
363.31	-0.349
363.52	-0.349
363.73	-0.349
363.93	-0.349
364.14	-0.349
364.35	-0.348
364.56	-0.348
364.77	-0.348
364.97	-0.348
365.18	-0.347
365.39	-0.347
365.60	-0.346
365.81	-0.346
366.01	-0.345
366.22	-0.345
366.43	-0.344
366.64	-0.344
366.84	-0.344
367.05	-0.343
367.26	-0.343
367.47	-0.343
367.68	-0.343
367.88	-0.342
368.09	-0.342
368.30	-0.342
368.51	-0.342
368.71	-0.342
368.92	-0.342
369.13	-0.342
369.34	-0.343
369.55	-0.343
369.75	-0.343
369.96	-0.344
370.17	-0.344
370.38	-0.344
370.58	-0.345
370.79	-0.345
371.00	-0.346
371.21	-0.346
371.41	-0.346
371.62	-0.346
371.83	-0.346
372.04	-0.346
372.24	-0.346
372.45	-0.346
372.66	-0.346
372.87	-0.346
373.07	-0.346
373.28	-0.346
373.49	-0.346
373.70	-0.346
373.90	-0.346
374.11	-0.346
374.32	-0.346
374.53	-0.346
374.73	-0.346
374.94	-0.346
375.15	-0.346
375.36	-0.346
375.56	-0.346
375.77	-0.346
375.98	-0.345
376.19	-0.345
376.39	-0.345
376.60	-0.345
376.81	-0.344
377.02	-0.344
377.22	-0.344
377.43	-0.343
377.64	-0.343
377.84	-0.342
378.05	-0.342
378.26	-0.342
378.47	-0.341
378.67	-0.340
378.88	-0.340
379.09	-0.339
379.30	-0.339
379.50	-0.339
379.71	-0.338
379.92	-0.338
380.12	-0.338
380.33	-0.338
380.54	-0.338
380.75	-0.338
380.95	-0.339
381.16	-0.339
381.37	-0.340
381.57	-0.340
381.78	-0.340
381.99	-0.341
382.20	-0.341
382.40	-0.342
382.61	-0.343
382.82	-0.343
383.02	-0.343
383.23	-0.344
383.44	-0.344
383.64	-0.344
383.85	-0.344
384.06	-0.344
384.27	-0.345
384.47	-0.345
384.68	-0.345
384.89	-0.344
385.09	-0.344
385.30	-0.344
385.51	-0.344
385.71	-0.344
385.92	-0.344
386.13	-0.344
386.33	-0.344
386.54	-0.344
386.75	-0.343
386.95	-0.343
387.16	-0.343
387.37	-0.343
387.58	-0.343
387.78	-0.343
387.99	-0.343
388.20	-0.343
388.40	-0.343
388.61	-0.343
388.82	-0.343
389.02	-0.343
389.23	-0.343
389.44	-0.343
389.64	-0.343
389.85	-0.342
390.06	-0.342
390.26	-0.342
390.47	-0.341
390.68	-0.341
390.88	-0.340
391.09	-0.339
391.30	-0.338
391.50	-0.337
391.71	-0.336
391.92	-0.335
392.12	-0.334
392.33	-0.333
392.53	-0.333
392.74	-0.332
392.95	-0.332
393.15	-0.331
393.36	-0.331
393.57	-0.331
393.77	-0.332
393.98	-0.332
394.19	-0.333
394.39	-0.334
394.60	-0.335
394.81	-0.336
395.01	-0.337
395.22	-0.338
395.43	-0.338
395.63	-0.339
395.84	-0.339
396.04	-0.340
396.25	-0.339
396.46	-0.339
396.66	-0.337
396.87	-0.336
397.08	-0.335
397.28	-0.333
397.49	-0.332
397.69	-0.330
397.90	-0.329
398.11	-0.328
398.31	-0.327
398.52	-0.326
398.73	-0.325
398.93	-0.324
399.14	-0.325
399.34	-0.325
399.55	-0.325
399.76	-0.325
399.96	-0.326
400.17	-0.328
400.37	-0.329
400.58	-0.331
400.79	-0.332
400.99	-0.333
401.20	-0.335
401.41	-0.336
401.61	-0.337
401.82	-0.339
402.02	-0.339
402.23	-0.340
402.44	-0.340
402.64	-0.341
402.85	-0.341
403.05	-0.341
403.26	-0.341
403.47	-0.341
403.67	-0.341
403.88	-0.340
404.08	-0.340
404.29	-0.340
404.50	-0.339
404.70	-0.339
404.91	-0.339
405.11	-0.339
405.32	-0.339
405.52	-0.339
405.73	-0.339
405.94	-0.339
406.14	-0.339
406.35	-0.339
406.55	-0.339
406.76	-0.339
406.97	-0.339
407.17	-0.339
407.38	-0.339
407.58	-0.339
407.79	-0.340
407.99	-0.340
408.20	-0.341
408.41	-0.341
408.61	-0.341
408.82	-0.341
409.02	-0.341
409.23	-0.341
409.43	-0.341
409.64	-0.341
409.84	-0.341
410.05	-0.341
410.26	-0.341
410.46	-0.341
410.67	-0.341
410.87	-0.341
411.08	-0.341
411.28	-0.341
411.49	-0.341
411.69	-0.341
411.90	-0.341
412.11	-0.341
412.31	-0.341
412.52	-0.341
412.72	-0.341
412.93	-0.341
413.13	-0.341
413.34	-0.341
413.54	-0.341
413.75	-0.341
413.95	-0.341
414.16	-0.341
414.37	-0.341
414.57	-0.341
414.78	-0.341
414.98	-0.341
415.19	-0.341
415.39	-0.341
415.60	-0.341
415.80	-0.341
416.01	-0.341
416.21	-0.341
416.42	-0.341
416.62	-0.341
416.83	-0.341
417.03	-0.341
417.24	-0.341
417.44	-0.341
417.65	-0.341
417.86	-0.341
418.06	-0.341
418.27	-0.341
418.47	-0.341
418.68	-0.341
418.88	-0.341
419.09	-0.341
419.29	-0.340
419.50	-0.340
419.70	-0.340
419.91	-0.339
420.11	-0.339
420.32	-0.338
420.52	-0.338
420.73	-0.337
420.93	-0.336
421.14	-0.335
421.34	-0.334
421.55	-0.333
421.75	-0.332
421.96	-0.332
422.16	-0.331
422.37	-0.330
422.57	-0.330
422.78	-0.330
422.98	-0.330
423.19	-0.331
423.39	-0.331
423.60	-0.332
423.80	-0.333
424.01	-0.334
424.21	-0.335
424.42	-0.337
424.62	-0.338
424.83	-0.338
425.03	-0.339
425.23	-0.339
425.44	-0.340
425.64	-0.340
425.85	-0.340
426.05	-0.340
426.26	-0.340
426.46	-0.340
426.67	-0.340
426.87	-0.340
427.08	-0.340
427.28	-0.340
427.49	-0.339
427.69	-0.339
427.90	-0.338
428.10	-0.337
428.31	-0.336
428.51	-0.335
428.71	-0.334
428.92	-0.332
429.12	-0.331
429.33	-0.329
429.53	-0.327
429.74	-0.326
429.94	-0.325
430.15	-0.323
430.35	-0.322
430.56	-0.322
430.76	-0.321
430.96	-0.321
431.17	-0.322
431.37	-0.323
431.58	-0.324
431.78	-0.326
431.99	-0.328
432.19	-0.330
432.40	-0.332
432.60	-0.334
432.80	-0.335
433.01	-0.337
433.21	-0.338
433.42	-0.339
433.62	-0.339
433.83	-0.340
434.03	-0.340
434.23	-0.340
434.44	-0.340
434.64	-0.340
434.85	-0.340
435.05	-0.340
435.26	-0.340
435.46	-0.340
435.66	-0.339
435.87	-0.339
436.07	-0.339
436.28	-0.339
436.48	-0.339
436.69	-0.339
436.89	-0.339
437.09	-0.339
437.30	-0.339
437.50	-0.339
437.71	-0.339
437.91	-0.339
438.11	-0.339
438.32	-0.339
438.52	-0.339
438.73	-0.339
438.93	-0.339
439.13	-0.339
439.34	-0.339
439.54	-0.340
439.75	-0.339
439.95	-0.339
440.15	-0.339
440.36	-0.339
440.56	-0.339
440.77	-0.339
440.97	-0.339
441.17	-0.339
441.38	-0.340
441.58	-0.340
441.79	-0.339
441.99	-0.340
442.19	-0.339
442.40	-0.339
442.60	-0.339
442.81	-0.339
443.01	-0.339
443.21	-0.339
443.42	-0.339
443.62	-0.339
443.82	-0.339
444.03	-0.339
444.23	-0.339
444.44	-0.339
444.64	-0.339
444.84	-0.339
445.05	-0.339
445.25	-0.339
445.45	-0.338
445.66	-0.338
445.86	-0.338
446.06	-0.339
446.27	-0.339
446.47	-0.339
446.68	-0.339
446.88	-0.339
447.08	-0.339
447.29	-0.339
447.49	-0.339
447.69	-0.339
447.90	-0.339
448.10	-0.339
448.30	-0.339
448.51	-0.339
448.71	-0.339
448.91	-0.339
449.12	-0.339
449.32	-0.339
449.52	-0.339
449.73	-0.339
449.93	-0.339
450.14	-0.339
450.34	-0.339
450.54	-0.339
450.75	-0.339
450.95	-0.339
451.15	-0.339
451.36	-0.339
451.56	-0.339
451.76	-0.339
451.97	-0.339
452.17	-0.338
452.37	-0.338
452.58	-0.338
452.78	-0.338
452.98	-0.338
453.19	-0.338
453.39	-0.338
453.59	-0.338
453.79	-0.338
454.00	-0.338
454.20	-0.338
454.40	-0.338
454.61	-0.338
454.81	-0.338
455.01	-0.338
455.22	-0.338
455.42	-0.338
455.62	-0.338
455.83	-0.338
456.03	-0.338
456.23	-0.338
456.44	-0.338
456.64	-0.338
456.84	-0.338
457.04	-0.338
457.25	-0.338
457.45	-0.338
457.65	-0.338
457.86	-0.338
458.06	-0.338
458.26	-0.338
458.47	-0.338
458.67	-0.338
458.87	-0.338
459.07	-0.338
459.28	-0.338
459.48	-0.338
459.68	-0.338
459.89	-0.338
460.09	-0.338
460.29	-0.338
460.49	-0.338
460.70	-0.338
460.90	-0.338
461.10	-0.338
461.31	-0.338
461.51	-0.338
461.71	-0.338
461.91	-0.338
462.12	-0.338
462.32	-0.338
462.52	-0.338
462.72	-0.338
462.93	-0.338
463.13	-0.337
463.33	-0.337
463.53	-0.337
463.74	-0.337
463.94	-0.337
464.14	-0.337
464.35	-0.337
464.55	-0.337
464.75	-0.337
464.95	-0.337
465.16	-0.337
465.36	-0.337
465.56	-0.337
465.76	-0.338
465.97	-0.338
466.17	-0.338
466.37	-0.338
466.57	-0.338
466.78	-0.338
466.98	-0.338
467.18	-0.338
467.38	-0.338
467.59	-0.338
467.79	-0.338
467.99	-0.338
468.19	-0.338
468.39	-0.338
468.60	-0.338
468.80	-0.338
469.00	-0.338
469.20	-0.338
469.41	-0.338
469.61	-0.338
469.81	-0.338
470.01	-0.338
470.22	-0.338
470.42	-0.338
470.62	-0.338
470.82	-0.338
471.02	-0.338
471.23	-0.338
471.43	-0.338
471.63	-0.338
471.83	-0.338
472.04	-0.338
472.24	-0.338
472.44	-0.338
472.64	-0.338
472.84	-0.338
473.05	-0.338
473.25	-0.338
473.45	-0.338
473.65	-0.337
473.85	-0.337
474.06	-0.336
474.26	-0.334
474.46	-0.333
474.66	-0.331
474.86	-0.330
475.07	-0.328
475.27	-0.326
475.47	-0.324
475.67	-0.321
475.87	-0.319
476.08	-0.318
476.28	-0.317
476.48	-0.316
476.68	-0.314
476.88	-0.313
477.09	-0.312
477.29	-0.312
477.49	-0.311
477.69	-0.310
477.89	-0.309
478.09	-0.308
478.30	-0.307
478.50	-0.306
478.70	-0.304
478.90	-0.302
479.10	-0.300
479.31	-0.298
479.51	-0.295
479.71	-0.292
479.91	-0.290
480.11	-0.287
480.31	-0.284
480.52	-0.281
480.72	-0.279
480.92	-0.276
481.12	-0.273
481.32	-0.270
481.52	-0.268
481.72	-0.265
481.93	-0.263
482.13	-0.260
482.33	-0.257
482.53	-0.254
482.73	-0.251
482.93	-0.248
483.14	-0.244
483.34	-0.241
483.54	-0.238
483.74	-0.234
483.94	-0.230
484.14	-0.226
484.34	-0.222
484.55	-0.218
484.75	-0.214
484.95	-0.210
485.15	-0.207
485.35	-0.204
485.55	-0.201
485.75	-0.198
485.96	-0.196
486.16	-0.195
486.36	-0.193
486.56	-0.192
486.76	-0.192
486.96	-0.192
487.16	-0.193
487.36	-0.194
487.57	-0.195
487.77	-0.197
487.97	-0.200
488.17	-0.202
488.37	-0.205
488.57	-0.208
488.77	-0.211
488.97	-0.214
489.18	-0.217
489.38	-0.219
489.58	-0.222
489.78	-0.224
489.98	-0.226
490.18	-0.227
490.38	-0.229
490.58	-0.230
490.78	-0.231
490.98	-0.231
491.19	-0.232
491.39	-0.232
491.59	-0.232
491.79	-0.232
491.99	-0.232
492.19	-0.232
492.39	-0.232
492.59	-0.231
492.79	-0.230
492.99	-0.230
493.20	-0.229
493.40	-0.228
493.60	-0.227
493.80	-0.225
494.00	-0.224
494.20	-0.222
494.40	-0.220
494.60	-0.219
494.80	-0.217
495.00	-0.216
495.20	-0.215
495.40	-0.214
495.61	-0.213
495.81	-0.213
496.01	-0.213
496.21	-0.213
496.41	-0.213
496.61	-0.213
496.81	-0.214
497.01	-0.214
497.21	-0.215
497.41	-0.216
497.61	-0.217
497.81	-0.219
498.01	-0.220
498.21	-0.222
498.41	-0.224
498.61	-0.226
498.82	-0.228
499.02	-0.229
499.22	-0.231
499.42	-0.233
499.62	-0.234
499.82	-0.235
500.02	-0.235
500.22	-0.235
500.42	-0.235
500.62	-0.235
500.82	-0.235
501.02	-0.234
501.22	-0.234
501.42	-0.233
501.62	-0.233
501.82	-0.232
502.02	-0.232
502.22	-0.231
502.42	-0.231
502.62	-0.231
502.82	-0.230
503.02	-0.230
503.22	-0.231
503.42	-0.231
503.63	-0.231
503.83	-0.232
504.03	-0.233
504.23	-0.234
504.43	-0.236
504.63	-0.237
504.83	-0.239
505.03	-0.240
505.23	-0.242
505.43	-0.243
505.63	-0.245
505.83	-0.247
506.03	-0.249
506.23	-0.251
506.43	-0.252
506.63	-0.254
506.83	-0.256
507.03	-0.258
507.23	-0.260
507.43	-0.261
507.63	-0.263
507.83	-0.265
508.03	-0.266
508.23	-0.268
508.43	-0.269
508.63	-0.270
508.83	-0.271
509.03	-0.272
509.23	-0.273
509.43	-0.274
509.63	-0.275
509.83	-0.277
510.03	-0.278
510.23	-0.279
510.43	-0.280
510.63	-0.281
510.83	-0.282
511.03	-0.283
511.23	-0.284
511.43	-0.285
511.63	-0.286
511.83	-0.288
512.03	-0.289
512.22	-0.290
512.42	-0.292
512.62	-0.293
512.82	-0.296
513.02	-0.297
513.22	-0.299
513.42	-0.301
513.62	-0.302
513.82	-0.304
514.02	-0.306
514.22	-0.307
514.42	-0.308
514.62	-0.309
514.82	-0.310
515.02	-0.311
515.22	-0.312
515.42	-0.313
515.62	-0.314
515.82	-0.315
516.02	-0.316
516.22	-0.317
516.42	-0.318
516.62	-0.318
516.82	-0.318
517.01	-0.318
517.21	-0.318
517.41	-0.318
517.61	-0.318
517.81	-0.319
518.01	-0.319
518.21	-0.319
518.41	-0.320
518.61	-0.320
518.81	-0.321
519.01	-0.322
519.21	-0.323
519.41	-0.325
519.61	-0.325
519.81	-0.327
520.00	-0.328
520.20	-0.329
520.40	-0.329
520.60	-0.331
520.80	-0.332
521.00	-0.333
521.20	-0.334
521.40	-0.335
521.60	-0.335
521.80	-0.336
522.00	-0.337
522.20	-0.337
522.39	-0.338
522.59	-0.338
522.79	-0.339
522.99	-0.339
523.19	-0.339
523.39	-0.340
523.59	-0.340
523.79	-0.340
523.99	-0.340
524.19	-0.341
524.38	-0.341
524.58	-0.341
524.78	-0.341
524.98	-0.342
525.18	-0.342
525.38	-0.342
525.58	-0.342
525.78	-0.342
525.98	-0.343
526.18	-0.343
526.37	-0.343
526.57	-0.343
526.77	-0.343
526.97	-0.343
527.17	-0.343
527.37	-0.343
527.57	-0.343
527.77	-0.343
527.96	-0.343
528.16	-0.343
528.36	-0.343
528.56	-0.343
528.76	-0.343
528.96	-0.343
529.16	-0.343
529.36	-0.343
529.55	-0.343
529.75	-0.343
529.95	-0.343
530.15	-0.344
530.35	-0.344
530.55	-0.344
530.75	-0.344
530.94	-0.344
531.14	-0.344
531.34	-0.344
531.54	-0.344
531.74	-0.344
531.94	-0.344
532.13	-0.344
532.33	-0.343
532.53	-0.343
532.73	-0.343
532.93	-0.342
533.13	-0.342
533.33	-0.341
533.52	-0.341
533.72	-0.340
533.92	-0.340
534.12	-0.340
534.32	-0.339
534.52	-0.339
534.71	-0.339
534.91	-0.339
535.11	-0.339
535.31	-0.339
535.51	-0.339
535.71	-0.339
535.90	-0.338
536.10	-0.338
536.30	-0.338
536.50	-0.338
536.70	-0.337
536.89	-0.337
537.09	-0.336
537.29	-0.336
537.49	-0.335
537.69	-0.335
537.89	-0.334
538.08	-0.334
538.28	-0.333
538.48	-0.333
538.68	-0.332
538.88	-0.332
539.07	-0.331
539.27	-0.331
539.47	-0.331
539.67	-0.331
539.87	-0.331
540.06	-0.331
540.26	-0.331
540.46	-0.332
540.66	-0.333
540.86	-0.334
541.05	-0.335
541.25	-0.336
541.45	-0.337
541.65	-0.338
541.84	-0.339
542.04	-0.339
542.24	-0.340
542.44	-0.340
542.64	-0.340
542.83	-0.340
543.03	-0.341
543.23	-0.341
543.43	-0.340
543.62	-0.340
543.82	-0.340
544.02	-0.340
544.22	-0.340
544.42	-0.339
544.61	-0.339
544.81	-0.338
545.01	-0.337
545.21	-0.336
545.40	-0.335
545.60	-0.334
545.80	-0.333
546.00	-0.332
546.19	-0.331
546.39	-0.330
546.59	-0.330
546.79	-0.330
546.98	-0.331
547.18	-0.331
547.38	-0.332
547.58	-0.333
547.77	-0.334
547.97	-0.335
548.17	-0.336
548.37	-0.338
548.56	-0.339
548.76	-0.340
548.96	-0.342
549.16	-0.343
549.35	-0.344
549.55	-0.345
549.75	-0.346
549.95	-0.347
550.14	-0.348
550.34	-0.349
550.54	-0.349
550.73	-0.350
550.93	-0.350
551.13	-0.350
551.33	-0.350
551.52	-0.349
551.72	-0.349
551.92	-0.349
552.12	-0.349
552.31	-0.348
552.51	-0.347
552.71	-0.346
552.90	-0.345
553.10	-0.344
553.30	-0.344
553.50	-0.343
553.69	-0.342
553.89	-0.342
554.09	-0.341
554.28	-0.342
554.48	-0.342
554.68	-0.343
554.87	-0.344
555.07	-0.345
555.27	-0.347
555.47	-0.348
555.66	-0.349
555.86	-0.350
556.06	-0.351
556.25	-0.352
556.45	-0.352
556.65	-0.353
556.84	-0.353
557.04	-0.353
557.24	-0.353
557.43	-0.353
557.63	-0.353
557.83	-0.353
558.02	-0.353
558.22	-0.353
558.42	-0.353
558.61	-0.352
558.81	-0.352
559.01	-0.352
559.21	-0.352
559.40	-0.352
559.60	-0.352
559.80	-0.352
559.99	-0.352
560.19	-0.352
560.39	-0.352
560.58	-0.351
560.78	-0.350
560.97	-0.350
561.17	-0.348
561.37	-0.348
561.56	-0.347
561.76	-0.346
561.96	-0.345
562.15	-0.344
562.35	-0.344
562.55	-0.344
562.74	-0.345
562.94	-0.345
563.14	-0.346
563.33	-0.347
563.53	-0.348
563.73	-0.350
563.92	-0.351
564.12	-0.352
564.31	-0.352
564.51	-0.353
564.71	-0.354
564.90	-0.354
565.10	-0.354
565.30	-0.355
565.49	-0.355
565.69	-0.355
565.89	-0.355
566.08	-0.355
566.28	-0.355
566.47	-0.355
566.67	-0.354
566.87	-0.353
567.06	-0.351
567.26	-0.348
567.46	-0.345
567.65	-0.342
567.85	-0.337
568.04	-0.332
568.24	-0.326
568.44	-0.320
568.63	-0.313
568.83	-0.305
569.02	-0.298
569.22	-0.290
569.42	-0.282
569.61	-0.275
569.81	-0.268
570.00	-0.261
570.20	-0.254
570.40	-0.248
570.59	-0.242
570.79	-0.236
570.98	-0.231
571.18	-0.226
571.38	-0.221
571.57	-0.216
571.77	-0.211
571.96	-0.206
572.16	-0.201
572.35	-0.197
572.55	-0.192
572.75	-0.189
572.94	-0.186
573.14	-0.183
573.33	-0.181
573.53	-0.179
573.73	-0.176
573.92	-0.175
574.12	-0.173
574.31	-0.172
574.51	-0.171
574.70	-0.169
574.90	-0.166
575.09	-0.163
575.29	-0.159
575.49	-0.156
575.68	-0.152
575.88	-0.149
576.07	-0.146
576.27	-0.143
576.46	-0.141
576.66	-0.138
576.86	-0.136
577.05	-0.135
577.25	-0.134
577.44	-0.133
577.64	-0.133
577.83	-0.132
578.03	-0.132
578.22	-0.130
578.42	-0.127
578.61	-0.124
578.81	-0.121
579.00	-0.118
579.20	-0.116
579.40	-0.113
579.59	-0.110
579.79	-0.108
579.98	-0.106
580.18	-0.104
580.37	-0.104
580.57	-0.104
580.76	-0.105
580.96	-0.107
581.15	-0.108
581.35	-0.110
581.54	-0.111
581.74	-0.112
581.93	-0.113
582.13	-0.113
582.32	-0.114
582.52	-0.114
582.71	-0.116
582.91	-0.117
583.10	-0.119
583.30	-0.121
583.49	-0.123
583.69	-0.126
583.88	-0.129
584.08	-0.133
584.27	-0.137
584.47	-0.141
584.66	-0.144
584.86	-0.146
585.05	-0.148
585.25	-0.149
585.44	-0.149
585.64	-0.148
585.83	-0.148
586.03	-0.147
586.22	-0.148
586.42	-0.149
586.61	-0.150
586.81	-0.153
587.00	-0.156
587.20	-0.160
587.39	-0.164
587.59	-0.169
587.78	-0.175
587.98	-0.182
588.17	-0.188
588.37	-0.194
588.56	-0.200
588.76	-0.206
588.95	-0.212
589.15	-0.217
589.34	-0.222
589.54	-0.227
589.73	-0.232
589.92	-0.235
590.12	-0.238
590.31	-0.240
590.51	-0.240
590.70	-0.240
590.90	-0.239
591.09	-0.238
591.29	-0.236
591.48	-0.233
591.68	-0.231
591.87	-0.228
592.06	-0.226
592.26	-0.224
592.45	-0.222
592.65	-0.221
592.84	-0.220
593.04	-0.220
593.23	-0.220
593.43	-0.220
593.62	-0.220
593.81	-0.221
594.01	-0.223
594.20	-0.226
594.40	-0.229
594.59	-0.233
594.79	-0.237
594.98	-0.242
595.17	-0.247
595.37	-0.252
595.56	-0.257
595.76	-0.260
595.95	-0.263
596.14	-0.265
596.34	-0.266
596.53	-0.266
596.73	-0.265
596.92	-0.262
597.12	-0.258
597.31	-0.254
597.50	-0.248
597.70	-0.243
597.89	-0.238
598.09	-0.233
598.28	-0.228
598.47	-0.224
598.67	-0.220
598.86	-0.217
599.06	-0.215
599.25	-0.214
599.44	-0.213
599.64	-0.213
599.83	-0.215
600.03	-0.217
600.22	-0.221
600.41	-0.225
600.61	-0.229
600.80	-0.235
601.00	-0.240
601.19	-0.245
601.38	-0.252
601.58	-0.258
601.77	-0.265
601.96	-0.271
602.16	-0.277
602.35	-0.282
602.55	-0.287
602.74	-0.291
602.93	-0.294
603.13	-0.296
603.32	-0.298
603.51	-0.297
603.71	-0.297
603.90	-0.295
604.09	-0.292
604.29	-0.288
604.48	-0.284
604.68	-0.280
604.87	-0.275
605.06	-0.272
605.26	-0.268
605.45	-0.265
605.64	-0.262
605.84	-0.260
606.03	-0.258
606.22	-0.257
606.42	-0.257
606.61	-0.258
606.80	-0.259
607.00	-0.261
607.19	-0.263
607.38	-0.266
607.58	-0.269
607.77	-0.273
607.96	-0.277
608.16	-0.282
608.35	-0.287
608.54	-0.293
608.74	-0.298
608.93	-0.305
609.12	-0.312
609.32	-0.318
609.51	-0.324
609.70	-0.330
609.90	-0.336
610.09	-0.341
610.28	-0.346
610.48	-0.350
610.67	-0.353
610.86	-0.356
611.06	-0.357
611.25	-0.359
611.44	-0.359
611.64	-0.359
611.83	-0.358
612.02	-0.357
612.21	-0.354
612.41	-0.352
612.60	-0.349
612.79	-0.347
612.99	-0.344
613.18	-0.342
613.37	-0.339
613.57	-0.337
613.76	-0.335
613.95	-0.333
614.14	-0.332
614.34	-0.332
614.53	-0.332
614.72	-0.334
614.92	-0.335
615.11	-0.337
615.30	-0.338
615.49	-0.341
615.69	-0.343
615.88	-0.346
616.07	-0.350
616.26	-0.354
616.46	-0.358
616.65	-0.362
616.84	-0.366
617.04	-0.370
617.23	-0.374
617.42	-0.378
617.61	-0.382
617.81	-0.385
618.00	-0.388
618.19	-0.390
618.38	-0.391
618.58	-0.392
618.77	-0.391
618.96	-0.392
619.15	-0.389
619.35	-0.389
619.54	-0.386
619.73	-0.385
619.92	-0.382
620.12	-0.380
620.31	-0.377
620.50	-0.376
620.69	-0.374
620.89	-0.373
621.08	-0.371
621.27	-0.371
621.46	-0.369
621.66	-0.369
621.85	-0.369
622.04	-0.369
622.23	-0.369
622.43	-0.369
622.62	-0.368
622.81	-0.368
623.00	-0.368
623.19	-0.368
623.39	-0.368
623.58	-0.368
623.77	-0.369
623.96	-0.369
624.16	-0.369
624.35	-0.369
624.54	-0.370
624.73	-0.370
624.92	-0.370
625.12	-0.371
625.31	-0.371
625.50	-0.371
625.69	-0.372
625.88	-0.372
626.08	-0.372
626.27	-0.373
626.46	-0.373
626.65	-0.373
626.84	-0.373
627.04	-0.374
627.23	-0.374
627.42	-0.374
627.61	-0.374
627.80	-0.374
628.00	-0.374
628.19	-0.374
628.38	-0.374
628.57	-0.375
628.76	-0.375
628.96	-0.375
629.15	-0.375
629.34	-0.376
629.53	-0.376
629.72	-0.376
629.91	-0.377
630.11	-0.377
630.30	-0.378
630.49	-0.378
630.68	-0.378
630.87	-0.379
631.06	-0.379
631.26	-0.379
631.45	-0.380
631.64	-0.380
631.83	-0.381
632.02	-0.381
632.21	-0.381
632.41	-0.382
632.60	-0.382
632.79	-0.382
632.98	-0.383
633.17	-0.383
633.36	-0.383
633.55	-0.383
633.75	-0.384
633.94	-0.384
634.13	-0.384
634.32	-0.384
634.51	-0.384
634.70	-0.384
634.89	-0.384
635.09	-0.384
635.28	-0.383
635.47	-0.383
635.66	-0.383
635.85	-0.383
636.04	-0.383
636.23	-0.384
636.43	-0.384
636.62	-0.384
636.81	-0.384
637.00	-0.384
637.19	-0.384
637.38	-0.384
637.57	-0.384
637.76	-0.384
637.95	-0.384
638.15	-0.385
638.34	-0.385
638.53	-0.385
638.72	-0.385
638.91	-0.386
639.10	-0.386
639.29	-0.386
639.48	-0.386
639.67	-0.387
639.87	-0.387
640.06	-0.387
640.25	-0.388
640.44	-0.388
640.63	-0.388
640.82	-0.388
641.01	-0.389
641.20	-0.389
641.39	-0.389
641.58	-0.389
641.78	-0.389
641.97	-0.389
642.16	-0.389
642.35	-0.389
642.54	-0.389
642.73	-0.389
642.92	-0.389
643.11	-0.389
643.30	-0.389
643.49	-0.389
643.68	-0.389
643.87	-0.389
644.06	-0.390
644.25	-0.390
644.45	-0.390
644.64	-0.390
644.83	-0.390
645.02	-0.390
645.21	-0.390
645.40	-0.390
645.59	-0.390
645.78	-0.390
645.97	-0.390
646.16	-0.390
646.35	-0.390
646.54	-0.390
646.73	-0.389
646.92	-0.389
647.11	-0.389
647.30	-0.388
647.49	-0.388
647.68	-0.388
647.88	-0.387
648.07	-0.387
648.26	-0.387
648.45	-0.387
648.64	-0.387
648.83	-0.387
649.02	-0.386
649.21	-0.386
649.40	-0.386
649.59	-0.386
649.78	-0.386
649.97	-0.386
650.16	-0.386
650.35	-0.386
650.54	-0.386
650.73	-0.387
650.92	-0.387
651.11	-0.387
651.30	-0.387
651.49	-0.387
651.68	-0.387
651.87	-0.387
652.06	-0.387
652.25	-0.388
652.44	-0.388
652.63	-0.388
652.82	-0.386
653.01	-0.384
653.20	-0.382
653.39	-0.378
653.58	-0.372
653.77	-0.365
653.96	-0.357
654.15	-0.349
654.34	-0.341
654.53	-0.333
654.72	-0.324
654.91	-0.316
655.10	-0.308
655.29	-0.300
655.48	-0.294
655.67	-0.288
655.86	-0.284
656.05	-0.280
656.24	-0.277
656.43	-0.275
656.62	-0.273
656.81	-0.273
657.00	-0.275
657.19	-0.280
657.38	-0.289
657.57	-0.299
657.76	-0.311
657.95	-0.322
658.14	-0.332
658.33	-0.343
658.51	-0.354
658.70	-0.366
658.89	-0.378
659.08	-0.388
659.27	-0.394
659.46	-0.396
659.65	-0.394
659.84	-0.392
660.03	-0.390
660.22	-0.391
660.41	-0.391
660.60	-0.392
660.79	-0.392
660.98	-0.393
661.17	-0.393
661.36	-0.393
661.55	-0.393
661.74	-0.394
661.92	-0.394
662.11	-0.394
662.30	-0.394
662.49	-0.394
662.68	-0.394
662.87	-0.394
663.06	-0.394
663.25	-0.394
663.44	-0.394
663.63	-0.394
663.82	-0.394
664.01	-0.394
664.20	-0.394
664.38	-0.394
664.57	-0.394
664.76	-0.394
664.95	-0.394
665.14	-0.394
665.33	-0.394
665.52	-0.394
665.71	-0.395
665.90	-0.395
666.09	-0.395
666.28	-0.395
666.46	-0.395
666.65	-0.395
666.84	-0.395
667.03	-0.395
667.22	-0.395
667.41	-0.396
667.60	-0.395
667.79	-0.395
667.98	-0.395
668.16	-0.395
668.35	-0.395
668.54	-0.395
668.73	-0.395
668.92	-0.394
669.11	-0.394
669.30	-0.394
669.49	-0.393
669.67	-0.393
669.86	-0.393
670.05	-0.392
670.24	-0.392
670.43	-0.392
670.62	-0.391
670.81	-0.391
671.00	-0.391
671.18	-0.391
671.37	-0.391
671.56	-0.391
671.75	-0.391
671.94	-0.391
672.13	-0.391
672.32	-0.391
672.50	-0.391
672.69	-0.391
672.88	-0.391
673.07	-0.391
673.26	-0.391
673.45	-0.392
673.63	-0.392
673.82	-0.392
674.01	-0.392
674.20	-0.392
674.39	-0.392
674.58	-0.393
674.76	-0.393
674.95	-0.393
675.14	-0.393
675.33	-0.393
675.52	-0.393
675.71	-0.393
675.89	-0.393
676.08	-0.393
676.27	-0.393
676.46	-0.393
676.65	-0.393
676.84	-0.392
677.02	-0.392
677.21	-0.392
677.40	-0.392
677.59	-0.391
677.78	-0.391
677.96	-0.391
678.15	-0.391
678.34	-0.391
678.53	-0.391
678.72	-0.391
678.90	-0.391
679.09	-0.391
679.28	-0.390
679.47	-0.390
679.66	-0.390
679.84	-0.390
680.03	-0.390
680.22	-0.391
680.41	-0.391
680.60	-0.391
680.78	-0.391
680.97	-0.391
681.16	-0.391
681.35	-0.391
681.53	-0.392
681.72	-0.392
681.91	-0.392
682.10	-0.392
682.29	-0.392
682.47	-0.392
682.66	-0.391
682.85	-0.391
683.04	-0.391
683.22	-0.391
683.41	-0.391
683.60	-0.391
683.79	-0.390
683.97	-0.390
684.16	-0.390
684.35	-0.390
684.54	-0.390
684.72	-0.390
684.91	-0.389
685.10	-0.389
685.29	-0.389
685.47	-0.389
685.66	-0.389
685.85	-0.389
686.04	-0.389
686.22	-0.389
686.41	-0.390
686.60	-0.390
686.79	-0.390
686.97	-0.390
687.16	-0.390
687.35	-0.390
687.54	-0.391
687.72	-0.391
687.91	-0.391
688.10	-0.391
688.29	-0.391
688.47	-0.391
688.66	-0.391
688.85	-0.391
689.03	-0.392
689.22	-0.392
689.41	-0.392
689.60	-0.392
689.78	-0.392
689.97	-0.392
690.16	-0.392
690.34	-0.392
690.53	-0.392
690.72	-0.392
690.91	-0.392
691.09	-0.392
691.28	-0.392
691.47	-0.392
691.65	-0.392
691.84	-0.392
692.03	-0.392
692.21	-0.392
692.40	-0.392
692.59	-0.393
692.77	-0.393
692.96	-0.393
693.15	-0.393
693.34	-0.393
693.52	-0.393
693.71	-0.393
693.90	-0.393
694.08	-0.393
694.27	-0.393
694.46	-0.393
694.64	-0.393
694.83	-0.393
695.02	-0.393
695.20	-0.393
695.39	-0.392
695.58	-0.392
695.76	-0.392
695.95	-0.392
696.14	-0.392
696.32	-0.392
696.51	-0.392
696.70	-0.392
696.88	-0.392
697.07	-0.392
697.26	-0.392
697.44	-0.392
697.63	-0.392
697.81	-0.392
698.00	-0.392
698.19	-0.392
698.37	-0.392
698.56	-0.393
698.75	-0.393
698.93	-0.393
699.12	-0.394
699.31	-0.394
699.49	-0.394
699.68	-0.395
699.87	-0.395
700.05	-0.395
700.24	-0.395
700.42	-0.396
700.61	-0.396
700.80	-0.396
700.98	-0.396
701.17	-0.396
701.36	-0.396
701.54	-0.396
701.73	-0.396
701.91	-0.396
702.10	-0.396
702.29	-0.396
702.47	-0.396
702.66	-0.396
702.84	-0.396
703.03	-0.396
703.22	-0.396
703.40	-0.396
703.59	-0.396
703.77	-0.396
703.96	-0.396
704.15	-0.396
704.33	-0.396
704.52	-0.396
704.70	-0.396
704.89	-0.396
705.08	-0.396
705.26	-0.395
705.45	-0.395
705.63	-0.395
705.82	-0.395
706.00	-0.395
706.19	-0.394
706.38	-0.394
706.56	-0.393
706.75	-0.393
706.93	-0.393
707.12	-0.392
707.30	-0.392
707.49	-0.392
707.68	-0.392
707.86	-0.392
708.05	-0.392
708.23	-0.392
708.42	-0.392
708.60	-0.392
708.79	-0.392
708.98	-0.392
709.16	-0.393
709.35	-0.393
709.53	-0.393
709.72	-0.394
709.90	-0.394
710.09	-0.394
710.27	-0.395
710.46	-0.395
710.64	-0.395
710.83	-0.396
711.02	-0.396
711.20	-0.396
711.39	-0.395
711.57	-0.395
711.76	-0.395
711.94	-0.395
712.13	-0.395
712.31	-0.395
712.50	-0.394
712.68	-0.394
712.87	-0.394
713.05	-0.394
713.24	-0.394
713.42	-0.394
713.61	-0.394
713.79	-0.394
713.98	-0.394
714.16	-0.394
714.35	-0.394
714.54	-0.394
714.72	-0.394
714.91	-0.394
715.09	-0.394
715.28	-0.395
715.46	-0.395
715.65	-0.395
715.83	-0.395
716.02	-0.395
716.20	-0.396
716.39	-0.395
716.57	-0.396
716.76	-0.396
716.94	-0.396
717.12	-0.396
717.31	-0.396
717.49	-0.396
717.68	-0.396
717.86	-0.396
718.05	-0.396
718.23	-0.396
718.42	-0.396
718.60	-0.396
718.79	-0.396
718.97	-0.396
719.16	-0.396
719.34	-0.396
719.53	-0.396
719.71	-0.396
719.90	-0.397
720.08	-0.397
720.27	-0.397
720.45	-0.397
720.63	-0.397
720.82	-0.398
721.00	-0.398
721.19	-0.398
721.37	-0.398
721.56	-0.398
721.74	-0.398
721.93	-0.398
722.11	-0.398
722.30	-0.398
722.48	-0.398
722.66	-0.398
722.85	-0.398
723.03	-0.398
723.22	-0.397
723.40	-0.398
723.59	-0.398
723.77	-0.397
723.95	-0.397
724.14	-0.397
724.32	-0.397
724.51	-0.397
724.69	-0.397
724.88	-0.397
725.06	-0.397
725.24	-0.397
725.43	-0.397
725.61	-0.397
725.80	-0.397
725.98	-0.397
726.16	-0.396
726.35	-0.396
726.53	-0.396
726.72	-0.396
726.90	-0.396
727.09	-0.395
727.27	-0.396
727.45	-0.396
727.64	-0.396
727.82	-0.396
728.01	-0.396
728.19	-0.396
728.37	-0.396
728.56	-0.396
728.74	-0.396
728.92	-0.396
729.11	-0.396
729.29	-0.396
729.48	-0.395
729.66	-0.395
729.84	-0.395
730.03	-0.395
730.21	-0.395
730.40	-0.394
730.58	-0.394
730.76	-0.393
730.95	-0.393
731.13	-0.393
731.31	-0.393
731.50	-0.392
731.68	-0.392
731.86	-0.392
732.05	-0.392
732.23	-0.392
732.42	-0.392
732.60	-0.392
732.78	-0.392
732.97	-0.392
733.15	-0.392
733.33	-0.392
733.52	-0.392
733.70	-0.392
733.88	-0.391
734.07	-0.391
734.25	-0.391
734.43	-0.391
734.62	-0.391
734.80	-0.391
734.98	-0.391
735.17	-0.391
735.35	-0.392
735.53	-0.392
735.72	-0.392
735.90	-0.392
736.08	-0.392
736.27	-0.393
736.45	-0.393
736.63	-0.393
736.82	-0.393
737.00	-0.393
737.18	-0.393
737.37	-0.393
737.55	-0.392
737.73	-0.392
737.92	-0.393
738.10	-0.393
738.28	-0.392
738.46	-0.393
738.65	-0.393
738.83	-0.393
739.01	-0.393
739.20	-0.394
739.38	-0.394
739.56	-0.395
739.75	-0.395
739.93	-0.395
740.11	-0.395
740.29	-0.396
740.48	-0.397
740.66	-0.397
740.84	-0.397
741.03	-0.397
741.21	-0.397
741.39	-0.397
741.57	-0.398
741.76	-0.398
741.94	-0.398
742.12	-0.399
742.31	-0.399
742.49	-0.399
742.67	-0.400
742.85	-0.400
743.04	-0.400
743.22	-0.400
743.40	-0.400
743.58	-0.400
743.77	-0.401
743.95	-0.401
744.13	-0.402
744.31	-0.402
744.50	-0.402
744.68	-0.402
744.86	-0.402
745.04	-0.403
745.23	-0.404
745.41	-0.404
745.59	-0.404
745.77	-0.403
745.96	-0.403
746.14	-0.403
746.32	-0.403
746.50	-0.403
746.69	-0.404
746.87	-0.404
747.05	-0.404
747.23	-0.404
747.42	-0.405
747.60	-0.405
747.78	-0.406
747.96	-0.406
748.14	-0.406
748.33	-0.406
748.51	-0.405
748.69	-0.405
748.87	-0.405
749.06	-0.405
749.24	-0.406
749.42	-0.405
749.60	-0.405
749.78	-0.404
749.97	-0.404
750.15	-0.403
750.33	-0.403
750.51	-0.403
750.69	-0.403
750.88	-0.403
751.06	-0.403
751.24	-0.402
751.42	-0.402
751.60	-0.403
751.79	-0.403
751.97	-0.402
752.15	-0.403
752.33	-0.403
752.51	-0.402
752.69	-0.402
752.88	-0.401
753.06	-0.401
753.24	-0.402
753.42	-0.401
753.60	-0.400
753.78	-0.400
753.97	-0.401
754.15	-0.401
754.33	-0.401
754.51	-0.401
754.69	-0.401
754.87	-0.401
755.06	-0.400
755.24	-0.400
755.42	-0.399
755.60	-0.400
755.78	-0.399
755.96	-0.399
756.15	-0.398
756.33	-0.398
756.51	-0.397
756.69	-0.397
756.87	-0.396
757.05	-0.397
757.23	-0.397
757.42	-0.397
757.60	-0.396
757.78	-0.396
757.96	-0.396
758.14	-0.396
758.32	-0.396
758.50	-0.397
758.69	-0.397
758.87	-0.397
759.05	-0.397
759.23	-0.397
759.41	-0.398
759.59	-0.399
759.77	-0.399
759.95	-0.399
760.13	-0.399
760.32	-0.399
760.50	-0.399
760.68	-0.400
760.86	-0.399
761.04	-0.399
761.22	-0.399
761.40	-0.399
761.58	-0.399
761.76	-0.399
761.95	-0.398
762.13	-0.398
762.31	-0.397
762.49	-0.397
762.67	-0.397
762.85	-0.397
763.03	-0.398
763.21	-0.397
763.39	-0.397
763.57	-0.397
763.75	-0.397
763.94	-0.398
764.12	-0.398
764.30	-0.398
764.48	-0.398
764.66	-0.398
764.84	-0.398
765.02	-0.398
765.20	-0.398
765.38	-0.399
765.56	-0.399
765.74	-0.399
765.92	-0.399
766.10	-0.399
766.28	-0.400
766.46	-0.400
766.65	-0.400
766.83	-0.401
767.01	-0.401
767.19	-0.401
767.37	-0.401
767.55	-0.402
767.73	-0.402
767.91	-0.403
768.09	-0.403
768.27	-0.403
768.45	-0.403
768.63	-0.403
768.81	-0.403
768.99	-0.403
769.17	-0.403
769.35	-0.403
769.53	-0.402
769.71	-0.403
769.89	-0.402
770.07	-0.402
770.25	-0.402
770.43	-0.402
770.61	-0.402
770.79	-0.402
770.97	-0.403
771.15	-0.402
771.33	-0.402
771.51	-0.403
771.69	-0.403
771.87	-0.404
772.05	-0.404
772.24	-0.404
772.42	-0.405
772.60	-0.405
772.78	-0.405
772.96	-0.406
773.14	-0.406
773.32	-0.406
773.49	-0.407
773.67	-0.407
773.85	-0.407
774.03	-0.407
774.21	-0.407
774.39	-0.406
774.57	-0.407
774.75	-0.407
774.93	-0.407
775.11	-0.407
775.29	-0.407
775.47	-0.408
775.65	-0.408
775.83	-0.408
776.01	-0.408
776.19	-0.408
776.37	-0.409
776.55	-0.409
776.73	-0.409
776.91	-0.409
777.09	-0.409
777.27	-0.409
777.45	-0.408
777.63	-0.409
777.81	-0.408
777.99	-0.408
778.17	-0.407
778.35	-0.407
778.53	-0.407
778.71	-0.406
778.89	-0.406
779.07	-0.406
779.24	-0.406
779.42	-0.406
779.60	-0.406
779.78	-0.405
779.96	-0.405
780.14	-0.406
780.32	-0.406
780.50	-0.405
780.68	-0.405
780.86	-0.405
781.04	-0.405
781.22	-0.405
781.40	-0.404
781.58	-0.404
781.75	-0.405
781.93	-0.404
782.11	-0.404
782.29	-0.404
782.47	-0.404
782.65	-0.404
782.83	-0.404
783.01	-0.404
783.19	-0.403
783.37	-0.403
783.55	-0.403
783.72	-0.403
783.90	-0.404
784.08	-0.403
784.26	-0.403
784.44	-0.404
784.62	-0.404
784.80	-0.404
784.98	-0.404
785.16	-0.404
785.33	-0.405
785.51	-0.405
785.69	-0.405
785.87	-0.405
786.05	-0.404
786.23	-0.404
786.41	-0.404
786.59	-0.404
786.77	-0.403
786.94	-0.403
787.12	-0.403
787.30	-0.402
787.48	-0.402
787.66	-0.402
787.84	-0.402
788.02	-0.402
788.19	-0.402
788.37	-0.402
788.55	-0.403
788.73	-0.403
788.91	-0.403
789.09	-0.404
789.27	-0.404
789.44	-0.405
789.62	-0.405
789.80	-0.405
789.98	-0.405
790.16	-0.405
790.34	-0.406
790.51	-0.405
790.69	-0.405
790.87	-0.405
791.05	-0.404
791.23	-0.404
791.41	-0.404
791.58	-0.403
791.76	-0.403
791.94	-0.403
792.12	-0.403
792.30	-0.402
792.48	-0.402
792.65	-0.402
792.83	-0.402
793.01	-0.401
793.19	-0.401
793.37	-0.401
793.54	-0.401
793.72	-0.401
793.90	-0.401
794.08	-0.401
794.26	-0.401
794.43	-0.401
794.61	-0.401
794.79	-0.401
794.97	-0.401
795.15	-0.402
795.32	-0.402
795.50	-0.402
795.68	-0.402
795.86	-0.403
796.04	-0.403
796.21	-0.403
796.39	-0.403
796.57	-0.403
796.75	-0.404
796.92	-0.405
797.10	-0.405
797.28	-0.406
797.46	-0.406
797.64	-0.406
797.81	-0.406
797.99	-0.407
798.17	-0.407
798.35	-0.407
798.52	-0.407
798.70	-0.407
798.88	-0.407
799.06	-0.407
799.23	-0.408
799.41	-0.408
799.59	-0.408
799.77	-0.409
799.94	-0.408
800.12	-0.409
800.30	-0.409
800.48	-0.410
800.65	-0.410
800.83	-0.409
801.01	-0.410
801.19	-0.409
801.36	-0.410
801.54	-0.410
801.72	-0.410
801.90	-0.410
802.07	-0.410
802.25	-0.410
802.43	-0.410
802.60	-0.410
802.78	-0.410
802.96	-0.410
803.14	-0.410
803.31	-0.410
803.49	-0.410
803.67	-0.410
803.84	-0.410
804.02	-0.410
804.20	-0.409
804.38	-0.409
804.55	-0.409
804.73	-0.409
804.91	-0.409
805.08	-0.409
805.26	-0.408
805.44	-0.407
805.61	-0.407
805.79	-0.407
805.97	-0.408
806.15	-0.408
806.32	-0.407
806.50	-0.408
806.68	-0.407
806.85	-0.407
807.03	-0.407
807.21	-0.407
807.38	-0.407
807.56	-0.408
807.74	-0.408
807.91	-0.407
808.09	-0.407
808.27	-0.407
808.44	-0.407
808.62	-0.407
808.80	-0.407
808.97	-0.407
809.15	-0.407
809.33	-0.408
809.50	-0.407
809.68	-0.407
809.86	-0.407
810.03	-0.408
810.21	-0.408
810.39	-0.408
810.56	-0.409
810.74	-0.409
810.91	-0.410
811.09	-0.409
811.27	-0.410
811.44	-0.410
811.62	-0.410
811.80	-0.410
811.97	-0.410
812.15	-0.411
812.33	-0.411
812.50	-0.410
812.68	-0.410
812.85	-0.410
813.03	-0.410
813.21	-0.410
813.38	-0.410
813.56	-0.410
813.74	-0.410
813.91	-0.410
814.09	-0.409
814.26	-0.409
814.44	-0.409
814.62	-0.408
814.79	-0.408
814.97	-0.408
815.14	-0.407
815.32	-0.407
815.50	-0.408
815.67	-0.408
815.85	-0.408
816.02	-0.409
816.20	-0.409
816.38	-0.409
816.55	-0.409
816.73	-0.410
816.90	-0.409
817.08	-0.410
817.26	-0.410
817.43	-0.410
817.61	-0.410
817.78	-0.410
817.96	-0.409
818.13	-0.410
818.31	-0.409
818.49	-0.409
818.66	-0.409
818.84	-0.410
819.01	-0.409
819.19	-0.410
819.36	-0.409
819.54	-0.408
819.71	-0.408
819.89	-0.408
820.07	-0.408
820.24	-0.408
820.42	-0.408
820.59	-0.407
820.77	-0.408
820.94	-0.408
821.12	-0.407
821.29	-0.407
821.47	-0.408
821.64	-0.408
821.82	-0.409
822.00	-0.410
822.17	-0.409
822.35	-0.410
822.52	-0.410
822.70	-0.411
822.87	-0.411
823.05	-0.411
823.22	-0.412
823.40	-0.412
823.57	-0.411
823.75	-0.410
823.92	-0.410
824.10	-0.410
824.27	-0.410
824.45	-0.410
824.62	-0.409
824.80	-0.410
824.97	-0.410
825.15	-0.410
825.32	-0.410
825.50	-0.411
825.67	-0.411
825.85	-0.411
826.02	-0.411
826.20	-0.410
826.37	-0.410
826.55	-0.410
826.72	-0.410
826.90	-0.410
827.07	-0.410
827.25	-0.410
827.42	-0.410
827.60	-0.410
827.77	-0.410
827.95	-0.410
828.12	-0.411
828.30	-0.411
828.47	-0.410
828.65	-0.410
828.82	-0.410
829.00	-0.410
829.17	-0.410
829.34	-0.409
829.52	-0.412
829.69	-0.411
829.87	-0.412
830.04	-0.413
830.22	-0.413
830.39	-0.414
830.57	-0.415
830.74	-0.415
830.92	-0.415
831.09	-0.416
831.26	-0.415
831.44	-0.414
831.61	-0.413
831.79	-0.413
831.96	-0.413
832.14	-0.414
832.31	-0.415
832.49	-0.414
832.66	-0.413
832.83	-0.413
833.01	-0.410
833.18	-0.412
833.36	-0.412
833.53	-0.413
833.70	-0.413
833.88	-0.412
834.05	-0.410
834.23	-0.411
834.40	-0.412
834.58	-0.413
834.75	-0.412
834.92	-0.414
835.10	-0.413
835.27	-0.414
835.45	-0.414
835.62	-0.415
835.79	-0.413
835.97	-0.413
836.14	-0.411
836.32	-0.412
836.49	-0.413
836.66	-0.415
836.84	-0.417
837.01	-0.418
837.18	-0.418
837.36	-0.419
837.53	-0.419
837.71	-0.422
837.88	-0.420
838.05	-0.421
838.23	-0.420
838.40	-0.417
838.58	-0.418
838.75	-0.417
838.92	-0.415
839.10	-0.416
839.27	-0.412
839.44	-0.414
839.62	-0.413
839.79	-0.414
839.96	-0.413
840.14	-0.412
840.31	-0.412
840.48	-0.411
840.66	-0.411
840.83	-0.411
841.01	-0.412
841.18	-0.413
841.35	-0.411
841.53	-0.412
841.70	-0.413
841.87	-0.416
842.05	-0.417
842.22	-0.417
842.39	-0.416
842.57	-0.418
842.74	-0.418
842.91	-0.417
843.09	-0.417
843.26	-0.420
843.43	-0.417
843.60	-0.418
843.78	-0.418
843.95	-0.419
844.12	-0.422
844.30	-0.421
844.47	-0.418
844.64	-0.418
844.82	-0.418
844.99	-0.418
845.16	-0.419
845.34	-0.420
845.51	-0.419
845.68	-0.417
845.85	-0.416
846.03	-0.415
846.20	-0.418
846.37	-0.416
846.55	-0.415
846.72	-0.414
846.89	-0.412
847.06	-0.407
847.24	-0.409
847.41	-0.413
847.58	-0.411
847.76	-0.412
847.93	-0.407
848.10	-0.405
848.27	-0.410
848.45	-0.410
848.62	-0.410
848.79	-0.410
848.97	-0.414
849.14	-0.408
849.31	-0.405
849.48	-0.404
849.66	-0.403
849.83	-0.406
850.00	-0.407
850.17	-0.402
850.35	-0.404
850.52	-0.405
850.69	-0.409
850.86	-0.406
851.04	-0.409
851.21	-0.410
851.38	-0.412
851.55	-0.413
851.72	-0.414
851.90	-0.411
852.07	-0.412
852.24	-0.416
852.41	-0.417
852.59	-0.414
852.76	-0.417
852.93	-0.418
853.10	-0.419
853.28	-0.419
853.45	-0.419
853.62	-0.423
853.79	-0.424
853.96	-0.429
854.14	-0.424
854.31	-0.426
854.48	-0.425
854.65	-0.424
854.82	-0.423
855.00	-0.422
855.17	-0.422
855.34	-0.419
855.51	-0.417
855.68	-0.412
855.86	-0.405
856.03	-0.405
856.20	-0.403
856.37	-0.403
856.54	-0.404
856.72	-0.403
856.89	-0.401
857.06	-0.396
857.23	-0.401
857.40	-0.397
857.57	-0.401
857.75	-0.403
857.92	-0.401
858.09	-0.402
858.26	-0.399
858.43	-0.398
858.60	-0.402
858.78	-0.403
858.95	-0.410
859.12	-0.410
859.29	-0.410
859.46	-0.405
859.63	-0.405
859.81	-0.412
859.98	-0.407
860.15	-0.409
860.32	-0.410
860.49	-0.408
860.66	-0.412
860.83	-0.408
861.01	-0.405
861.18	-0.410
861.35	-0.418
861.52	-0.419
861.69	-0.414
861.86	-0.419
862.03	-0.420
862.21	-0.419
862.38	-0.416
862.55	-0.415
862.72	-0.415
862.89	-0.412
863.06	-0.407
863.23	-0.403
863.40	-0.399
863.58	-0.398
863.75	-0.398
863.92	-0.400
864.09	-0.400
864.26	-0.400
864.43	-0.398
864.60	-0.403
864.77	-0.410
864.94	-0.414
865.11	-0.414
865.29	-0.417
865.46	-0.416
865.63	-0.416
865.80	-0.414
865.97	-0.412
866.14	-0.413
866.31	-0.413
866.48	-0.407
866.65	-0.404
866.82	-0.399
866.99	-0.402
867.16	-0.404
867.34	-0.404
867.51	-0.409
867.68	-0.408
867.85	-0.410
868.02	-0.412
868.19	-0.413
868.36	-0.416
868.53	-0.418
868.70	-0.422
868.87	-0.421
869.04	-0.414
869.21	-0.418
869.38	-0.414
869.55	-0.413
869.72	-0.411
869.89	-0.411
870.06	-0.410
870.24	-0.409
870.41	-0.410
870.58	-0.410
870.75	-0.414
870.92	-0.420
871.09	-0.414
871.26	-0.412
871.43	-0.411
871.60	-0.415
871.77	-0.408
871.94	-0.413
872.11	-0.415
872.28	-0.409
872.45	-0.408
872.62	-0.411
872.79	-0.413
872.96	-0.412
873.13	-0.414
873.30	-0.410
873.47	-0.418
873.64	-0.424
873.81	-0.428
873.98	-0.430
874.15	-0.427
874.32	-0.431
874.49	-0.423
874.66	-0.418
874.83	-0.424
875.00	-0.423
875.17	-0.427
875.34	-0.412
875.51	-0.411
875.68	-0.405
875.85	-0.395
876.02	-0.400
876.19	-0.393
876.36	-0.389
876.53	-0.384
876.70	-0.386
876.87	-0.386
877.04	-0.403
877.21	-0.417
877.38	-0.411
877.55	-0.411
877.72	-0.413
877.89	-0.420
878.06	-0.421
878.23	-0.424
878.39	-0.436
878.56	-0.435
878.73	-0.431
878.90	-0.410
879.07	-0.400
879.24	-0.410
879.41	-0.411
879.58	-0.414
879.75	-0.408
879.92	-0.406
880.09	-0.416
880.26	-0.422
880.43	-0.424
880.60	-0.421
880.77	-0.419
880.94	-0.420
881.11	-0.418
881.27	-0.414
881.44	-0.413
881.61	-0.409
881.78	-0.419
881.95	-0.406
882.12	-0.396
882.29	-0.391
882.46	-0.394
882.63	-0.392
882.80	-0.393
882.97	-0.387
883.14	-0.383
883.30	-0.379
883.47	-0.378
883.64	-0.368
883.81	-0.381
883.98	-0.382
884.15	-0.380
884.32	-0.382
884.49	-0.395
884.66	-0.389
884.82	-0.389
884.99	-0.384
885.16	-0.392
885.33	-0.392
885.50	-0.393
885.67	-0.382
885.84	-0.394
886.01	-0.378
886.17	-0.370
886.34	-0.366
886.51	-0.357
886.68	-0.351
886.85	-0.366
887.02	-0.362
887.19	-0.360
887.36	-0.357
887.52	-0.352
887.69	-0.343
887.86	-0.350
888.03	-0.359
888.20	-0.362
888.37	-0.380
888.54	-0.380
888.70	-0.378
888.87	-0.373
889.04	-0.372
889.21	-0.373
889.38	-0.365
889.55	-0.367
889.71	-0.334
889.88	-0.336
890.05	-0.375
890.22	-0.233
890.39	-0.478
>>>>>End Processed Spectral Data<<<<<
