SpectraSuite Data File
++++++++++++++++++++++++++++++++++++
Date: Mon Jun 15 09:50:13 PDT 2015
User: introlabs
Dark Spectrum Present: Yes
Reference Spectrum Present: Yes
Number of Sampled Component Spectra: 1
Spectrometers: USB4H08886
Integration Time (usec): 44366 (USB4H08886)
Spectra Averaged: 20 (USB4H08886)
Boxcar Smoothing: 5 (USB4H08886)
Correct for Electrical Dark: Yes (USB4H08886)
Strobe/Lamp Enabled: No (USB4H08886)
Correct for Detector Non-linearity: Yes (USB4H08886)
Correct for Stray Light: Yes (USB4H08886)
Number of Pixels in Processed Spectrum: 3648
>>>>>Begin Processed Spectral Data<<<<<
178.14	-0.000
178.36	-0.000
178.57	-0.000
178.79	-0.000
179.01	-1.086
179.22	0.856
179.44	0.401
179.65	-0.087
179.87	1.304
180.08	-0.000
180.30	0.581
180.52	0.447
180.73	0.079
180.95	0.574
181.16	0.686
181.38	0.884
181.59	0.967
181.81	1.207
182.03	1.627
182.24	1.207
182.46	1.311
182.67	1.257
182.89	1.258
183.10	1.425
183.32	1.566
183.54	1.576
183.75	1.654
183.97	1.780
184.18	1.866
184.40	1.928
184.61	-0.000
184.83	-0.000
185.04	-0.000
185.26	-0.000
185.48	-0.000
185.69	-0.000
185.91	-0.000
186.12	-0.000
186.34	-0.000
186.55	-0.000
186.77	-0.000
186.98	-0.000
187.20	-0.000
187.42	-0.000
187.63	-0.000
187.85	-0.000
188.06	-0.000
188.28	-0.000
188.49	-0.000
188.71	-0.000
188.92	-0.000
189.14	-0.000
189.36	-0.000
189.57	-0.000
189.79	-0.000
190.00	2.039
190.22	1.392
190.43	1.180
190.65	1.158
190.86	1.334
191.08	1.285
191.29	1.196
191.51	1.242
191.72	1.275
191.94	1.461
192.16	1.398
192.37	1.525
192.59	1.835
192.80	-0.000
193.02	-0.000
193.23	2.552
193.45	2.474
193.66	-0.000
193.88	-0.000
194.09	-0.000
194.31	-0.000
194.52	-0.000
194.74	-0.000
194.95	-0.000
195.17	-0.000
195.38	-0.000
195.60	-0.000
195.81	-0.000
196.03	-0.000
196.25	-0.000
196.46	-0.000
196.68	-0.000
196.89	-0.000
197.11	-0.000
197.32	-0.000
197.54	-0.000
197.75	-0.000
197.97	-0.000
198.18	-0.000
198.40	-0.000
198.61	-0.000
198.83	-0.000
199.04	-0.000
199.26	-0.000
199.47	-0.000
199.69	-0.000
199.90	-0.000
200.12	-0.000
200.33	-0.000
200.55	2.102
200.76	1.938
200.98	1.611
201.19	1.353
201.41	1.345
201.62	1.295
201.84	1.492
202.05	1.686
202.27	1.721
202.48	-0.000
202.70	-0.000
202.91	2.403
203.13	1.884
203.34	1.940
203.56	2.430
203.77	-0.000
203.99	2.185
204.20	-0.000
204.42	2.146
204.63	1.599
204.85	1.275
205.06	1.268
205.28	1.200
205.49	1.149
205.71	1.142
205.92	1.120
206.14	1.153
206.35	1.263
206.56	1.148
206.78	1.145
206.99	1.319
207.21	1.383
207.42	1.378
207.64	1.490
207.85	1.896
208.07	-0.000
208.28	-0.000
208.50	2.182
208.71	1.788
208.93	-0.000
209.14	3.014
209.36	1.770
209.57	1.508
209.79	1.631
210.00	1.786
210.22	1.594
210.43	1.461
210.64	1.780
210.86	2.310
211.07	2.126
211.29	1.878
211.50	2.852
211.72	2.296
211.93	-0.000
212.15	-0.000
212.36	-0.000
212.58	2.542
212.79	-0.000
213.01	2.200
213.22	1.945
213.43	2.125
213.65	1.850
213.86	1.724
214.08	3.101
214.29	2.180
214.51	3.524
214.72	-0.000
214.94	-0.000
215.15	-0.000
215.36	-0.000
215.58	-0.000
215.79	-0.000
216.01	3.544
216.22	-0.000
216.44	3.125
216.65	-0.000
216.87	2.342
217.08	2.267
217.29	-0.000
217.51	2.557
217.72	1.731
217.94	1.512
218.15	1.579
218.37	1.959
218.58	1.671
218.80	1.701
219.01	1.489
219.22	1.494
219.44	1.516
219.65	1.549
219.87	1.581
220.08	1.612
220.30	1.540
220.51	1.661
220.72	2.348
220.94	2.171
221.15	2.467
221.37	-0.000
221.58	-0.000
221.79	-0.000
222.01	-0.000
222.22	-0.000
222.44	-0.000
222.65	-0.000
222.87	-0.000
223.08	-0.000
223.29	-0.000
223.51	-0.000
223.72	-0.000
223.94	-0.000
224.15	-0.000
224.36	-0.000
224.58	-0.000
224.79	2.583
225.01	1.899
225.22	1.832
225.44	1.866
225.65	1.797
225.86	1.818
226.08	1.803
226.29	1.954
226.51	1.935
226.72	1.647
226.93	1.667
227.15	1.717
227.36	1.945
227.58	2.070
227.79	1.991
228.00	2.270
228.22	2.354
228.43	-0.000
228.65	-0.000
228.86	-0.000
229.07	-0.000
229.29	-0.000
229.50	-0.000
229.72	-0.000
229.93	-0.000
230.14	2.444
230.36	2.207
230.57	2.082
230.78	2.071
231.00	1.943
231.21	2.039
231.43	1.837
231.64	1.837
231.85	1.994
232.07	2.067
232.28	2.193
232.50	2.223
232.71	2.135
232.92	1.965
233.14	1.897
233.35	1.802
233.56	1.798
233.78	1.931
233.99	1.811
234.21	1.875
234.42	1.920
234.63	1.860
234.85	1.883
235.06	1.947
235.27	2.001
235.49	1.944
235.70	2.046
235.91	2.045
236.13	2.088
236.34	2.242
236.56	2.203
236.77	2.172
236.98	2.257
237.20	2.481
237.41	2.584
237.62	3.067
237.84	2.698
238.05	3.112
238.26	2.552
238.48	2.477
238.69	2.342
238.91	2.273
239.12	2.419
239.33	2.419
239.55	2.447
239.76	2.312
239.97	2.303
240.19	2.333
240.40	2.340
240.61	2.327
240.83	2.240
241.04	2.346
241.25	2.362
241.47	2.326
241.68	2.293
241.89	2.274
242.11	2.396
242.32	2.386
242.53	2.540
242.75	2.379
242.96	2.680
243.17	3.702
243.39	-0.000
243.60	-0.000
243.81	-0.000
244.03	-0.000
244.24	-0.000
244.45	-0.000
244.67	-0.000
244.88	-0.000
245.09	-0.000
245.31	-0.000
245.52	-0.000
245.73	3.420
245.95	-0.000
246.16	3.036
246.37	3.200
246.59	2.866
246.80	2.911
247.01	2.745
247.23	2.923
247.44	2.958
247.65	2.872
247.87	2.892
248.08	3.046
248.29	2.832
248.51	3.019
248.72	2.991
248.93	2.912
249.15	2.886
249.36	3.174
249.57	2.975
249.78	2.936
250.00	2.994
250.21	2.910
250.42	2.807
250.64	2.826
250.85	2.937
251.06	2.822
251.28	2.838
251.49	2.869
251.70	2.765
251.92	2.701
252.13	2.650
252.34	2.659
252.55	2.656
252.77	2.788
252.98	2.709
253.19	2.631
253.41	2.652
253.62	2.645
253.83	2.615
254.05	2.660
254.26	2.723
254.47	2.951
254.68	2.958
254.90	3.228
255.11	3.637
255.32	-0.000
255.54	-0.000
255.75	-0.000
255.96	-0.000
256.17	-0.000
256.39	-0.000
256.60	-0.000
256.81	-0.000
257.03	-0.000
257.24	-0.000
257.45	-0.000
257.66	-0.000
257.88	-0.000
258.09	-0.000
258.30	-0.000
258.51	-0.000
258.73	-0.000
258.94	-0.000
259.15	3.938
259.37	-0.000
259.58	-0.000
259.79	-0.000
260.00	-0.000
260.22	-0.000
260.43	-0.000
260.64	-0.000
260.85	-0.000
261.07	-0.000
261.28	3.801
261.49	3.621
261.71	3.348
261.92	3.503
262.13	3.444
262.34	3.115
262.56	3.238
262.77	3.035
262.98	3.120
263.19	3.288
263.41	3.380
263.62	3.579
263.83	3.609
264.04	3.628
264.26	3.477
264.47	3.404
264.68	3.299
264.89	3.258
265.11	3.404
265.32	3.215
265.53	3.277
265.74	3.259
265.96	3.331
266.17	3.373
266.38	3.172
266.59	3.279
266.81	3.425
267.02	3.547
267.23	3.503
267.44	4.107
267.65	4.108
267.87	3.743
268.08	3.642
268.29	3.590
268.50	3.377
268.72	3.638
268.93	3.424
269.14	3.404
269.35	3.475
269.57	3.716
269.78	3.404
269.99	3.574
270.20	-0.000
270.41	3.812
270.63	3.595
270.84	3.563
271.05	3.476
271.26	3.810
271.48	3.585
271.69	3.342
271.90	3.144
272.11	3.036
272.32	3.060
272.54	2.986
272.75	3.028
272.96	3.025
273.17	3.105
273.39	3.105
273.60	2.967
273.81	2.930
274.02	2.955
274.23	3.048
274.45	3.087
274.66	2.990
274.87	2.930
275.08	2.874
275.29	2.910
275.51	2.933
275.72	3.014
275.93	2.896
276.14	2.919
276.35	2.901
276.57	2.852
276.78	2.864
276.99	2.900
277.20	2.901
277.41	2.935
277.63	2.941
277.84	2.889
278.05	2.888
278.26	3.126
278.47	3.187
278.69	3.196
278.90	3.294
279.11	3.166
279.32	3.291
279.53	3.619
279.74	3.782
279.96	4.033
280.17	4.066
280.38	3.611
280.59	3.392
280.80	3.375
281.02	3.563
281.23	3.596
281.44	3.807
281.65	3.707
281.86	3.376
282.07	3.535
282.29	3.412
282.50	3.465
282.71	3.678
282.92	3.771
283.13	3.909
283.35	3.694
283.56	3.829
283.77	-0.000
283.98	-0.000
284.19	4.716
284.40	3.570
284.62	3.367
284.83	3.403
285.04	3.432
285.25	3.559
285.46	3.528
285.67	3.326
285.88	3.278
286.10	3.257
286.31	3.250
286.52	3.158
286.73	3.178
286.94	3.221
287.15	3.198
287.37	3.204
287.58	3.066
287.79	3.029
288.00	3.183
288.21	3.220
288.42	3.090
288.63	3.125
288.85	3.237
289.06	3.260
289.27	3.370
289.48	3.440
289.69	3.301
289.90	3.340
290.11	3.347
290.33	3.315
290.54	3.283
290.75	3.280
290.96	3.316
291.17	3.287
291.38	3.319
291.59	3.338
291.81	3.314
292.02	3.338
292.23	3.385
292.44	3.432
292.65	3.381
292.86	3.363
293.07	3.411
293.28	3.371
293.50	3.414
293.71	3.433
293.92	3.360
294.13	3.358
294.34	3.419
294.55	3.445
294.76	3.495
294.97	3.594
295.19	3.622
295.40	3.740
295.61	3.674
295.82	3.651
296.03	3.692
296.24	4.087
296.45	4.468
296.66	4.156
296.87	4.383
297.09	4.118
297.30	4.261
297.51	4.302
297.72	4.166
297.93	4.554
298.14	-0.000
298.35	4.295
298.56	3.805
298.77	3.585
298.99	3.550
299.20	3.518
299.41	3.510
299.62	3.580
299.83	3.607
300.04	3.604
300.25	3.590
300.46	3.419
300.67	3.538
300.88	3.497
301.10	3.526
301.31	3.718
301.52	3.875
301.73	4.150
301.94	4.034
302.15	3.884
302.36	3.701
302.57	3.750
302.78	3.943
302.99	3.751
303.20	3.815
303.41	4.034
303.63	3.744
303.84	3.572
304.05	3.483
304.26	3.365
304.47	3.473
304.68	3.542
304.89	3.526
305.10	3.565
305.31	3.584
305.52	3.541
305.73	3.502
305.94	3.609
306.15	3.666
306.37	3.660
306.58	3.773
306.79	3.556
307.00	3.518
307.21	3.421
307.42	3.369
307.63	3.365
307.84	3.393
308.05	3.389
308.26	3.366
308.47	3.415
308.68	3.335
308.89	3.293
309.10	3.355
309.31	3.375
309.52	3.432
309.73	3.457
309.95	3.440
310.16	3.378
310.37	3.404
310.58	3.404
310.79	3.355
311.00	3.412
311.21	3.428
311.42	3.504
311.63	3.538
311.84	3.582
312.05	3.638
312.26	3.649
312.47	3.752
312.68	3.651
312.89	3.656
313.10	3.681
313.31	3.785
313.52	3.804
313.73	3.599
313.94	3.584
314.15	3.503
314.36	3.471
314.57	3.391
314.78	3.401
314.99	3.413
315.21	3.389
315.42	3.362
315.63	3.332
315.84	3.267
316.05	3.293
316.26	3.309
316.47	3.354
316.68	3.313
316.89	3.406
317.10	3.370
317.31	3.386
317.52	3.385
317.73	3.397
317.94	3.435
318.15	3.442
318.36	3.370
318.57	3.333
318.78	3.350
318.99	3.356
319.20	3.353
319.41	3.353
319.62	3.306
319.83	3.291
320.04	3.278
320.25	3.207
320.46	3.280
320.67	3.334
320.88	3.314
321.09	3.242
321.30	3.234
321.51	3.220
321.72	3.231
321.93	3.277
322.14	3.284
322.35	3.318
322.56	3.359
322.77	3.345
322.98	3.275
323.19	3.293
323.40	3.394
323.61	3.461
323.82	3.477
324.03	3.597
324.24	3.567
324.45	3.575
324.66	3.652
324.87	3.668
325.08	3.696
325.29	3.827
325.50	3.828
325.71	3.861
325.92	3.895
326.13	3.734
326.34	3.609
326.55	3.634
326.76	3.624
326.97	3.602
327.18	3.641
327.39	3.636
327.60	3.589
327.80	3.650
328.01	3.504
328.22	3.471
328.43	3.568
328.64	3.558
328.85	3.562
329.06	3.543
329.27	3.426
329.48	3.426
329.69	3.414
329.90	3.430
330.11	3.424
330.32	3.431
330.53	3.416
330.74	3.401
330.95	3.408
331.16	3.431
331.37	3.443
331.58	3.508
331.79	3.558
332.00	3.622
332.21	3.741
332.42	3.602
332.63	3.716
332.83	3.684
333.04	3.706
333.25	3.782
333.46	3.636
333.67	3.670
333.88	3.673
334.09	3.645
334.30	3.583
334.51	3.537
334.72	3.652
334.93	3.513
335.14	3.574
335.35	3.508
335.56	3.433
335.77	3.465
335.98	3.385
336.18	3.378
336.39	3.370
336.60	3.364
336.81	3.362
337.02	3.318
337.23	3.350
337.44	3.329
337.65	3.431
337.86	3.475
338.07	3.504
338.28	3.571
338.49	3.498
338.70	3.561
338.91	3.553
339.11	3.532
339.32	3.565
339.53	3.574
339.74	3.567
339.95	3.537
340.16	3.460
340.37	3.475
340.58	3.572
340.79	3.677
341.00	3.514
341.21	3.481
341.41	3.473
341.62	3.462
341.83	3.440
342.04	3.483
342.25	3.488
342.46	3.491
342.67	3.485
342.88	3.439
343.09	3.389
343.30	3.407
343.50	3.513
343.71	3.577
343.92	3.623
344.13	3.724
344.34	3.594
344.55	3.561
344.76	3.628
344.97	3.534
345.18	3.523
345.38	3.525
345.59	3.503
345.80	3.391
346.01	3.354
346.22	3.342
346.43	3.334
346.64	3.418
346.85	3.397
347.06	3.423
347.26	3.495
347.47	3.514
347.68	3.580
347.89	3.670
348.10	3.658
348.31	3.704
348.52	3.643
348.73	3.625
348.93	3.551
349.14	3.519
349.35	3.535
349.56	3.459
349.77	3.460
349.98	3.437
350.19	3.429
350.39	3.500
350.60	3.463
350.81	3.519
351.02	3.505
351.23	3.575
351.44	3.628
351.65	3.583
351.86	3.561
352.06	3.490
352.27	3.530
352.48	3.530
352.69	3.581
352.90	3.525
353.11	3.567
353.31	3.561
353.52	3.483
353.73	3.425
353.94	3.425
354.15	3.501
354.36	3.519
354.57	3.547
354.77	3.514
354.98	3.498
355.19	3.530
355.40	3.468
355.61	3.420
355.82	3.379
356.02	3.441
356.23	3.388
356.44	3.392
356.65	3.421
356.86	3.376
357.07	3.443
357.27	3.354
357.48	3.337
357.69	3.351
357.90	3.440
358.11	3.540
358.32	3.488
358.52	3.521
358.73	3.551
358.94	3.525
359.15	3.487
359.36	3.517
359.56	3.615
359.77	3.741
359.98	3.674
360.19	3.618
360.40	3.651
360.61	3.728
360.81	3.833
361.02	3.759
361.23	3.820
361.44	3.825
361.65	3.685
361.85	3.671
362.06	3.641
362.27	3.781
362.48	3.737
362.69	3.585
362.89	3.540
363.10	3.514
363.31	3.426
363.52	3.434
363.73	3.426
363.93	3.430
364.14	3.459
364.35	3.452
364.56	3.427
364.77	3.463
364.97	3.546
365.18	3.562
365.39	3.582
365.60	3.704
365.81	3.617
366.01	3.650
366.22	3.594
366.43	3.514
366.64	3.516
366.84	3.499
367.05	3.490
367.26	3.401
367.47	3.440
367.68	3.464
367.88	3.422
368.09	3.432
368.30	3.473
368.51	3.496
368.71	3.505
368.92	3.460
369.13	3.470
369.34	3.447
369.55	3.474
369.75	3.427
369.96	3.442
370.17	3.545
370.38	3.563
370.58	3.462
370.79	3.441
371.00	3.508
371.21	3.635
371.41	3.538
371.62	3.530
371.83	3.542
372.04	3.480
372.24	3.444
372.45	3.365
372.66	3.384
372.87	3.413
373.07	3.457
373.28	3.464
373.49	3.485
373.70	3.540
373.90	3.595
374.11	3.648
374.32	3.783
374.53	3.705
374.73	3.874
374.94	3.975
375.15	4.114
375.36	4.109
375.56	4.056
375.77	3.880
375.98	3.962
376.19	3.766
376.39	3.717
376.60	3.664
376.81	3.659
377.02	3.611
377.22	3.539
377.43	3.545
377.64	3.508
377.84	3.444
378.05	3.416
378.26	3.347
378.47	3.358
378.67	3.355
378.88	3.384
379.09	3.391
379.30	3.340
379.50	3.370
379.71	3.355
379.92	3.389
380.12	3.398
380.33	3.355
380.54	3.384
380.75	3.415
380.95	3.403
381.16	3.384
381.37	3.407
381.57	3.485
381.78	3.463
381.99	3.455
382.20	3.414
382.40	3.429
382.61	3.480
382.82	3.486
383.02	3.526
383.23	3.557
383.44	3.525
383.64	3.578
383.85	3.494
384.06	3.461
384.27	3.460
384.47	3.440
384.68	3.411
384.89	3.417
385.09	3.436
385.30	3.390
385.51	3.415
385.71	3.423
385.92	3.369
386.13	3.378
386.33	3.350
386.54	3.368
386.75	3.412
386.95	3.424
387.16	3.467
387.37	3.431
387.58	3.439
387.78	3.353
387.99	3.396
388.20	3.423
388.40	3.399
388.61	3.410
388.82	3.402
389.02	3.393
389.23	3.361
389.44	3.257
389.64	3.283
389.85	3.290
390.06	3.384
390.26	3.379
390.47	3.385
390.68	3.386
390.88	3.381
391.09	3.387
391.30	3.399
391.50	3.409
391.71	3.499
391.92	3.569
392.12	3.538
392.33	3.490
392.53	3.442
392.74	3.415
392.95	3.441
393.15	3.459
393.36	3.456
393.57	3.426
393.77	3.468
393.98	3.502
394.19	3.419
394.39	3.392
394.60	3.392
394.81	3.410
395.01	3.412
395.22	3.529
395.43	3.557
395.63	3.557
395.84	3.664
396.04	3.582
396.25	3.597
396.46	3.613
396.66	3.726
396.87	3.821
397.08	3.806
397.28	3.673
397.49	3.536
397.69	3.595
397.90	3.601
398.11	3.482
398.31	3.534
398.52	3.463
398.73	3.419
398.93	3.400
399.14	3.372
399.34	3.378
399.55	3.395
399.76	3.399
399.96	3.381
400.17	3.330
400.37	3.366
400.58	3.382
400.79	3.420
400.99	3.472
401.20	3.477
401.41	3.449
401.61	3.423
401.82	3.470
402.02	3.421
402.23	3.402
402.44	3.425
402.64	3.435
402.85	3.383
403.05	3.394
403.26	3.449
403.47	3.480
403.67	3.489
403.88	3.517
404.08	3.582
404.29	3.610
404.50	3.602
404.70	3.638
404.91	3.615
405.11	3.602
405.32	3.670
405.52	3.557
405.73	3.531
405.94	3.525
406.14	3.455
406.35	3.369
406.55	3.372
406.76	3.322
406.97	3.330
407.17	3.390
407.38	3.406
407.58	3.347
407.79	3.386
407.99	3.352
408.20	3.404
408.41	3.419
408.61	3.451
408.82	3.462
409.02	3.559
409.23	3.556
409.43	3.429
409.64	3.469
409.84	3.467
410.05	3.443
410.26	3.467
410.46	3.399
410.67	3.388
410.87	3.360
411.08	3.345
411.28	3.348
411.49	3.321
411.69	3.348
411.90	3.359
412.11	3.360
412.31	3.360
412.52	3.372
412.72	3.408
412.93	3.461
413.13	3.465
413.34	3.495
413.54	3.431
413.75	3.447
413.95	3.438
414.16	3.473
414.37	3.438
414.57	3.425
414.78	3.398
414.98	3.324
415.19	3.276
415.39	3.310
415.60	3.328
415.80	3.370
416.01	3.386
416.21	3.387
416.42	3.361
416.62	3.421
416.83	3.452
417.03	3.455
417.24	3.540
417.44	3.746
417.65	3.663
417.86	3.617
418.06	3.626
418.27	3.667
418.47	3.586
418.68	3.592
418.88	3.566
419.09	3.527
419.29	3.567
419.50	3.497
419.70	3.422
419.91	3.484
420.11	3.477
420.32	3.390
420.52	3.372
420.73	3.429
420.93	3.345
421.14	3.373
421.34	3.397
421.55	3.415
421.75	3.418
421.96	3.455
422.16	3.405
422.37	3.396
422.57	3.457
422.78	3.443
422.98	3.421
423.19	3.433
423.39	3.379
423.60	3.369
423.80	3.343
424.01	3.341
424.21	3.327
424.42	3.352
424.62	3.389
424.83	3.342
425.03	3.366
425.23	3.403
425.44	3.417
425.64	3.460
425.85	3.429
426.05	3.374
426.26	3.416
426.46	3.421
426.67	3.415
426.87	3.345
427.08	3.333
427.28	3.274
427.49	3.247
427.69	3.287
427.90	3.262
428.10	3.291
428.31	3.319
428.51	3.328
428.71	3.287
428.92	3.316
429.12	3.351
429.33	3.382
429.53	3.493
429.74	3.472
429.94	3.447
430.15	3.450
430.35	3.401
430.56	3.361
430.76	3.386
430.96	3.434
431.17	3.411
431.37	3.409
431.58	3.438
431.78	3.403
431.99	3.504
432.19	3.472
432.40	3.479
432.60	3.502
432.80	3.591
433.01	3.455
433.21	3.429
433.42	3.395
433.62	3.405
433.83	3.393
434.03	3.383
434.23	3.301
434.44	3.316
434.64	3.280
434.85	3.260
435.05	3.255
435.26	3.284
435.46	3.276
435.66	3.298
435.87	3.315
436.07	3.326
436.28	3.324
436.48	3.324
436.69	3.302
436.89	3.337
437.09	3.398
437.30	3.389
437.50	3.377
437.71	3.395
437.91	3.395
438.11	3.337
438.32	3.358
438.52	3.394
438.73	3.404
438.93	3.464
439.13	3.541
439.34	3.548
439.54	3.634
439.75	3.651
439.95	3.658
440.15	3.587
440.36	3.687
440.56	3.647
440.77	3.623
440.97	3.700
441.17	3.645
441.38	3.633
441.58	3.633
441.79	3.528
441.99	3.556
442.19	3.554
442.40	3.541
442.60	3.511
442.81	3.551
443.01	3.505
443.21	3.488
443.42	3.461
443.62	3.397
443.82	3.335
444.03	3.354
444.23	3.388
444.44	3.388
444.64	3.409
444.84	3.419
445.05	3.384
445.25	3.409
445.45	3.433
445.66	3.475
445.86	3.452
446.06	3.492
446.27	3.497
446.47	3.397
446.68	3.406
446.88	3.414
447.08	3.354
447.29	3.349
447.49	3.327
447.69	3.295
447.90	3.273
448.10	3.271
448.30	3.250
448.51	3.212
448.71	3.239
448.91	3.260
449.12	3.250
449.32	3.297
449.52	3.354
449.73	3.318
449.93	3.320
450.14	3.307
450.34	3.321
450.54	3.316
450.75	3.372
450.95	3.373
451.15	3.370
451.36	3.394
451.56	3.418
451.76	3.338
451.97	3.415
452.17	3.475
452.37	3.475
452.58	3.492
452.78	3.480
452.98	3.438
453.19	3.450
453.39	3.392
453.59	3.397
453.79	3.368
454.00	3.408
454.20	3.379
454.40	3.308
454.61	3.319
454.81	3.310
455.01	3.320
455.22	3.337
455.42	3.353
455.62	3.396
455.83	3.390
456.03	3.374
456.23	3.311
456.44	3.297
456.64	3.326
456.84	3.335
457.04	3.348
457.25	3.398
457.45	3.448
457.65	3.432
457.86	3.410
458.06	3.393
458.26	3.448
458.47	3.486
458.67	3.513
458.87	3.476
459.07	3.558
459.28	3.570
459.48	3.516
459.68	3.427
459.89	3.409
460.09	3.380
460.29	3.367
460.49	3.304
460.70	3.276
460.90	3.295
461.10	3.294
461.31	3.283
461.51	3.251
461.71	3.208
461.91	3.176
462.12	3.192
462.32	3.190
462.52	3.197
462.72	3.242
462.93	3.305
463.13	3.269
463.33	3.296
463.53	3.234
463.74	3.251
463.94	3.318
464.14	3.409
464.35	3.375
464.55	3.371
464.75	3.360
464.95	3.310
465.16	3.285
465.36	3.312
465.56	3.310
465.76	3.290
465.97	3.323
466.17	3.264
466.37	3.221
466.57	3.243
466.78	3.227
466.98	3.251
467.18	3.221
467.38	3.168
467.59	3.116
467.79	3.114
467.99	3.147
468.19	3.131
468.39	3.169
468.60	3.168
468.80	3.146
469.00	3.175
469.20	3.161
469.41	3.195
469.61	3.222
469.81	3.239
470.01	3.202
470.22	3.199
470.42	3.212
470.62	3.213
470.82	3.233
471.02	3.232
471.23	3.236
471.43	3.216
471.63	3.243
471.83	3.256
472.04	3.295
472.24	3.311
472.44	3.327
472.64	3.312
472.84	3.318
473.05	3.309
473.25	3.285
473.45	3.252
473.65	3.293
473.85	3.274
474.06	3.315
474.26	3.301
474.46	3.266
474.66	3.242
474.86	3.247
475.07	3.239
475.27	3.259
475.47	3.308
475.67	3.359
475.87	3.308
476.08	3.261
476.28	3.220
476.48	3.202
476.68	3.253
476.88	3.305
477.09	3.282
477.29	3.241
477.49	3.215
477.69	3.209
477.89	3.204
478.09	3.250
478.30	3.318
478.50	3.328
478.70	3.336
478.90	3.249
479.10	3.229
479.31	3.225
479.51	3.251
479.71	3.235
479.91	3.223
480.11	3.193
480.31	3.186
480.52	3.164
480.72	3.162
480.92	3.164
481.12	3.213
481.32	3.203
481.52	3.207
481.72	3.212
481.93	3.248
482.13	3.248
482.33	3.255
482.53	3.251
482.73	3.216
482.93	3.249
483.14	3.280
483.34	3.284
483.54	3.293
483.74	3.273
483.94	3.278
484.14	3.295
484.34	3.287
484.55	3.282
484.75	3.295
484.95	3.331
485.15	3.329
485.35	3.318
485.55	3.328
485.75	3.304
485.96	3.311
486.16	3.311
486.36	3.317
486.56	3.375
486.76	3.394
486.96	3.369
487.16	3.333
487.36	3.299
487.57	3.301
487.77	3.305
487.97	3.301
488.17	3.348
488.37	3.314
488.57	3.289
488.77	3.267
488.97	3.245
489.18	3.227
489.38	3.246
489.58	3.247
489.78	3.223
489.98	3.227
490.18	3.228
490.38	3.236
490.58	3.275
490.78	3.241
490.98	3.230
491.19	3.250
491.39	3.275
491.59	3.264
491.79	3.305
491.99	3.350
492.19	3.350
492.39	3.367
492.59	3.324
492.79	3.310
492.99	3.363
493.20	3.383
493.40	3.343
493.60	3.300
493.80	3.312
494.00	3.255
494.20	3.242
494.40	3.225
494.60	3.226
494.80	3.218
495.00	3.204
495.20	3.181
495.40	3.159
495.61	3.162
495.81	3.163
496.01	3.171
496.21	3.203
496.41	3.178
496.61	3.192
496.81	3.198
497.01	3.219
497.21	3.237
497.41	3.261
497.61	3.288
497.81	3.317
498.01	3.337
498.21	3.324
498.41	3.316
498.61	3.348
498.82	3.357
499.02	3.315
499.22	3.281
499.42	3.281
499.62	3.257
499.82	3.217
500.02	3.213
500.22	3.256
500.42	3.284
500.62	3.255
500.82	3.247
501.02	3.205
501.22	3.212
501.42	3.241
501.62	3.241
501.82	3.254
502.02	3.278
502.22	3.306
502.42	3.273
502.62	3.274
502.82	3.293
503.02	3.251
503.22	3.260
503.42	3.275
503.63	3.240
503.83	3.232
504.03	3.237
504.23	3.230
504.43	3.216
504.63	3.212
504.83	3.208
505.03	3.206
505.23	3.269
505.43	3.286
505.63	3.272
505.83	3.321
506.03	3.307
506.23	3.257
506.43	3.260
506.63	3.237
506.83	3.260
507.03	3.260
507.23	3.279
507.43	3.243
507.63	3.217
507.83	3.265
508.03	3.214
508.23	3.216
508.43	3.262
508.63	3.267
508.83	3.298
509.03	3.240
509.23	3.227
509.43	3.208
509.63	3.223
509.83	3.245
510.03	3.204
510.23	3.235
510.43	3.247
510.63	3.244
510.83	3.233
511.03	3.223
511.23	3.254
511.43	3.258
511.63	3.266
511.83	3.235
512.03	3.246
512.22	3.256
512.42	3.246
512.62	3.279
512.82	3.273
513.02	3.294
513.22	3.300
513.42	3.319
513.62	3.347
513.82	3.301
514.02	3.372
514.22	3.336
514.42	3.365
514.62	3.339
514.82	3.371
515.02	3.386
515.22	3.365
515.42	3.376
515.62	3.334
515.82	3.290
516.02	3.355
516.22	3.300
516.42	3.306
516.62	3.253
516.82	3.268
517.01	3.188
517.21	3.163
517.41	3.158
517.61	3.156
517.81	3.198
518.01	3.216
518.21	3.155
518.41	3.183
518.61	3.164
518.81	3.174
519.01	3.155
519.21	3.191
519.41	3.224
519.61	3.256
519.81	3.237
520.00	3.206
520.20	3.231
520.40	3.249
520.60	3.233
520.80	3.256
521.00	3.274
521.20	3.310
521.40	3.308
521.60	3.268
521.80	3.260
522.00	3.289
522.20	3.253
522.39	3.214
522.59	3.267
522.79	3.261
522.99	3.272
523.19	3.263
523.39	3.237
523.59	3.210
523.79	3.216
523.99	3.208
524.19	3.169
524.38	3.207
524.58	3.217
524.78	3.180
524.98	3.178
525.18	3.172
525.38	3.205
525.58	3.206
525.78	3.223
525.98	3.223
526.18	3.215
526.37	3.249
526.57	3.240
526.77	3.219
526.97	3.245
527.17	3.250
527.37	3.219
527.57	3.186
527.77	3.174
527.96	3.175
528.16	3.221
528.36	3.225
528.56	3.218
528.76	3.212
528.96	3.226
529.16	3.203
529.36	3.210
529.55	3.232
529.75	3.239
529.95	3.258
530.15	3.252
530.35	3.241
530.55	3.238
530.75	3.223
530.94	3.191
531.14	3.197
531.34	3.224
531.54	3.202
531.74	3.233
531.94	3.210
532.13	3.230
532.33	3.251
532.53	3.195
532.73	3.179
532.93	3.182
533.13	3.160
533.33	3.156
533.52	3.159
533.72	3.138
533.92	3.157
534.12	3.143
534.32	3.126
534.52	3.136
534.71	3.119
534.91	3.133
535.11	3.096
535.31	3.120
535.51	3.097
535.71	3.065
535.90	3.064
536.10	3.009
536.30	3.006
536.50	3.028
536.70	3.007
536.89	3.056
537.09	3.049
537.29	3.087
537.49	3.116
537.69	3.127
537.89	3.161
538.08	3.194
538.28	3.223
538.48	3.258
538.68	3.233
538.88	3.219
539.07	3.196
539.27	3.207
539.47	3.207
539.67	3.207
539.87	3.222
540.06	3.205
540.26	3.224
540.46	3.232
540.66	3.215
540.86	3.226
541.05	3.221
541.25	3.221
541.45	3.189
541.65	3.174
541.84	3.195
542.04	3.206
542.24	3.212
542.44	3.212
542.64	3.184
542.83	3.195
543.03	3.183
543.23	3.195
543.43	3.183
543.62	3.210
543.82	3.207
544.02	3.176
544.22	3.159
544.42	3.136
544.61	3.105
544.81	3.127
545.01	3.161
545.21	3.160
545.40	3.140
545.60	3.149
545.80	3.146
546.00	3.188
546.19	3.180
546.39	3.187
546.59	3.168
546.79	3.159
546.98	3.156
547.18	3.153
547.38	3.191
547.58	3.231
547.77	3.238
547.97	3.274
548.17	3.217
548.37	3.249
548.56	3.210
548.76	3.226
548.96	3.277
549.16	3.287
549.35	3.261
549.55	3.262
549.75	3.259
549.95	3.210
550.14	3.190
550.34	3.193
550.54	3.186
550.73	3.230
550.93	3.263
551.13	3.256
551.33	3.270
551.52	3.270
551.72	3.257
551.92	3.228
552.12	3.243
552.31	3.245
552.51	3.279
552.71	3.287
552.90	3.285
553.10	3.262
553.30	3.292
553.50	3.262
553.69	3.285
553.89	3.256
554.09	3.269
554.28	3.297
554.48	3.324
554.68	3.321
554.87	3.279
555.07	3.283
555.27	3.320
555.47	3.251
555.66	3.244
555.86	3.233
556.06	3.216
556.25	3.196
556.45	3.202
556.65	3.176
556.84	3.179
557.04	3.220
557.24	3.197
557.43	3.204
557.63	3.235
557.83	3.297
558.02	3.267
558.22	3.249
558.42	3.286
558.61	3.251
558.81	3.239
559.01	3.184
559.21	3.178
559.40	3.160
559.60	3.151
559.80	3.145
559.99	3.116
560.19	3.136
560.39	3.185
560.58	3.191
560.78	3.200
560.97	3.206
561.17	3.268
561.37	3.273
561.56	3.307
561.76	3.280
561.96	3.258
562.15	3.258
562.35	3.258
562.55	3.220
562.74	3.226
562.94	3.254
563.14	3.266
563.33	3.218
563.53	3.202
563.73	3.213
563.92	3.245
564.12	3.245
564.31	3.229
564.51	3.236
564.71	3.247
564.90	3.235
565.10	3.201
565.30	3.167
565.49	3.194
565.69	3.170
565.89	3.151
566.08	3.158
566.28	3.181
566.47	3.183
566.67	3.176
566.87	3.199
567.06	3.204
567.26	3.225
567.46	3.272
567.65	3.254
567.85	3.264
568.04	3.273
568.24	3.255
568.44	3.256
568.63	3.263
568.83	3.236
569.02	3.238
569.22	3.238
569.42	3.269
569.61	3.243
569.81	3.238
570.00	3.235
570.20	3.252
570.40	3.258
570.59	3.285
570.79	3.281
570.98	3.289
571.18	3.257
571.38	3.281
571.57	3.257
571.77	3.259
571.96	3.277
572.16	3.312
572.35	3.300
572.55	3.286
572.75	3.259
572.94	3.292
573.14	3.304
573.33	3.304
573.53	3.273
573.73	3.249
573.92	3.251
574.12	3.262
574.31	3.234
574.51	3.232
574.70	3.233
574.90	3.230
575.09	3.213
575.29	3.197
575.49	3.215
575.68	3.213
575.88	3.235
576.07	3.252
576.27	3.244
576.46	3.254
576.66	3.249
576.86	3.265
577.05	3.279
577.25	3.301
577.44	3.326
577.64	3.277
577.83	3.290
578.03	3.276
578.22	3.230
578.42	3.214
578.61	3.208
578.81	3.209
579.00	3.227
579.20	3.206
579.40	3.190
579.59	3.176
579.79	3.201
579.98	3.199
580.18	3.182
580.37	3.213
580.57	3.196
580.76	3.214
580.96	3.217
581.15	3.197
581.35	3.233
581.54	3.229
581.74	3.202
581.93	3.232
582.13	3.209
582.32	3.234
582.52	3.234
582.71	3.246
582.91	3.229
583.10	3.207
583.30	3.195
583.49	3.140
583.69	3.153
583.88	3.164
584.08	3.144
584.27	3.171
584.47	3.163
584.66	3.157
584.86	3.153
585.05	3.163
585.25	3.171
585.44	3.171
585.64	3.210
585.83	3.206
586.03	3.226
586.22	3.233
586.42	3.229
586.61	3.234
586.81	3.217
587.00	3.255
587.20	3.257
587.39	3.243
587.59	3.257
587.78	3.250
587.98	3.226
588.17	3.199
588.37	3.192
588.56	3.177
588.76	3.158
588.95	3.162
589.15	3.139
589.34	3.090
589.54	3.096
589.73	3.094
589.92	3.073
590.12	3.083
590.31	3.098
590.51	3.093
590.70	3.082
590.90	3.089
591.09	3.097
591.29	3.097
591.48	3.160
591.68	3.185
591.87	3.174
592.06	3.219
592.26	3.245
592.45	3.262
592.65	3.245
592.84	3.247
593.04	3.276
593.23	3.279
593.43	3.277
593.62	3.262
593.81	3.233
594.01	3.239
594.20	3.226
594.40	3.183
594.59	3.192
594.79	3.237
594.98	3.292
595.17	3.261
595.37	3.276
595.56	3.266
595.76	3.271
595.95	3.279
596.14	3.291
596.34	3.277
596.53	3.308
596.73	3.241
596.92	3.206
597.12	3.173
597.31	3.185
597.50	3.175
597.70	3.192
597.89	3.171
598.09	3.201
598.28	3.206
598.47	3.222
598.67	3.215
598.86	3.249
599.06	3.271
599.25	3.268
599.44	3.282
599.64	3.285
599.83	3.277
600.03	3.295
600.22	3.252
600.41	3.250
600.61	3.242
600.80	3.286
601.00	3.273
601.19	3.251
601.38	3.259
601.58	3.237
601.77	3.232
601.96	3.251
602.16	3.241
602.35	3.279
602.55	3.278
602.74	3.285
602.93	3.228
603.13	3.218
603.32	3.228
603.51	3.191
603.71	3.183
603.90	3.208
604.09	3.174
604.29	3.161
604.48	3.156
604.68	3.154
604.87	3.158
605.06	3.149
605.26	3.175
605.45	3.152
605.64	3.180
605.84	3.169
606.03	3.185
606.22	3.212
606.42	3.240
606.61	3.233
606.80	3.231
607.00	3.226
607.19	3.252
607.38	3.243
607.58	3.256
607.77	3.270
607.96	3.283
608.16	3.260
608.35	3.252
608.54	3.228
608.74	3.221
608.93	3.208
609.12	3.181
609.32	3.168
609.51	3.153
609.70	3.170
609.90	3.129
610.09	3.142
610.28	3.122
610.48	3.107
610.67	3.091
610.86	3.087
611.06	3.103
611.25	3.121
611.44	3.128
611.64	3.132
611.83	3.123
612.02	3.163
612.21	3.172
612.41	3.195
612.60	3.186
612.79	3.217
612.99	3.220
613.18	3.195
613.37	3.176
613.57	3.155
613.76	3.166
613.95	3.163
614.14	3.181
614.34	3.146
614.53	3.150
614.72	3.157
614.92	3.151
615.11	3.143
615.30	3.118
615.49	3.133
615.69	3.197
615.88	3.181
616.07	3.159
616.26	3.128
616.46	3.147
616.65	3.091
616.84	3.103
617.04	3.096
617.23	3.080
617.42	3.131
617.61	3.134
617.81	3.098
618.00	3.141
618.19	3.163
618.38	3.161
618.58	3.193
618.77	3.261
618.96	3.325
619.15	3.331
619.35	3.380
619.54	3.356
619.73	3.311
619.92	3.305
620.12	3.264
620.31	3.238
620.50	3.235
620.69	3.193
620.89	3.146
621.08	3.112
621.27	3.108
621.46	3.106
621.66	3.082
621.85	3.130
622.04	3.165
622.23	3.158
622.43	3.198
622.62	3.200
622.81	3.210
623.00	3.251
623.19	3.255
623.39	3.249
623.58	3.242
623.77	3.266
623.96	3.220
624.16	3.164
624.35	3.134
624.54	3.125
624.73	3.131
624.92	3.142
625.12	3.157
625.31	3.143
625.50	3.140
625.69	3.156
625.88	3.161
626.08	3.154
626.27	3.177
626.46	3.232
626.65	3.203
626.84	3.197
627.04	3.192
627.23	3.158
627.42	3.138
627.61	3.138
627.80	3.152
628.00	3.169
628.19	3.187
628.38	3.209
628.57	3.203
628.76	3.241
628.96	3.265
629.15	3.264
629.34	3.313
629.53	3.267
629.72	3.276
629.91	3.254
630.11	3.195
630.30	3.167
630.49	3.123
630.68	3.089
630.87	3.087
631.06	3.050
631.26	3.035
631.45	3.036
631.64	3.082
631.83	3.095
632.02	3.113
632.21	3.143
632.41	3.164
632.60	3.134
632.79	3.212
632.98	3.213
633.17	3.277
633.36	3.317
633.55	3.258
633.75	3.269
633.94	3.270
634.13	3.230
634.32	3.235
634.51	3.239
634.70	3.291
634.89	3.216
635.09	3.230
635.28	3.205
635.47	3.189
635.66	3.199
635.85	3.235
636.04	3.249
636.23	3.265
636.43	3.249
636.62	3.266
636.81	3.330
637.00	3.308
637.19	3.300
637.38	3.289
637.57	3.278
637.76	3.291
637.95	3.228
638.15	3.215
638.34	3.229
638.53	3.256
638.72	3.189
638.91	3.146
639.10	3.203
639.29	3.185
639.48	3.239
639.67	3.279
639.87	3.274
640.06	3.260
640.25	3.281
640.44	3.270
640.63	3.221
640.82	3.294
641.01	3.286
641.20	3.244
641.39	3.276
641.58	3.242
641.78	3.306
641.97	3.315
642.16	3.383
642.35	3.427
642.54	3.392
642.73	3.495
642.92	3.526
643.11	3.546
643.30	3.557
643.49	3.532
643.68	3.522
643.87	3.411
644.06	3.390
644.25	3.343
644.45	3.296
644.64	3.330
644.83	3.319
645.02	3.261
645.21	3.246
645.40	3.258
645.59	3.245
645.78	3.224
645.97	3.226
646.16	3.265
646.35	3.232
646.54	3.189
646.73	3.174
646.92	3.172
647.11	3.133
647.30	3.161
647.49	3.190
647.68	3.195
647.88	3.212
648.07	3.265
648.26	3.245
648.45	3.281
648.64	3.290
648.83	3.347
649.02	3.407
649.21	3.590
649.40	3.546
649.59	3.500
649.78	3.491
649.97	3.538
650.16	3.400
650.35	3.368
650.54	3.384
650.73	3.388
650.92	3.313
651.11	3.268
651.30	3.242
651.49	3.233
651.68	3.246
651.87	3.251
652.06	3.241
652.25	3.267
652.44	3.320
652.63	3.337
652.82	3.316
653.01	3.311
653.20	3.278
653.39	3.228
653.58	3.217
653.77	3.205
653.96	3.177
654.15	3.143
654.34	3.131
654.53	3.119
654.72	3.100
654.91	3.125
655.10	3.131
655.29	3.135
655.48	3.146
655.67	3.134
655.86	3.123
656.05	3.138
656.24	3.152
656.43	3.153
656.62	3.145
656.81	3.151
657.00	3.127
657.19	3.105
657.38	3.079
657.57	3.076
657.76	3.067
657.95	3.083
658.14	3.075
658.33	3.085
658.51	3.098
658.70	3.095
658.89	3.075
659.08	3.094
659.27	3.113
659.46	3.141
659.65	3.146
659.84	3.215
660.03	3.182
660.22	3.164
660.41	3.142
660.60	3.109
660.79	3.117
660.98	3.252
661.17	3.260
661.36	3.358
661.55	3.347
661.74	3.354
661.92	3.310
662.11	3.322
662.30	3.313
662.49	3.326
662.68	3.412
662.87	3.397
663.06	3.290
663.25	3.302
663.44	3.252
663.63	3.273
663.82	3.335
664.01	3.310
664.20	3.308
664.38	3.377
664.57	3.387
664.76	3.399
664.95	3.446
665.14	3.390
665.33	3.377
665.52	3.417
665.71	3.405
665.90	3.378
666.09	3.415
666.28	3.462
666.46	3.434
666.65	3.448
666.84	3.324
667.03	3.372
667.22	3.351
667.41	3.329
667.60	3.269
667.79	3.265
667.98	3.206
668.16	3.226
668.35	3.213
668.54	3.201
668.73	3.195
668.92	3.245
669.11	3.200
669.30	3.230
669.49	3.215
669.67	3.157
669.86	3.161
670.05	3.257
670.24	3.230
670.43	3.209
670.62	3.146
670.81	3.134
671.00	3.131
671.18	3.145
671.37	3.128
671.56	3.166
671.75	3.193
671.94	3.231
672.13	3.135
672.32	3.147
672.50	3.142
672.69	3.205
672.88	3.251
673.07	3.237
673.26	3.192
673.45	3.182
673.63	3.191
673.82	3.214
674.01	3.185
674.20	3.229
674.39	3.266
674.58	3.278
674.76	3.271
674.95	3.209
675.14	3.258
675.33	3.224
675.52	3.273
675.71	3.241
675.89	3.301
676.08	3.332
676.27	3.307
676.46	3.289
676.65	3.282
676.84	3.359
677.02	3.453
677.21	3.331
677.40	3.400
677.59	3.439
677.78	3.520
677.96	3.489
678.15	3.417
678.34	3.359
678.53	3.358
678.72	3.343
678.90	3.300
679.09	3.242
679.28	3.294
679.47	3.258
679.66	3.226
679.84	3.189
680.03	3.177
680.22	3.195
680.41	3.270
680.60	3.237
680.78	3.283
680.97	3.307
681.16	3.345
681.35	3.320
681.53	3.371
681.72	3.329
681.91	3.349
682.10	3.345
682.29	3.274
682.47	3.258
682.66	3.308
682.85	3.308
683.04	3.316
683.22	3.293
683.41	3.325
683.60	3.376
683.79	3.422
683.97	3.373
684.16	3.395
684.35	3.503
684.54	3.427
684.72	3.372
684.91	3.377
685.10	3.335
685.29	3.376
685.47	3.354
685.66	3.314
685.85	3.284
686.04	3.288
686.22	3.316
686.41	3.354
686.60	3.389
686.79	3.295
686.97	3.301
687.16	3.292
687.35	3.287
687.54	3.251
687.72	3.263
687.91	3.280
688.10	3.321
688.29	3.249
688.47	3.223
688.66	3.217
688.85	3.290
689.03	3.250
689.22	3.286
689.41	3.298
689.60	3.346
689.78	3.343
689.97	3.264
690.16	3.205
690.34	3.240
690.53	3.190
690.72	3.216
690.91	3.171
691.09	3.196
691.28	3.172
691.47	3.129
691.65	3.145
691.84	3.120
692.03	3.156
692.21	3.152
692.40	3.115
692.59	3.150
692.77	3.114
692.96	3.131
693.15	3.102
693.34	3.098
693.52	3.111
693.71	3.092
693.90	3.121
694.08	3.153
694.27	3.159
694.46	3.181
694.64	3.152
694.83	3.246
695.02	3.253
695.20	3.263
695.39	3.297
695.58	3.347
695.76	3.361
695.95	3.373
696.14	3.287
696.32	3.348
696.51	3.353
696.70	3.410
696.88	3.396
697.07	3.441
697.26	3.501
697.44	3.514
697.63	3.441
697.81	3.455
698.00	3.351
698.19	3.409
698.37	3.410
698.56	3.514
698.75	3.458
698.93	3.402
699.12	3.407
699.31	3.438
699.49	3.434
699.68	3.442
699.87	3.405
700.05	3.383
700.24	3.352
700.42	3.316
700.61	3.248
700.80	3.239
700.98	3.245
701.17	3.262
701.36	3.222
701.54	3.220
701.73	3.207
701.91	3.194
702.10	3.199
702.29	3.224
702.47	3.290
702.66	3.247
702.84	3.253
703.03	3.171
703.22	3.121
703.40	3.135
703.59	3.139
703.77	3.127
703.96	3.116
704.15	3.161
704.33	3.154
704.52	3.106
704.70	3.161
704.89	3.145
705.08	3.230
705.26	3.261
705.45	3.204
705.63	3.178
705.82	3.163
706.00	3.144
706.19	3.077
706.38	3.084
706.56	3.111
706.75	3.097
706.93	3.153
707.12	3.089
707.30	3.108
707.49	3.164
707.68	3.145
707.86	3.180
708.05	3.262
708.23	3.373
708.42	3.334
708.60	3.267
708.79	3.234
708.98	3.149
709.16	3.163
709.35	3.103
709.53	3.069
709.72	3.059
709.90	3.061
710.09	3.043
710.27	3.035
710.46	3.048
710.64	3.056
710.83	3.073
711.02	3.102
711.20	3.110
711.39	3.163
711.57	3.096
711.76	3.107
711.94	3.108
712.13	3.093
712.31	3.108
712.50	3.102
712.68	3.101
712.87	3.097
713.05	3.104
713.24	3.112
713.42	3.080
713.61	3.187
713.79	3.121
713.98	3.130
714.16	3.153
714.35	3.178
714.54	3.242
714.72	3.156
714.91	3.163
715.09	3.123
715.28	3.117
715.46	3.165
715.65	3.070
715.83	3.108
716.02	3.096
716.20	3.039
716.39	3.010
716.57	2.936
716.76	2.982
716.94	2.949
717.12	2.948
717.31	2.965
717.49	2.917
717.68	2.938
717.86	2.972
718.05	2.907
718.23	2.896
718.42	2.911
718.60	2.931
718.79	2.905
718.97	2.946
719.16	2.962
719.34	2.949
719.53	2.959
719.71	2.968
719.90	2.887
720.08	2.966
720.27	3.034
720.45	2.944
720.63	2.970
720.82	3.011
721.00	2.918
721.19	2.911
721.37	2.860
721.56	2.864
721.74	2.829
721.93	2.853
722.11	2.832
722.30	2.865
722.48	2.914
722.66	2.887
722.85	2.850
723.03	2.870
723.22	2.875
723.40	2.958
723.59	2.942
723.77	3.009
723.95	3.001
724.14	3.014
724.32	2.953
724.51	2.972
724.69	3.032
724.88	3.008
725.06	3.094
725.24	3.171
725.43	3.087
725.61	3.067
725.80	3.058
725.98	3.119
726.16	3.127
726.35	3.015
726.53	2.944
726.72	2.928
726.90	2.981
727.09	2.965
727.27	2.859
727.45	2.828
727.64	2.767
727.82	2.727
728.01	2.714
728.19	2.630
728.37	2.624
728.56	2.623
728.74	2.540
728.92	2.521
729.11	2.535
729.29	2.530
729.48	2.526
729.66	2.591
729.84	2.586
730.03	2.558
730.21	2.553
730.40	2.571
730.58	2.525
730.76	2.583
730.95	2.593
731.13	2.535
731.31	2.538
731.50	2.511
731.68	2.462
731.86	2.473
732.05	2.501
732.23	2.525
732.42	2.515
732.60	2.585
732.78	2.554
732.97	2.526
733.15	2.538
733.33	2.549
733.52	2.545
733.70	2.535
733.88	2.436
734.07	2.416
734.25	2.425
734.43	2.390
734.62	2.360
734.80	2.378
734.98	2.368
735.17	2.324
735.35	2.313
735.53	2.289
735.72	2.307
735.90	2.386
736.08	2.362
736.27	2.363
736.45	2.441
736.63	2.444
736.82	2.410
737.00	2.433
737.18	2.444
737.37	2.413
737.55	2.396
737.73	2.386
737.92	2.359
738.10	2.381
738.28	2.382
738.46	2.340
738.65	2.306
738.83	2.336
739.01	2.285
739.20	2.250
739.38	2.291
739.56	2.340
739.75	2.336
739.93	2.294
740.11	2.262
740.29	2.227
740.48	2.186
740.66	2.200
740.84	2.158
741.03	2.205
741.21	2.250
741.39	2.196
741.57	2.210
741.76	2.240
741.94	2.241
742.12	2.286
742.31	2.302
742.49	2.359
742.67	2.323
742.85	2.301
743.04	2.311
743.22	2.311
743.40	2.349
743.58	2.338
743.77	2.315
743.95	2.363
744.13	2.305
744.31	2.255
744.50	2.186
744.68	2.177
744.86	2.237
745.04	2.214
745.23	2.237
745.41	2.232
745.59	2.231
745.77	2.187
745.96	2.179
746.14	2.212
746.32	2.240
746.50	2.354
746.69	2.424
746.87	2.369
747.05	2.369
747.23	2.300
747.42	2.328
747.60	2.242
747.78	2.299
747.96	2.318
748.14	2.347
748.33	2.360
748.51	2.319
748.69	2.297
748.87	2.306
749.06	2.313
749.24	2.350
749.42	2.359
749.60	2.387
749.78	2.386
749.97	2.366
750.15	2.297
750.33	2.266
750.51	2.281
750.69	2.305
750.88	2.247
751.06	2.265
751.24	2.210
751.42	2.184
751.60	2.220
751.79	2.230
751.97	2.249
752.15	2.237
752.33	2.220
752.51	2.195
752.69	2.222
752.88	2.274
753.06	2.232
753.24	2.283
753.42	2.275
753.60	2.292
753.78	2.206
753.97	2.157
754.15	2.164
754.33	2.151
754.51	2.137
754.69	2.125
754.87	2.133
755.06	2.110
755.24	2.068
755.42	2.055
755.60	2.045
755.78	2.074
755.96	2.163
756.15	2.165
756.33	2.180
756.51	2.202
756.69	2.171
756.87	2.167
757.05	2.212
757.23	2.237
757.42	2.287
757.60	2.237
757.78	2.212
757.96	2.162
758.14	2.195
758.32	2.224
758.50	2.211
758.69	2.231
758.87	2.244
759.05	2.268
759.23	2.336
759.41	2.322
759.59	2.425
759.77	2.457
759.95	2.376
760.13	2.378
760.32	2.385
760.50	2.335
760.68	2.306
760.86	2.336
761.04	2.312
761.22	2.265
761.40	2.252
761.58	2.230
761.76	2.249
761.95	2.298
762.13	2.278
762.31	2.252
762.49	2.348
762.67	2.348
762.85	2.331
763.03	2.286
763.21	2.276
763.39	2.260
763.57	2.262
763.75	2.291
763.94	2.323
764.12	2.394
764.30	2.371
764.48	2.309
764.66	2.334
764.84	2.284
765.02	2.366
765.20	2.369
765.38	2.382
765.56	2.347
765.74	2.309
765.92	2.298
766.10	2.245
766.28	2.310
766.46	2.324
766.65	2.310
766.83	2.297
767.01	2.217
767.19	2.223
767.37	2.250
767.55	2.210
767.73	2.235
767.91	2.195
768.09	2.143
768.27	2.106
768.45	2.115
768.63	2.122
768.81	2.182
768.99	2.235
769.17	2.236
769.35	2.222
769.53	2.313
769.71	2.318
769.89	2.341
770.07	2.390
770.25	2.502
770.43	2.513
770.61	2.485
770.79	2.465
770.97	2.415
771.15	2.396
771.33	2.423
771.51	2.411
771.69	2.394
771.87	2.444
772.05	2.439
772.24	2.399
772.42	2.404
772.60	2.410
772.78	2.344
772.96	2.419
773.14	2.542
773.32	2.558
773.49	2.574
773.67	2.583
773.85	2.445
774.03	2.451
774.21	2.430
774.39	2.400
774.57	2.427
774.75	2.447
774.93	2.414
775.11	2.337
775.29	2.265
775.47	2.327
775.65	2.327
775.83	2.341
776.01	2.359
776.19	2.338
776.37	2.387
776.55	2.387
776.73	2.350
776.91	2.343
777.09	2.363
777.27	2.428
777.45	2.406
777.63	2.432
777.81	2.479
777.99	2.502
778.17	2.608
778.35	2.643
778.53	2.656
778.71	2.974
778.89	3.108
779.07	2.940
779.24	3.105
779.42	2.746
779.60	2.667
779.78	2.590
779.96	2.572
780.14	2.532
780.32	2.414
780.50	2.428
780.68	2.334
780.86	2.291
781.04	2.333
781.22	2.333
781.40	2.386
781.58	2.371
781.75	2.420
781.93	2.517
782.11	2.469
782.29	2.490
782.47	2.488
782.65	2.575
782.83	2.597
783.01	2.557
783.19	2.533
783.37	2.482
783.55	2.503
783.72	2.457
783.90	2.402
784.08	2.369
784.26	2.462
784.44	2.397
784.62	2.381
784.80	2.455
784.98	2.515
785.16	2.465
785.33	2.538
785.51	2.484
785.69	2.498
785.87	2.501
786.05	2.518
786.23	2.531
786.41	2.593
786.59	2.583
786.77	2.521
786.94	2.535
787.12	2.560
787.30	2.443
787.48	2.492
787.66	2.494
787.84	2.436
788.02	2.529
788.19	2.463
788.37	2.465
788.55	2.499
788.73	2.476
788.91	2.417
789.09	2.398
789.27	2.541
789.44	2.545
789.62	2.623
789.80	2.723
789.98	2.740
790.16	2.668
790.34	2.737
790.51	2.669
790.69	2.613
790.87	2.625
791.05	2.646
791.23	2.583
791.41	2.621
791.58	2.610
791.76	2.601
791.94	2.504
792.12	2.518
792.30	2.453
792.48	2.438
792.65	2.478
792.83	2.434
793.01	2.463
793.19	2.459
793.37	2.425
793.54	2.405
793.72	2.421
793.90	2.473
794.08	2.515
794.26	2.555
794.43	2.575
794.61	2.584
794.79	2.648
794.97	2.663
795.15	2.698
795.32	2.788
795.50	2.824
795.68	2.703
795.86	2.620
796.04	2.606
796.21	2.587
796.39	2.565
796.57	2.580
796.75	2.618
796.92	2.683
797.10	2.610
797.28	2.532
797.46	2.525
797.64	2.633
797.81	2.686
797.99	2.715
798.17	2.670
798.35	2.712
798.52	2.646
798.70	2.700
798.88	2.590
799.06	2.628
799.23	2.790
799.41	2.804
799.59	2.809
799.77	2.793
799.94	2.749
800.12	2.728
800.30	2.697
800.48	2.730
800.65	2.571
800.83	2.616
801.01	2.670
801.19	2.588
801.36	2.581
801.54	2.508
801.72	2.640
801.90	2.555
802.07	2.719
802.25	2.750
802.43	2.704
802.60	2.828
802.78	2.757
802.96	2.751
803.14	2.892
803.31	3.044
803.49	3.349
803.67	2.997
803.84	3.085
804.02	2.829
804.20	2.886
804.38	2.988
804.55	2.954
804.73	3.050
804.91	2.976
805.08	2.850
805.26	2.706
805.44	2.678
805.61	2.746
805.79	2.743
805.97	2.897
806.15	2.955
806.32	3.027
806.50	2.942
806.68	2.940
806.85	2.971
807.03	2.863
807.21	3.045
807.38	2.855
807.56	2.753
807.74	2.775
807.91	2.779
808.09	2.763
808.27	2.710
808.44	2.788
808.62	2.745
808.80	2.767
808.97	2.776
809.15	2.723
809.33	2.881
809.50	2.896
809.68	3.145
809.86	2.932
810.03	2.950
810.21	2.887
810.39	2.855
810.56	2.937
810.74	2.829
810.91	2.900
811.09	2.960
811.27	2.882
811.44	2.824
811.62	2.782
811.80	2.762
811.97	2.668
812.15	2.681
812.33	2.765
812.50	2.691
812.68	2.639
812.85	2.687
813.03	2.644
813.21	2.660
813.38	2.676
813.56	2.658
813.74	2.778
813.91	2.736
814.09	2.817
814.26	2.746
814.44	2.781
814.62	2.824
814.79	2.639
814.97	2.647
815.14	2.630
815.32	2.625
815.50	2.643
815.67	2.583
815.85	2.710
816.02	2.685
816.20	2.643
816.38	2.570
816.55	2.654
816.73	2.656
816.90	2.632
817.08	2.718
817.26	2.805
817.43	2.697
817.61	2.700
817.78	2.640
817.96	2.612
818.13	2.683
818.31	2.765
818.49	2.647
818.66	2.765
818.84	2.728
819.01	2.612
819.19	2.577
819.36	2.621
819.54	2.681
819.71	2.637
819.89	2.680
820.07	2.580
820.24	2.665
820.42	2.766
820.59	2.749
820.77	2.773
820.94	2.742
821.12	2.817
821.29	2.791
821.47	2.743
821.64	2.832
821.82	2.741
822.00	2.806
822.17	2.752
822.35	2.664
822.52	2.644
822.70	2.638
822.87	2.608
823.05	2.490
823.22	2.503
823.40	2.440
823.57	2.461
823.75	2.437
823.92	2.346
824.10	2.338
824.27	2.353
824.45	2.328
824.62	2.287
824.80	2.301
824.97	2.326
825.15	2.282
825.32	2.286
825.50	2.226
825.67	2.267
825.85	2.333
826.02	2.367
826.20	2.335
826.37	2.363
826.55	2.381
826.72	2.385
826.90	2.357
827.07	2.447
827.25	2.441
827.42	2.470
827.60	2.422
827.77	2.458
827.95	2.393
828.12	2.351
828.30	2.403
828.47	2.433
828.65	2.481
828.82	2.529
829.00	2.322
829.17	2.272
829.34	2.236
829.52	2.229
829.69	2.154
829.87	2.113
830.04	2.114
830.22	2.107
830.39	2.051
830.57	1.987
830.74	2.011
830.92	2.051
831.09	2.157
831.26	2.139
831.44	2.132
831.61	2.174
831.79	2.115
831.96	2.198
832.14	2.088
832.31	2.302
832.49	2.340
832.66	2.210
832.83	2.165
833.01	2.018
833.18	1.936
833.36	1.908
833.53	1.932
833.70	1.928
833.88	1.887
834.05	1.918
834.23	1.810
834.40	1.770
834.58	1.795
834.75	1.813
834.92	1.824
835.10	1.883
835.27	1.886
835.45	1.845
835.62	1.848
835.79	1.786
835.97	1.757
836.14	1.798
836.32	1.880
836.49	1.846
836.66	1.833
836.84	1.816
837.01	1.906
837.18	1.926
837.36	1.924
837.53	1.933
837.71	1.961
837.88	1.905
838.05	1.862
838.23	1.735
838.40	1.717
838.58	1.759
838.75	1.825
838.92	1.739
839.10	1.744
839.27	1.734
839.44	1.782
839.62	1.833
839.79	2.076
839.96	2.099
840.14	2.487
840.31	2.276
840.48	2.130
840.66	1.960
840.83	1.996
841.01	2.117
841.18	2.059
841.35	2.007
841.53	2.067
841.70	1.883
841.87	1.867
842.05	1.831
842.22	1.913
842.39	1.976
842.57	2.108
842.74	2.021
842.91	2.008
843.09	2.238
843.26	2.699
843.43	2.387
843.60	2.324
843.78	2.737
843.95	2.714
844.12	2.637
844.30	2.534
844.47	2.379
844.64	2.926
844.82	2.320
844.99	2.107
845.16	1.886
845.34	1.835
845.51	1.868
845.68	1.843
845.85	1.743
846.03	1.808
846.20	1.827
846.37	1.956
846.55	2.019
846.72	2.075
846.89	2.036
847.06	2.158
847.24	2.261
847.41	2.108
847.58	2.028
847.76	2.221
847.93	2.182
848.10	2.016
848.27	1.945
848.45	1.880
848.62	1.870
848.79	1.927
848.97	1.790
849.14	1.949
849.31	1.971
849.48	1.980
849.66	2.198
849.83	1.950
850.00	2.397
850.17	1.995
850.35	1.941
850.52	2.036
850.69	1.931
850.86	1.986
851.04	1.853
851.21	1.833
851.38	1.775
851.55	1.760
851.72	1.793
851.90	1.647
852.07	1.699
852.24	1.758
852.41	1.690
852.59	1.832
852.76	1.975
852.93	1.932
853.10	2.007
853.28	1.918
853.45	1.905
853.62	2.045
853.79	2.219
853.96	2.141
854.14	1.981
854.31	2.073
854.48	1.868
854.65	1.741
854.82	1.746
855.00	1.714
855.17	1.827
855.34	1.848
855.51	1.727
855.68	1.628
855.86	1.767
856.03	1.842
856.20	1.750
856.37	1.771
856.54	1.738
856.72	1.658
856.89	1.616
857.06	1.644
857.23	1.492
857.40	1.478
857.57	1.474
857.75	1.401
857.92	1.375
858.09	1.396
858.26	1.343
858.43	1.423
858.60	1.511
858.78	1.468
858.95	1.423
859.12	1.456
859.29	1.531
859.46	1.498
859.63	1.616
859.81	1.564
859.98	1.623
860.15	1.795
860.32	1.639
860.49	1.632
860.66	1.771
860.83	1.784
861.01	2.092
861.18	2.006
861.35	2.215
861.52	1.838
861.69	1.932
861.86	1.705
862.03	1.717
862.21	1.633
862.38	1.562
862.55	1.553
862.72	1.519
862.89	1.453
863.06	1.442
863.23	1.505
863.40	1.535
863.58	1.567
863.75	1.582
863.92	1.526
864.09	1.653
864.26	1.728
864.43	1.733
864.60	1.852
864.77	1.926
864.94	2.062
865.11	2.053
865.29	2.132
865.46	1.945
865.63	1.989
865.80	2.417
865.97	2.177
866.14	1.920
866.31	2.009
866.48	2.043
866.65	1.928
866.82	1.740
866.99	1.689
867.16	1.598
867.34	1.637
867.51	1.570
867.68	1.455
867.85	1.479
868.02	1.480
868.19	1.522
868.36	1.562
868.53	1.589
868.70	1.909
868.87	1.765
869.04	1.923
869.21	2.683
869.38	-0.000
869.55	-0.000
869.72	-0.000
869.89	-0.000
870.06	2.657
870.24	1.765
870.41	1.696
870.58	1.720
870.75	1.809
870.92	1.708
871.09	1.612
871.26	1.533
871.43	1.494
871.60	1.576
871.77	1.564
871.94	1.501
872.11	1.539
872.28	1.538
872.45	1.384
872.62	1.437
872.79	1.509
872.96	1.472
873.13	1.695
873.30	1.580
873.47	1.508
873.64	1.568
873.81	1.744
873.98	2.033
874.15	2.292
874.32	2.930
874.49	2.244
874.66	1.832
874.83	1.669
875.00	1.402
875.17	1.528
875.34	1.586
875.51	1.616
875.68	1.559
875.85	1.621
876.02	1.794
876.19	1.598
876.36	1.725
876.53	2.179
876.70	2.228
876.87	-0.000
877.04	3.985
877.21	2.855
877.38	2.662
877.55	1.841
877.72	1.783
877.89	1.470
878.06	1.512
878.23	1.435
878.39	1.420
878.56	1.420
878.73	1.363
878.90	1.387
879.07	1.411
879.24	1.330
879.41	1.371
879.58	1.273
879.75	1.411
879.92	1.493
880.09	1.553
880.26	1.387
880.43	1.305
880.60	1.408
880.77	1.275
880.94	1.230
881.11	1.279
881.27	1.387
881.44	1.493
881.61	1.390
881.78	1.449
881.95	1.396
882.12	1.457
882.29	1.700
882.46	1.525
882.63	1.688
882.80	1.604
882.97	1.509
883.14	1.604
883.30	1.523
883.47	1.507
883.64	1.477
883.81	1.466
883.98	1.594
884.15	1.356
884.32	1.528
884.49	1.721
884.66	2.225
884.82	1.791
884.99	1.479
885.16	1.358
885.33	1.494
885.50	1.581
885.67	1.686
885.84	1.425
886.01	1.531
886.17	1.314
886.34	1.346
886.51	1.350
886.68	1.522
886.85	1.573
887.02	1.787
887.19	1.511
887.36	1.257
887.52	1.142
887.69	1.153
887.86	1.170
888.03	1.359
888.20	1.207
888.37	1.181
888.54	1.208
888.70	1.170
888.87	1.169
889.04	1.299
889.21	1.230
889.38	1.257
889.55	1.178
889.71	1.093
889.88	-0.000
890.05	0.563
890.22	0.934
890.39	0.583
>>>>>End Processed Spectral Data<<<<<
