SpectraSuite Data File
++++++++++++++++++++++++++++++++++++
Date: Mon Jun 15 09:43:01 PDT 2015
User: introlabs
Dark Spectrum Present: Yes
Reference Spectrum Present: Yes
Number of Sampled Component Spectra: 1
Spectrometers: USB4H08886
Integration Time (usec): 44366 (USB4H08886)
Spectra Averaged: 20 (USB4H08886)
Boxcar Smoothing: 5 (USB4H08886)
Correct for Electrical Dark: Yes (USB4H08886)
Strobe/Lamp Enabled: No (USB4H08886)
Correct for Detector Non-linearity: Yes (USB4H08886)
Correct for Stray Light: Yes (USB4H08886)
Number of Pixels in Processed Spectrum: 3648
>>>>>Begin Processed Spectral Data<<<<<
178.14	0.658
178.36	0.658
178.57	0.658
178.79	1.589
179.01	-1.204
179.22	0.056
179.44	-0.444
179.65	-0.000
179.87	-0.000
180.08	1.187
180.30	0.523
180.52	0.116
180.73	0.056
180.95	0.023
181.16	0.010
181.38	-0.022
181.59	0.010
181.81	-0.009
182.03	0.008
182.24	0.012
182.46	0.007
182.67	0.005
182.89	0.009
183.10	0.016
183.32	0.012
183.54	0.005
183.75	0.013
183.97	0.017
184.18	0.015
184.40	0.007
184.61	0.011
184.83	0.009
185.04	0.011
185.26	0.010
185.48	-0.002
185.69	-0.008
185.91	-0.005
186.12	-0.014
186.34	-0.008
186.55	-0.013
186.77	0.002
186.98	-0.002
187.20	-0.012
187.42	-0.005
187.63	-0.001
187.85	0.001
188.06	0.015
188.28	0.018
188.49	0.025
188.71	0.015
188.92	0.027
189.14	0.012
189.36	0.019
189.57	0.032
189.79	0.016
190.00	0.006
190.22	0.012
190.43	0.009
190.65	0.003
190.86	0.011
191.08	0.011
191.29	0.000
191.51	0.006
191.72	-0.004
191.94	-0.006
192.16	0.002
192.37	0.004
192.59	0.003
192.80	0.002
193.02	0.012
193.23	0.007
193.45	0.004
193.66	0.011
193.88	0.008
194.09	0.012
194.31	0.005
194.52	-0.003
194.74	-0.007
194.95	-0.008
195.17	-0.011
195.38	-0.023
195.60	-0.030
195.81	-0.019
196.03	-0.021
196.25	-0.012
196.46	-0.009
196.68	0.001
196.89	0.006
197.11	0.019
197.32	0.021
197.54	0.013
197.75	0.024
197.97	0.030
198.18	0.019
198.40	0.025
198.61	0.014
198.83	0.009
199.04	0.006
199.26	0.002
199.47	-0.008
199.69	-0.003
199.90	0.017
200.12	0.015
200.33	0.012
200.55	0.015
200.76	0.005
200.98	0.007
201.19	0.006
201.41	0.002
201.62	0.006
201.84	0.008
202.05	0.007
202.27	0.003
202.48	0.002
202.70	0.007
202.91	0.002
203.13	0.001
203.34	-0.003
203.56	0.002
203.77	0.007
203.99	0.004
204.20	-0.001
204.42	-0.008
204.63	-0.013
204.85	-0.014
205.06	-0.023
205.28	-0.023
205.49	-0.016
205.71	-0.010
205.92	-0.015
206.14	-0.017
206.35	-0.005
206.56	0.003
206.78	0.006
206.99	0.010
207.21	0.015
207.42	0.021
207.64	0.020
207.85	0.021
208.07	0.029
208.28	0.033
208.50	0.034
208.71	0.024
208.93	0.028
209.14	0.035
209.36	0.030
209.57	0.029
209.79	0.030
210.00	0.032
210.22	0.030
210.43	0.022
210.64	0.023
210.86	0.018
211.07	0.018
211.29	0.010
211.50	0.002
211.72	-0.004
211.93	-0.008
212.15	-0.008
212.36	-0.013
212.58	-0.014
212.79	-0.015
213.01	-0.026
213.22	-0.025
213.43	-0.025
213.65	-0.023
213.86	-0.027
214.08	-0.018
214.29	-0.021
214.51	-0.020
214.72	-0.017
214.94	-0.018
215.15	-0.014
215.36	-0.008
215.58	-0.009
215.79	-0.012
216.01	-0.011
216.22	-0.003
216.44	-0.010
216.65	-0.011
216.87	-0.012
217.08	-0.009
217.29	-0.006
217.51	-0.006
217.72	-0.007
217.94	-0.005
218.15	-0.002
218.37	-0.005
218.58	-0.014
218.80	-0.009
219.01	-0.011
219.22	-0.011
219.44	-0.012
219.65	-0.009
219.87	-0.007
220.08	-0.010
220.30	-0.012
220.51	-0.015
220.72	-0.016
220.94	-0.015
221.15	-0.019
221.37	-0.019
221.58	-0.022
221.79	-0.019
222.01	-0.034
222.22	-0.047
222.44	-0.045
222.65	-0.047
222.87	-0.048
223.08	-0.048
223.29	-0.045
223.51	-0.045
223.72	-0.043
223.94	-0.044
224.15	-0.047
224.36	-0.036
224.58	-0.033
224.79	-0.031
225.01	-0.033
225.22	-0.034
225.44	-0.033
225.65	-0.035
225.86	-0.029
226.08	-0.028
226.29	-0.030
226.51	-0.027
226.72	-0.033
226.93	-0.030
227.15	-0.037
227.36	-0.036
227.58	-0.038
227.79	-0.036
228.00	-0.036
228.22	-0.046
228.43	-0.048
228.65	-0.045
228.86	-0.048
229.07	-0.046
229.29	-0.049
229.50	-0.049
229.72	-0.049
229.93	-0.048
230.14	-0.051
230.36	-0.053
230.57	-0.048
230.78	-0.049
231.00	-0.052
231.21	-0.056
231.43	-0.056
231.64	-0.056
231.85	-0.054
232.07	-0.055
232.28	-0.055
232.50	-0.056
232.71	-0.057
232.92	-0.059
233.14	-0.060
233.35	-0.059
233.56	-0.058
233.78	-0.060
233.99	-0.060
234.21	-0.063
234.42	-0.063
234.63	-0.064
234.85	-0.064
235.06	-0.064
235.27	-0.063
235.49	-0.061
235.70	-0.062
235.91	-0.064
236.13	-0.062
236.34	-0.063
236.56	-0.061
236.77	-0.061
236.98	-0.061
237.20	-0.061
237.41	-0.061
237.62	-0.060
237.84	-0.061
238.05	-0.060
238.26	-0.059
238.48	-0.060
238.69	-0.059
238.91	-0.059
239.12	-0.059
239.33	-0.059
239.55	-0.057
239.76	-0.057
239.97	-0.056
240.19	-0.055
240.40	-0.055
240.61	-0.054
240.83	-0.053
241.04	-0.052
241.25	-0.051
241.47	-0.050
241.68	-0.049
241.89	-0.049
242.11	-0.048
242.32	-0.047
242.53	-0.047
242.75	-0.046
242.96	-0.044
243.17	-0.044
243.39	-0.044
243.60	-0.044
243.81	-0.043
244.03	-0.043
244.24	-0.043
244.45	-0.042
244.67	-0.043
244.88	-0.041
245.09	-0.041
245.31	-0.041
245.52	-0.040
245.73	-0.040
245.95	-0.039
246.16	-0.039
246.37	-0.039
246.59	-0.038
246.80	-0.038
247.01	-0.037
247.23	-0.037
247.44	-0.037
247.65	-0.037
247.87	-0.037
248.08	-0.037
248.29	-0.037
248.51	-0.037
248.72	-0.036
248.93	-0.036
249.15	-0.036
249.36	-0.036
249.57	-0.036
249.78	-0.036
250.00	-0.035
250.21	-0.035
250.42	-0.034
250.64	-0.034
250.85	-0.034
251.06	-0.034
251.28	-0.033
251.49	-0.033
251.70	-0.033
251.92	-0.033
252.13	-0.032
252.34	-0.032
252.55	-0.032
252.77	-0.033
252.98	-0.032
253.19	-0.032
253.41	-0.032
253.62	-0.032
253.83	-0.031
254.05	-0.031
254.26	-0.032
254.47	-0.032
254.68	-0.032
254.90	-0.031
255.11	-0.031
255.32	-0.031
255.54	-0.031
255.75	-0.031
255.96	-0.031
256.17	-0.031
256.39	-0.031
256.60	-0.031
256.81	-0.031
257.03	-0.031
257.24	-0.031
257.45	-0.031
257.66	-0.031
257.88	-0.031
258.09	-0.032
258.30	-0.032
258.51	-0.032
258.73	-0.032
258.94	-0.032
259.15	-0.032
259.37	-0.033
259.58	-0.033
259.79	-0.033
260.00	-0.033
260.22	-0.033
260.43	-0.033
260.64	-0.034
260.85	-0.034
261.07	-0.034
261.28	-0.034
261.49	-0.034
261.71	-0.034
261.92	-0.034
262.13	-0.034
262.34	-0.034
262.56	-0.035
262.77	-0.034
262.98	-0.035
263.19	-0.035
263.41	-0.035
263.62	-0.035
263.83	-0.036
264.04	-0.036
264.26	-0.036
264.47	-0.036
264.68	-0.037
264.89	-0.037
265.11	-0.037
265.32	-0.037
265.53	-0.037
265.74	-0.037
265.96	-0.037
266.17	-0.037
266.38	-0.037
266.59	-0.037
266.81	-0.037
267.02	-0.038
267.23	-0.038
267.44	-0.039
267.65	-0.039
267.87	-0.040
268.08	-0.040
268.29	-0.040
268.50	-0.041
268.72	-0.040
268.93	-0.041
269.14	-0.041
269.35	-0.041
269.57	-0.041
269.78	-0.042
269.99	-0.042
270.20	-0.042
270.41	-0.042
270.63	-0.042
270.84	-0.043
271.05	-0.043
271.26	-0.043
271.48	-0.044
271.69	-0.044
271.90	-0.044
272.11	-0.044
272.32	-0.045
272.54	-0.045
272.75	-0.045
272.96	-0.045
273.17	-0.045
273.39	-0.045
273.60	-0.045
273.81	-0.046
274.02	-0.046
274.23	-0.046
274.45	-0.046
274.66	-0.046
274.87	-0.046
275.08	-0.046
275.29	-0.046
275.51	-0.046
275.72	-0.046
275.93	-0.046
276.14	-0.046
276.35	-0.046
276.57	-0.046
276.78	-0.046
276.99	-0.046
277.20	-0.046
277.41	-0.046
277.63	-0.046
277.84	-0.045
278.05	-0.045
278.26	-0.045
278.47	-0.045
278.69	-0.045
278.90	-0.045
279.11	-0.044
279.32	-0.043
279.53	-0.043
279.74	-0.043
279.96	-0.043
280.17	-0.043
280.38	-0.042
280.59	-0.042
280.80	-0.042
281.02	-0.041
281.23	-0.041
281.44	-0.041
281.65	-0.041
281.86	-0.041
282.07	-0.041
282.29	-0.041
282.50	-0.041
282.71	-0.040
282.92	-0.040
283.13	-0.040
283.35	-0.040
283.56	-0.040
283.77	-0.039
283.98	-0.039
284.19	-0.038
284.40	-0.038
284.62	-0.038
284.83	-0.037
285.04	-0.037
285.25	-0.036
285.46	-0.035
285.67	-0.035
285.88	-0.034
286.10	-0.034
286.31	-0.033
286.52	-0.032
286.73	-0.031
286.94	-0.031
287.15	-0.030
287.37	-0.029
287.58	-0.029
287.79	-0.028
288.00	-0.027
288.21	-0.027
288.42	-0.026
288.63	-0.026
288.85	-0.025
289.06	-0.025
289.27	-0.024
289.48	-0.024
289.69	-0.023
289.90	-0.023
290.11	-0.022
290.33	-0.022
290.54	-0.021
290.75	-0.020
290.96	-0.020
291.17	-0.020
291.38	-0.019
291.59	-0.019
291.81	-0.019
292.02	-0.018
292.23	-0.018
292.44	-0.018
292.65	-0.018
292.86	-0.017
293.07	-0.017
293.28	-0.017
293.50	-0.017
293.71	-0.016
293.92	-0.016
294.13	-0.016
294.34	-0.015
294.55	-0.015
294.76	-0.015
294.97	-0.015
295.19	-0.015
295.40	-0.015
295.61	-0.015
295.82	-0.015
296.03	-0.015
296.24	-0.015
296.45	-0.015
296.66	-0.015
296.87	-0.014
297.09	-0.014
297.30	-0.014
297.51	-0.014
297.72	-0.014
297.93	-0.014
298.14	-0.014
298.35	-0.014
298.56	-0.014
298.77	-0.013
298.99	-0.013
299.20	-0.013
299.41	-0.013
299.62	-0.013
299.83	-0.013
300.04	-0.013
300.25	-0.013
300.46	-0.013
300.67	-0.012
300.88	-0.012
301.10	-0.012
301.31	-0.012
301.52	-0.012
301.73	-0.013
301.94	-0.012
302.15	-0.013
302.36	-0.013
302.57	-0.013
302.78	-0.013
302.99	-0.013
303.20	-0.013
303.41	-0.013
303.63	-0.013
303.84	-0.013
304.05	-0.013
304.26	-0.013
304.47	-0.012
304.68	-0.012
304.89	-0.012
305.10	-0.012
305.31	-0.012
305.52	-0.012
305.73	-0.012
305.94	-0.012
306.15	-0.012
306.37	-0.012
306.58	-0.012
306.79	-0.012
307.00	-0.012
307.21	-0.012
307.42	-0.012
307.63	-0.011
307.84	-0.011
308.05	-0.011
308.26	-0.011
308.47	-0.011
308.68	-0.011
308.89	-0.011
309.10	-0.011
309.31	-0.011
309.52	-0.011
309.73	-0.011
309.95	-0.011
310.16	-0.012
310.37	-0.012
310.58	-0.011
310.79	-0.012
311.00	-0.012
311.21	-0.011
311.42	-0.011
311.63	-0.012
311.84	-0.012
312.05	-0.012
312.26	-0.011
312.47	-0.011
312.68	-0.011
312.89	-0.011
313.10	-0.011
313.31	-0.011
313.52	-0.011
313.73	-0.011
313.94	-0.011
314.15	-0.011
314.36	-0.011
314.57	-0.011
314.78	-0.011
314.99	-0.011
315.21	-0.011
315.42	-0.011
315.63	-0.011
315.84	-0.011
316.05	-0.011
316.26	-0.011
316.47	-0.011
316.68	-0.011
316.89	-0.011
317.10	-0.011
317.31	-0.011
317.52	-0.011
317.73	-0.011
317.94	-0.011
318.15	-0.011
318.36	-0.011
318.57	-0.011
318.78	-0.011
318.99	-0.011
319.20	-0.010
319.41	-0.010
319.62	-0.010
319.83	-0.010
320.04	-0.010
320.25	-0.010
320.46	-0.010
320.67	-0.010
320.88	-0.010
321.09	-0.010
321.30	-0.010
321.51	-0.010
321.72	-0.010
321.93	-0.010
322.14	-0.011
322.35	-0.011
322.56	-0.011
322.77	-0.010
322.98	-0.010
323.19	-0.010
323.40	-0.010
323.61	-0.010
323.82	-0.010
324.03	-0.010
324.24	-0.010
324.45	-0.010
324.66	-0.010
324.87	-0.010
325.08	-0.010
325.29	-0.010
325.50	-0.010
325.71	-0.010
325.92	-0.010
326.13	-0.010
326.34	-0.010
326.55	-0.010
326.76	-0.010
326.97	-0.010
327.18	-0.010
327.39	-0.010
327.60	-0.010
327.80	-0.009
328.01	-0.009
328.22	-0.010
328.43	-0.009
328.64	-0.009
328.85	-0.009
329.06	-0.009
329.27	-0.009
329.48	-0.009
329.69	-0.009
329.90	-0.009
330.11	-0.009
330.32	-0.009
330.53	-0.009
330.74	-0.009
330.95	-0.009
331.16	-0.009
331.37	-0.009
331.58	-0.009
331.79	-0.009
332.00	-0.009
332.21	-0.009
332.42	-0.009
332.63	-0.009
332.83	-0.008
333.04	-0.008
333.25	-0.008
333.46	-0.008
333.67	-0.008
333.88	-0.008
334.09	-0.008
334.30	-0.008
334.51	-0.008
334.72	-0.008
334.93	-0.008
335.14	-0.008
335.35	-0.008
335.56	-0.008
335.77	-0.008
335.98	-0.008
336.18	-0.008
336.39	-0.008
336.60	-0.008
336.81	-0.008
337.02	-0.008
337.23	-0.008
337.44	-0.008
337.65	-0.008
337.86	-0.008
338.07	-0.007
338.28	-0.007
338.49	-0.007
338.70	-0.007
338.91	-0.007
339.11	-0.007
339.32	-0.007
339.53	-0.007
339.74	-0.007
339.95	-0.007
340.16	-0.007
340.37	-0.007
340.58	-0.007
340.79	-0.007
341.00	-0.007
341.21	-0.007
341.41	-0.007
341.62	-0.007
341.83	-0.007
342.04	-0.007
342.25	-0.007
342.46	-0.007
342.67	-0.007
342.88	-0.006
343.09	-0.006
343.30	-0.006
343.50	-0.006
343.71	-0.006
343.92	-0.006
344.13	-0.005
344.34	-0.005
344.55	-0.006
344.76	-0.005
344.97	-0.005
345.18	-0.006
345.38	-0.006
345.59	-0.006
345.80	-0.006
346.01	-0.006
346.22	-0.006
346.43	-0.006
346.64	-0.006
346.85	-0.005
347.06	-0.005
347.26	-0.005
347.47	-0.005
347.68	-0.005
347.89	-0.005
348.10	-0.005
348.31	-0.005
348.52	-0.005
348.73	-0.005
348.93	-0.005
349.14	-0.005
349.35	-0.005
349.56	-0.005
349.77	-0.005
349.98	-0.005
350.19	-0.005
350.39	-0.005
350.60	-0.005
350.81	-0.005
351.02	-0.005
351.23	-0.005
351.44	-0.005
351.65	-0.004
351.86	-0.004
352.06	-0.004
352.27	-0.004
352.48	-0.004
352.69	-0.004
352.90	-0.004
353.11	-0.004
353.31	-0.004
353.52	-0.004
353.73	-0.004
353.94	-0.004
354.15	-0.004
354.36	-0.004
354.57	-0.004
354.77	-0.004
354.98	-0.004
355.19	-0.004
355.40	-0.004
355.61	-0.004
355.82	-0.003
356.02	-0.003
356.23	-0.003
356.44	-0.003
356.65	-0.003
356.86	-0.003
357.07	-0.003
357.27	-0.003
357.48	-0.003
357.69	-0.003
357.90	-0.003
358.11	-0.003
358.32	-0.003
358.52	-0.003
358.73	-0.003
358.94	-0.003
359.15	-0.003
359.36	-0.003
359.56	-0.003
359.77	-0.003
359.98	-0.003
360.19	-0.003
360.40	-0.003
360.61	-0.003
360.81	-0.003
361.02	-0.003
361.23	-0.003
361.44	-0.003
361.65	-0.003
361.85	-0.002
362.06	-0.002
362.27	-0.002
362.48	-0.002
362.69	-0.002
362.89	-0.002
363.10	-0.002
363.31	-0.002
363.52	-0.002
363.73	-0.002
363.93	-0.002
364.14	-0.002
364.35	-0.002
364.56	-0.002
364.77	-0.002
364.97	-0.002
365.18	-0.002
365.39	-0.002
365.60	-0.002
365.81	-0.002
366.01	-0.002
366.22	-0.002
366.43	-0.002
366.64	-0.002
366.84	-0.002
367.05	-0.002
367.26	-0.002
367.47	-0.002
367.68	-0.002
367.88	-0.002
368.09	-0.002
368.30	-0.001
368.51	-0.001
368.71	-0.001
368.92	-0.001
369.13	-0.001
369.34	-0.001
369.55	-0.001
369.75	-0.001
369.96	-0.001
370.17	-0.001
370.38	-0.001
370.58	-0.001
370.79	-0.001
371.00	-0.001
371.21	-0.001
371.41	-0.001
371.62	-0.001
371.83	-0.001
372.04	-0.001
372.24	-0.001
372.45	-0.001
372.66	-0.001
372.87	-0.001
373.07	-0.001
373.28	-0.001
373.49	-0.001
373.70	-0.001
373.90	-0.001
374.11	-0.001
374.32	-0.001
374.53	-0.001
374.73	-0.001
374.94	-0.001
375.15	-0.001
375.36	-0.001
375.56	-0.001
375.77	-0.001
375.98	-0.001
376.19	-0.001
376.39	-0.001
376.60	-0.001
376.81	-0.001
377.02	-0.001
377.22	-0.001
377.43	-0.001
377.64	-0.001
377.84	-0.001
378.05	-0.001
378.26	-0.001
378.47	-0.001
378.67	-0.001
378.88	-0.001
379.09	-0.001
379.30	-0.001
379.50	-0.001
379.71	-0.001
379.92	-0.001
380.12	-0.001
380.33	-0.001
380.54	-0.001
380.75	-0.001
380.95	-0.001
381.16	-0.001
381.37	-0.001
381.57	-0.001
381.78	-0.001
381.99	-0.001
382.20	-0.001
382.40	-0.001
382.61	-0.000
382.82	-0.001
383.02	-0.001
383.23	-0.001
383.44	-0.001
383.64	-0.001
383.85	-0.001
384.06	-0.001
384.27	-0.001
384.47	-0.001
384.68	-0.001
384.89	-0.001
385.09	-0.001
385.30	-0.001
385.51	-0.001
385.71	-0.001
385.92	-0.001
386.13	-0.001
386.33	-0.001
386.54	-0.001
386.75	-0.001
386.95	-0.001
387.16	-0.001
387.37	-0.001
387.58	-0.001
387.78	-0.001
387.99	-0.001
388.20	-0.001
388.40	-0.001
388.61	-0.001
388.82	-0.001
389.02	-0.001
389.23	-0.001
389.44	-0.001
389.64	-0.001
389.85	-0.001
390.06	-0.001
390.26	-0.001
390.47	-0.001
390.68	-0.001
390.88	-0.001
391.09	-0.001
391.30	-0.001
391.50	-0.001
391.71	-0.001
391.92	-0.001
392.12	-0.001
392.33	-0.001
392.53	-0.001
392.74	-0.001
392.95	-0.001
393.15	-0.000
393.36	-0.000
393.57	-0.000
393.77	-0.000
393.98	-0.000
394.19	-0.000
394.39	-0.000
394.60	-0.000
394.81	-0.000
395.01	-0.000
395.22	-0.000
395.43	-0.000
395.63	-0.000
395.84	-0.001
396.04	-0.001
396.25	-0.001
396.46	-0.001
396.66	-0.001
396.87	-0.001
397.08	-0.001
397.28	-0.001
397.49	-0.001
397.69	-0.001
397.90	-0.001
398.11	-0.000
398.31	-0.000
398.52	-0.000
398.73	-0.000
398.93	-0.000
399.14	-0.000
399.34	-0.000
399.55	-0.000
399.76	-0.000
399.96	-0.000
400.17	-0.000
400.37	-0.000
400.58	-0.000
400.79	-0.000
400.99	-0.000
401.20	-0.000
401.41	0.000
401.61	0.000
401.82	0.000
402.02	0.000
402.23	-0.000
402.44	-0.000
402.64	-0.000
402.85	-0.000
403.05	-0.000
403.26	-0.000
403.47	-0.000
403.67	-0.000
403.88	-0.000
404.08	-0.000
404.29	-0.000
404.50	-0.000
404.70	-0.000
404.91	-0.000
405.11	-0.000
405.32	-0.000
405.52	-0.000
405.73	-0.000
405.94	-0.000
406.14	-0.000
406.35	-0.000
406.55	-0.001
406.76	-0.000
406.97	-0.000
407.17	-0.000
407.38	-0.000
407.58	-0.000
407.79	-0.001
407.99	-0.000
408.20	-0.000
408.41	-0.000
408.61	-0.000
408.82	-0.000
409.02	-0.000
409.23	-0.000
409.43	-0.000
409.64	-0.000
409.84	-0.000
410.05	-0.000
410.26	-0.000
410.46	-0.000
410.67	-0.000
410.87	-0.000
411.08	-0.000
411.28	-0.000
411.49	-0.000
411.69	-0.000
411.90	-0.000
412.11	-0.000
412.31	-0.000
412.52	-0.000
412.72	-0.000
412.93	-0.000
413.13	-0.000
413.34	-0.000
413.54	-0.000
413.75	-0.000
413.95	-0.000
414.16	-0.000
414.37	-0.000
414.57	-0.000
414.78	-0.000
414.98	0.000
415.19	0.000
415.39	0.000
415.60	0.000
415.80	-0.000
416.01	-0.000
416.21	-0.000
416.42	-0.000
416.62	-0.000
416.83	-0.000
417.03	-0.000
417.24	-0.001
417.44	-0.000
417.65	-0.001
417.86	-0.001
418.06	-0.001
418.27	-0.001
418.47	-0.001
418.68	-0.001
418.88	-0.001
419.09	-0.001
419.29	-0.001
419.50	-0.001
419.70	-0.001
419.91	-0.001
420.11	-0.001
420.32	-0.001
420.52	-0.001
420.73	-0.001
420.93	-0.001
421.14	-0.001
421.34	-0.001
421.55	-0.001
421.75	-0.001
421.96	-0.001
422.16	-0.001
422.37	-0.001
422.57	-0.001
422.78	-0.001
422.98	-0.001
423.19	-0.000
423.39	-0.000
423.60	-0.000
423.80	-0.000
424.01	0.000
424.21	0.000
424.42	0.000
424.62	0.000
424.83	0.000
425.03	0.000
425.23	0.000
425.44	0.000
425.64	0.000
425.85	0.000
426.05	0.000
426.26	0.000
426.46	0.000
426.67	0.000
426.87	-0.000
427.08	-0.000
427.28	-0.000
427.49	-0.001
427.69	-0.001
427.90	-0.001
428.10	-0.001
428.31	-0.001
428.51	-0.001
428.71	-0.001
428.92	-0.001
429.12	-0.001
429.33	-0.001
429.53	-0.001
429.74	-0.001
429.94	-0.001
430.15	-0.001
430.35	-0.000
430.56	-0.000
430.76	0.000
430.96	0.000
431.17	0.000
431.37	0.000
431.58	0.000
431.78	0.000
431.99	0.001
432.19	0.001
432.40	0.001
432.60	0.001
432.80	0.001
433.01	0.000
433.21	0.000
433.42	0.000
433.62	0.000
433.83	-0.000
434.03	-0.000
434.23	-0.000
434.44	-0.000
434.64	-0.000
434.85	-0.000
435.05	-0.000
435.26	-0.000
435.46	-0.000
435.66	-0.000
435.87	-0.000
436.07	-0.000
436.28	-0.001
436.48	-0.001
436.69	-0.001
436.89	-0.001
437.09	-0.001
437.30	-0.000
437.50	-0.000
437.71	-0.000
437.91	0.000
438.11	0.000
438.32	0.000
438.52	0.000
438.73	0.000
438.93	0.000
439.13	0.000
439.34	0.000
439.54	0.000
439.75	-0.000
439.95	-0.000
440.15	-0.000
440.36	-0.000
440.56	-0.000
440.77	-0.000
440.97	-0.000
441.17	-0.000
441.38	-0.000
441.58	-0.000
441.79	-0.000
441.99	-0.000
442.19	-0.000
442.40	-0.000
442.60	-0.000
442.81	-0.000
443.01	-0.000
443.21	-0.000
443.42	-0.000
443.62	-0.000
443.82	-0.000
444.03	-0.000
444.23	-0.000
444.44	0.000
444.64	-0.000
444.84	-0.000
445.05	-0.000
445.25	-0.000
445.45	-0.000
445.66	-0.000
445.86	0.000
446.06	0.000
446.27	0.000
446.47	0.000
446.68	0.000
446.88	0.000
447.08	0.000
447.29	-0.000
447.49	-0.000
447.69	-0.000
447.90	0.000
448.10	-0.000
448.30	0.000
448.51	0.000
448.71	-0.000
448.91	0.000
449.12	0.000
449.32	0.000
449.52	0.000
449.73	0.000
449.93	0.000
450.14	0.000
450.34	0.000
450.54	0.000
450.75	0.000
450.95	0.000
451.15	0.000
451.36	0.000
451.56	0.000
451.76	0.000
451.97	-0.000
452.17	-0.000
452.37	0.000
452.58	-0.000
452.78	0.000
452.98	0.000
453.19	0.000
453.39	0.000
453.59	0.000
453.79	0.000
454.00	0.000
454.20	0.000
454.40	0.000
454.61	0.000
454.81	0.000
455.01	0.000
455.22	0.000
455.42	-0.000
455.62	-0.000
455.83	-0.000
456.03	0.000
456.23	0.000
456.44	-0.000
456.64	0.000
456.84	0.000
457.04	0.000
457.25	-0.000
457.45	-0.000
457.65	-0.000
457.86	0.000
458.06	0.000
458.26	0.000
458.47	0.000
458.67	0.000
458.87	-0.000
459.07	-0.000
459.28	-0.000
459.48	0.000
459.68	0.000
459.89	0.000
460.09	0.000
460.29	0.000
460.49	0.000
460.70	0.000
460.90	0.000
461.10	0.000
461.31	0.000
461.51	0.000
461.71	0.001
461.91	0.001
462.12	0.001
462.32	0.000
462.52	0.000
462.72	0.000
462.93	0.000
463.13	-0.000
463.33	-0.000
463.53	-0.000
463.74	-0.000
463.94	-0.001
464.14	-0.001
464.35	-0.001
464.55	-0.001
464.75	-0.001
464.95	-0.001
465.16	-0.000
465.36	-0.000
465.56	-0.000
465.76	0.000
465.97	0.000
466.17	0.000
466.37	0.000
466.57	0.000
466.78	0.000
466.98	0.000
467.18	0.000
467.38	0.000
467.59	0.000
467.79	0.000
467.99	0.000
468.19	0.001
468.39	0.000
468.60	0.000
468.80	0.000
469.00	0.001
469.20	0.001
469.41	0.000
469.61	0.000
469.81	0.000
470.01	0.000
470.22	0.000
470.42	0.000
470.62	0.000
470.82	-0.000
471.02	0.000
471.23	-0.000
471.43	-0.000
471.63	-0.000
471.83	-0.000
472.04	-0.000
472.24	-0.000
472.44	-0.001
472.64	-0.001
472.84	-0.001
473.05	-0.001
473.25	-0.001
473.45	-0.001
473.65	-0.001
473.85	-0.001
474.06	-0.001
474.26	-0.001
474.46	-0.001
474.66	-0.001
474.86	-0.001
475.07	-0.001
475.27	-0.001
475.47	-0.000
475.67	-0.000
475.87	-0.000
476.08	-0.000
476.28	-0.000
476.48	0.000
476.68	0.000
476.88	0.000
477.09	0.000
477.29	0.000
477.49	0.000
477.69	0.000
477.89	0.000
478.09	-0.000
478.30	-0.000
478.50	-0.000
478.70	-0.000
478.90	-0.000
479.10	-0.001
479.31	-0.001
479.51	-0.001
479.71	-0.001
479.91	-0.001
480.11	-0.001
480.31	-0.000
480.52	-0.000
480.72	-0.000
480.92	-0.000
481.12	-0.000
481.32	-0.000
481.52	-0.000
481.72	-0.001
481.93	-0.001
482.13	-0.001
482.33	-0.001
482.53	-0.001
482.73	-0.001
482.93	-0.001
483.14	-0.001
483.34	-0.001
483.54	-0.001
483.74	-0.001
483.94	-0.001
484.14	-0.001
484.34	-0.001
484.55	-0.001
484.75	-0.001
484.95	-0.001
485.15	-0.001
485.35	-0.001
485.55	-0.001
485.75	-0.000
485.96	-0.000
486.16	-0.000
486.36	-0.000
486.56	-0.000
486.76	0.000
486.96	0.000
487.16	0.001
487.36	0.001
487.57	0.001
487.77	0.001
487.97	0.001
488.17	0.001
488.37	0.001
488.57	0.001
488.77	0.001
488.97	0.001
489.18	0.001
489.38	0.001
489.58	0.001
489.78	0.001
489.98	0.001
490.18	0.001
490.38	0.001
490.58	0.001
490.78	0.001
490.98	0.001
491.19	0.000
491.39	0.000
491.59	0.000
491.79	0.000
491.99	0.000
492.19	0.000
492.39	0.000
492.59	0.000
492.79	0.000
492.99	0.000
493.20	0.000
493.40	0.000
493.60	0.000
493.80	0.000
494.00	0.000
494.20	0.000
494.40	0.000
494.60	0.000
494.80	0.000
495.00	0.000
495.20	0.000
495.40	0.000
495.61	0.000
495.81	0.001
496.01	0.001
496.21	0.001
496.41	0.001
496.61	0.001
496.81	0.001
497.01	0.001
497.21	0.001
497.41	0.001
497.61	0.002
497.81	0.002
498.01	0.002
498.21	0.002
498.41	0.002
498.61	0.002
498.82	0.002
499.02	0.002
499.22	0.002
499.42	0.001
499.62	0.001
499.82	0.001
500.02	0.001
500.22	0.001
500.42	0.001
500.62	0.001
500.82	0.001
501.02	0.001
501.22	0.001
501.42	0.001
501.62	0.001
501.82	0.001
502.02	0.001
502.22	0.001
502.42	0.001
502.62	0.001
502.82	0.001
503.02	0.001
503.22	0.001
503.42	0.001
503.63	0.001
503.83	0.001
504.03	0.001
504.23	0.001
504.43	0.001
504.63	0.001
504.83	0.001
505.03	0.001
505.23	0.002
505.43	0.002
505.63	0.002
505.83	0.002
506.03	0.002
506.23	0.002
506.43	0.002
506.63	0.002
506.83	0.002
507.03	0.002
507.23	0.002
507.43	0.002
507.63	0.002
507.83	0.002
508.03	0.001
508.23	0.001
508.43	0.001
508.63	0.001
508.83	0.001
509.03	0.001
509.23	0.001
509.43	0.001
509.63	0.001
509.83	0.001
510.03	0.002
510.23	0.001
510.43	0.002
510.63	0.002
510.83	0.002
511.03	0.002
511.23	0.002
511.43	0.002
511.63	0.002
511.83	0.002
512.03	0.002
512.22	0.002
512.42	0.002
512.62	0.002
512.82	0.002
513.02	0.002
513.22	0.002
513.42	0.002
513.62	0.002
513.82	0.002
514.02	0.002
514.22	0.002
514.42	0.002
514.62	0.002
514.82	0.002
515.02	0.002
515.22	0.002
515.42	0.002
515.62	0.002
515.82	0.002
516.02	0.001
516.22	0.001
516.42	0.001
516.62	0.002
516.82	0.001
517.01	0.002
517.21	0.002
517.41	0.002
517.61	0.002
517.81	0.002
518.01	0.002
518.21	0.002
518.41	0.002
518.61	0.002
518.81	0.002
519.01	0.002
519.21	0.002
519.41	0.002
519.61	0.002
519.81	0.002
520.00	0.002
520.20	0.002
520.40	0.002
520.60	0.002
520.80	0.002
521.00	0.002
521.20	0.002
521.40	0.002
521.60	0.002
521.80	0.002
522.00	0.002
522.20	0.003
522.39	0.002
522.59	0.002
522.79	0.002
522.99	0.002
523.19	0.002
523.39	0.002
523.59	0.002
523.79	0.002
523.99	0.002
524.19	0.002
524.38	0.002
524.58	0.002
524.78	0.002
524.98	0.002
525.18	0.002
525.38	0.002
525.58	0.002
525.78	0.002
525.98	0.002
526.18	0.002
526.37	0.002
526.57	0.002
526.77	0.002
526.97	0.002
527.17	0.002
527.37	0.002
527.57	0.002
527.77	0.002
527.96	0.002
528.16	0.002
528.36	0.002
528.56	0.002
528.76	0.002
528.96	0.002
529.16	0.002
529.36	0.002
529.55	0.002
529.75	0.002
529.95	0.002
530.15	0.002
530.35	0.003
530.55	0.003
530.75	0.003
530.94	0.003
531.14	0.003
531.34	0.003
531.54	0.003
531.74	0.002
531.94	0.003
532.13	0.002
532.33	0.002
532.53	0.002
532.73	0.002
532.93	0.002
533.13	0.002
533.33	0.002
533.52	0.002
533.72	0.002
533.92	0.003
534.12	0.002
534.32	0.002
534.52	0.002
534.71	0.002
534.91	0.002
535.11	0.002
535.31	0.002
535.51	0.002
535.71	0.002
535.90	0.002
536.10	0.002
536.30	0.003
536.50	0.003
536.70	0.002
536.89	0.003
537.09	0.003
537.29	0.003
537.49	0.002
537.69	0.002
537.89	0.002
538.08	0.002
538.28	0.002
538.48	0.002
538.68	0.002
538.88	0.002
539.07	0.002
539.27	0.002
539.47	0.002
539.67	0.002
539.87	0.002
540.06	0.002
540.26	0.003
540.46	0.003
540.66	0.003
540.86	0.003
541.05	0.003
541.25	0.003
541.45	0.003
541.65	0.003
541.84	0.003
542.04	0.003
542.24	0.003
542.44	0.002
542.64	0.002
542.83	0.002
543.03	0.002
543.23	0.002
543.43	0.002
543.62	0.002
543.82	0.002
544.02	0.002
544.22	0.002
544.42	0.002
544.61	0.002
544.81	0.002
545.01	0.002
545.21	0.002
545.40	0.002
545.60	0.002
545.80	0.003
546.00	0.003
546.19	0.003
546.39	0.003
546.59	0.003
546.79	0.003
546.98	0.003
547.18	0.003
547.38	0.003
547.58	0.003
547.77	0.003
547.97	0.003
548.17	0.003
548.37	0.003
548.56	0.003
548.76	0.003
548.96	0.003
549.16	0.003
549.35	0.003
549.55	0.003
549.75	0.003
549.95	0.003
550.14	0.003
550.34	0.003
550.54	0.003
550.73	0.003
550.93	0.003
551.13	0.002
551.33	0.002
551.52	0.002
551.72	0.002
551.92	0.002
552.12	0.002
552.31	0.002
552.51	0.002
552.71	0.002
552.90	0.002
553.10	0.003
553.30	0.003
553.50	0.003
553.69	0.003
553.89	0.003
554.09	0.003
554.28	0.003
554.48	0.003
554.68	0.003
554.87	0.003
555.07	0.003
555.27	0.003
555.47	0.004
555.66	0.003
555.86	0.004
556.06	0.004
556.25	0.004
556.45	0.004
556.65	0.004
556.84	0.004
557.04	0.004
557.24	0.004
557.43	0.004
557.63	0.004
557.83	0.004
558.02	0.004
558.22	0.003
558.42	0.003
558.61	0.003
558.81	0.003
559.01	0.003
559.21	0.003
559.40	0.002
559.60	0.002
559.80	0.002
559.99	0.002
560.19	0.002
560.39	0.002
560.58	0.002
560.78	0.002
560.97	0.002
561.17	0.003
561.37	0.003
561.56	0.003
561.76	0.003
561.96	0.003
562.15	0.003
562.35	0.003
562.55	0.003
562.74	0.003
562.94	0.003
563.14	0.004
563.33	0.003
563.53	0.004
563.73	0.004
563.92	0.004
564.12	0.003
564.31	0.003
564.51	0.003
564.71	0.003
564.90	0.003
565.10	0.003
565.30	0.003
565.49	0.003
565.69	0.003
565.89	0.003
566.08	0.003
566.28	0.003
566.47	0.003
566.67	0.003
566.87	0.002
567.06	0.002
567.26	0.002
567.46	0.002
567.65	0.002
567.85	0.002
568.04	0.001
568.24	0.001
568.44	0.001
568.63	0.001
568.83	0.001
569.02	0.001
569.22	0.001
569.42	0.001
569.61	0.001
569.81	0.001
570.00	0.001
570.20	0.001
570.40	0.001
570.59	0.001
570.79	0.001
570.98	0.001
571.18	0.001
571.38	0.001
571.57	0.001
571.77	0.001
571.96	0.001
572.16	0.001
572.35	0.001
572.55	0.002
572.75	0.002
572.94	0.002
573.14	0.002
573.33	0.002
573.53	0.002
573.73	0.002
573.92	0.002
574.12	0.002
574.31	0.002
574.51	0.002
574.70	0.002
574.90	0.002
575.09	0.001
575.29	0.001
575.49	0.001
575.68	0.001
575.88	0.000
576.07	0.000
576.27	-0.000
576.46	-0.000
576.66	-0.000
576.86	-0.000
577.05	-0.000
577.25	-0.000
577.44	-0.000
577.64	-0.000
577.83	-0.000
578.03	-0.000
578.22	-0.000
578.42	-0.000
578.61	-0.000
578.81	-0.000
579.00	-0.000
579.20	-0.000
579.40	-0.000
579.59	-0.000
579.79	-0.000
579.98	-0.000
580.18	-0.000
580.37	-0.000
580.57	-0.000
580.76	-0.000
580.96	-0.000
581.15	-0.000
581.35	-0.000
581.54	-0.000
581.74	-0.000
581.93	-0.000
582.13	-0.000
582.32	-0.000
582.52	-0.000
582.71	-0.000
582.91	-0.000
583.10	-0.000
583.30	-0.000
583.49	-0.000
583.69	-0.000
583.88	-0.000
584.08	-0.000
584.27	-0.000
584.47	-0.000
584.66	-0.000
584.86	-0.000
585.05	-0.000
585.25	-0.000
585.44	-0.000
585.64	-0.000
585.83	-0.000
586.03	-0.000
586.22	-0.000
586.42	0.000
586.61	0.001
586.81	0.001
587.00	0.002
587.20	0.002
587.39	0.002
587.59	0.003
587.78	0.003
587.98	0.004
588.17	0.004
588.37	0.005
588.56	0.004
588.76	0.005
588.95	0.004
589.15	0.004
589.34	0.004
589.54	0.004
589.73	0.004
589.92	0.003
590.12	0.003
590.31	0.003
590.51	0.002
590.70	0.002
590.90	0.002
591.09	0.002
591.29	0.002
591.48	0.002
591.68	0.002
591.87	0.002
592.06	0.002
592.26	0.002
592.45	0.002
592.65	0.003
592.84	0.003
593.04	0.003
593.23	0.003
593.43	0.003
593.62	0.003
593.81	0.003
594.01	0.004
594.20	0.004
594.40	0.004
594.59	0.004
594.79	0.004
594.98	0.005
595.17	0.005
595.37	0.004
595.56	0.004
595.76	0.004
595.95	0.003
596.14	0.003
596.34	0.003
596.53	0.002
596.73	0.002
596.92	0.002
597.12	0.001
597.31	0.001
597.50	0.001
597.70	0.001
597.89	0.001
598.09	0.001
598.28	0.001
598.47	0.001
598.67	0.001
598.86	0.002
599.06	0.002
599.25	0.002
599.44	0.003
599.64	0.003
599.83	0.003
600.03	0.004
600.22	0.004
600.41	0.004
600.61	0.004
600.80	0.004
601.00	0.005
601.19	0.005
601.38	0.005
601.58	0.005
601.77	0.005
601.96	0.004
602.16	0.004
602.35	0.004
602.55	0.004
602.74	0.004
602.93	0.004
603.13	0.003
603.32	0.003
603.51	0.003
603.71	0.002
603.90	0.002
604.09	0.002
604.29	0.002
604.48	0.001
604.68	0.001
604.87	0.002
605.06	0.002
605.26	0.002
605.45	0.002
605.64	0.002
605.84	0.002
606.03	0.003
606.22	0.003
606.42	0.003
606.61	0.003
606.80	0.003
607.00	0.004
607.19	0.004
607.38	0.004
607.58	0.004
607.77	0.004
607.96	0.004
608.16	0.005
608.35	0.005
608.54	0.005
608.74	0.005
608.93	0.005
609.12	0.005
609.32	0.005
609.51	0.005
609.70	0.005
609.90	0.005
610.09	0.005
610.28	0.005
610.48	0.004
610.67	0.004
610.86	0.004
611.06	0.004
611.25	0.004
611.44	0.004
611.64	0.003
611.83	0.003
612.02	0.003
612.21	0.003
612.41	0.003
612.60	0.003
612.79	0.003
612.99	0.003
613.18	0.003
613.37	0.003
613.57	0.003
613.76	0.003
613.95	0.003
614.14	0.004
614.34	0.004
614.53	0.004
614.72	0.004
614.92	0.004
615.11	0.004
615.30	0.004
615.49	0.004
615.69	0.005
615.88	0.005
616.07	0.005
616.26	0.005
616.46	0.005
616.65	0.005
616.84	0.005
617.04	0.006
617.23	0.006
617.42	0.006
617.61	0.006
617.81	0.006
618.00	0.006
618.19	0.006
618.38	0.005
618.58	0.005
618.77	0.005
618.96	0.005
619.15	0.005
619.35	0.005
619.54	0.005
619.73	0.005
619.92	0.005
620.12	0.004
620.31	0.005
620.50	0.005
620.69	0.005
620.89	0.005
621.08	0.005
621.27	0.005
621.46	0.004
621.66	0.004
621.85	0.005
622.04	0.005
622.23	0.005
622.43	0.005
622.62	0.005
622.81	0.005
623.00	0.005
623.19	0.005
623.39	0.005
623.58	0.005
623.77	0.005
623.96	0.005
624.16	0.005
624.35	0.005
624.54	0.005
624.73	0.005
624.92	0.005
625.12	0.005
625.31	0.005
625.50	0.005
625.69	0.005
625.88	0.005
626.08	0.006
626.27	0.006
626.46	0.006
626.65	0.006
626.84	0.006
627.04	0.006
627.23	0.006
627.42	0.006
627.61	0.006
627.80	0.006
628.00	0.006
628.19	0.006
628.38	0.006
628.57	0.006
628.76	0.006
628.96	0.006
629.15	0.006
629.34	0.007
629.53	0.007
629.72	0.007
629.91	0.007
630.11	0.007
630.30	0.007
630.49	0.007
630.68	0.007
630.87	0.007
631.06	0.007
631.26	0.007
631.45	0.007
631.64	0.007
631.83	0.007
632.02	0.007
632.21	0.007
632.41	0.007
632.60	0.007
632.79	0.007
632.98	0.007
633.17	0.007
633.36	0.007
633.55	0.006
633.75	0.006
633.94	0.006
634.13	0.006
634.32	0.006
634.51	0.006
634.70	0.006
634.89	0.006
635.09	0.006
635.28	0.006
635.47	0.006
635.66	0.006
635.85	0.006
636.04	0.006
636.23	0.006
636.43	0.006
636.62	0.006
636.81	0.007
637.00	0.007
637.19	0.007
637.38	0.007
637.57	0.007
637.76	0.007
637.95	0.007
638.15	0.007
638.34	0.007
638.53	0.007
638.72	0.007
638.91	0.007
639.10	0.007
639.29	0.007
639.48	0.008
639.67	0.008
639.87	0.008
640.06	0.008
640.25	0.007
640.44	0.007
640.63	0.007
640.82	0.007
641.01	0.007
641.20	0.007
641.39	0.007
641.58	0.007
641.78	0.007
641.97	0.007
642.16	0.007
642.35	0.007
642.54	0.007
642.73	0.007
642.92	0.007
643.11	0.007
643.30	0.008
643.49	0.007
643.68	0.007
643.87	0.007
644.06	0.007
644.25	0.007
644.45	0.007
644.64	0.008
644.83	0.008
645.02	0.007
645.21	0.007
645.40	0.007
645.59	0.007
645.78	0.007
645.97	0.007
646.16	0.007
646.35	0.007
646.54	0.006
646.73	0.006
646.92	0.006
647.11	0.006
647.30	0.006
647.49	0.006
647.68	0.006
647.88	0.006
648.07	0.006
648.26	0.006
648.45	0.006
648.64	0.006
648.83	0.006
649.02	0.006
649.21	0.006
649.40	0.006
649.59	0.007
649.78	0.007
649.97	0.007
650.16	0.007
650.35	0.007
650.54	0.007
650.73	0.007
650.92	0.008
651.11	0.008
651.30	0.008
651.49	0.008
651.68	0.007
651.87	0.007
652.06	0.007
652.25	0.007
652.44	0.007
652.63	0.005
652.82	0.004
653.01	0.002
653.20	0.002
653.39	0.001
653.58	0.001
653.77	0.000
653.96	0.000
654.15	0.000
654.34	-0.000
654.53	0.000
654.72	0.001
654.91	0.002
655.10	0.002
655.29	0.003
655.48	0.003
655.67	0.003
655.86	0.004
656.05	0.004
656.24	0.004
656.43	0.004
656.62	0.004
656.81	0.004
657.00	0.006
657.19	0.007
657.38	0.008
657.57	0.008
657.76	0.009
657.95	0.010
658.14	0.010
658.33	0.011
658.51	0.011
658.70	0.012
658.89	0.012
659.08	0.011
659.27	0.010
659.46	0.009
659.65	0.009
659.84	0.009
660.03	0.008
660.22	0.008
660.41	0.008
660.60	0.008
660.79	0.008
660.98	0.008
661.17	0.008
661.36	0.008
661.55	0.008
661.74	0.008
661.92	0.008
662.11	0.007
662.30	0.007
662.49	0.007
662.68	0.007
662.87	0.007
663.06	0.007
663.25	0.007
663.44	0.007
663.63	0.007
663.82	0.007
664.01	0.007
664.20	0.007
664.38	0.007
664.57	0.007
664.76	0.007
664.95	0.007
665.14	0.007
665.33	0.007
665.52	0.007
665.71	0.007
665.90	0.007
666.09	0.007
666.28	0.007
666.46	0.008
666.65	0.007
666.84	0.008
667.03	0.007
667.22	0.007
667.41	0.007
667.60	0.007
667.79	0.007
667.98	0.007
668.16	0.007
668.35	0.007
668.54	0.007
668.73	0.007
668.92	0.007
669.11	0.007
669.30	0.007
669.49	0.007
669.67	0.006
669.86	0.006
670.05	0.006
670.24	0.006
670.43	0.006
670.62	0.006
670.81	0.006
671.00	0.006
671.18	0.006
671.37	0.006
671.56	0.006
671.75	0.006
671.94	0.006
672.13	0.006
672.32	0.006
672.50	0.006
672.69	0.007
672.88	0.007
673.07	0.007
673.26	0.007
673.45	0.007
673.63	0.007
673.82	0.008
674.01	0.008
674.20	0.008
674.39	0.008
674.58	0.008
674.76	0.007
674.95	0.007
675.14	0.007
675.33	0.007
675.52	0.007
675.71	0.007
675.89	0.007
676.08	0.007
676.27	0.007
676.46	0.007
676.65	0.007
676.84	0.007
677.02	0.007
677.21	0.007
677.40	0.007
677.59	0.007
677.78	0.007
677.96	0.007
678.15	0.007
678.34	0.007
678.53	0.007
678.72	0.007
678.90	0.007
679.09	0.008
679.28	0.007
679.47	0.007
679.66	0.007
679.84	0.007
680.03	0.007
680.22	0.007
680.41	0.007
680.60	0.007
680.78	0.007
680.97	0.007
681.16	0.007
681.35	0.007
681.53	0.007
681.72	0.007
681.91	0.007
682.10	0.007
682.29	0.007
682.47	0.007
682.66	0.007
682.85	0.007
683.04	0.006
683.22	0.006
683.41	0.006
683.60	0.007
683.79	0.007
683.97	0.007
684.16	0.007
684.35	0.007
684.54	0.007
684.72	0.007
684.91	0.007
685.10	0.007
685.29	0.007
685.47	0.007
685.66	0.007
685.85	0.007
686.04	0.007
686.22	0.007
686.41	0.007
686.60	0.007
686.79	0.007
686.97	0.008
687.16	0.008
687.35	0.008
687.54	0.008
687.72	0.008
687.91	0.008
688.10	0.007
688.29	0.007
688.47	0.007
688.66	0.007
688.85	0.007
689.03	0.007
689.22	0.007
689.41	0.007
689.60	0.007
689.78	0.007
689.97	0.007
690.16	0.007
690.34	0.007
690.53	0.007
690.72	0.007
690.91	0.007
691.09	0.007
691.28	0.007
691.47	0.007
691.65	0.007
691.84	0.007
692.03	0.007
692.21	0.007
692.40	0.007
692.59	0.008
692.77	0.008
692.96	0.008
693.15	0.008
693.34	0.008
693.52	0.008
693.71	0.008
693.90	0.007
694.08	0.007
694.27	0.007
694.46	0.007
694.64	0.007
694.83	0.007
695.02	0.007
695.20	0.007
695.39	0.007
695.58	0.007
695.76	0.007
695.95	0.007
696.14	0.007
696.32	0.007
696.51	0.007
696.70	0.007
696.88	0.007
697.07	0.007
697.26	0.007
697.44	0.007
697.63	0.007
697.81	0.007
698.00	0.007
698.19	0.008
698.37	0.008
698.56	0.008
698.75	0.008
698.93	0.008
699.12	0.008
699.31	0.009
699.49	0.009
699.68	0.008
699.87	0.009
700.05	0.008
700.24	0.008
700.42	0.008
700.61	0.008
700.80	0.008
700.98	0.008
701.17	0.008
701.36	0.008
701.54	0.008
701.73	0.008
701.91	0.008
702.10	0.008
702.29	0.008
702.47	0.008
702.66	0.008
702.84	0.008
703.03	0.008
703.22	0.008
703.40	0.008
703.59	0.008
703.77	0.008
703.96	0.008
704.15	0.008
704.33	0.008
704.52	0.008
704.70	0.008
704.89	0.008
705.08	0.008
705.26	0.008
705.45	0.008
705.63	0.008
705.82	0.007
706.00	0.007
706.19	0.007
706.38	0.007
706.56	0.007
706.75	0.007
706.93	0.007
707.12	0.007
707.30	0.007
707.49	0.007
707.68	0.007
707.86	0.007
708.05	0.007
708.23	0.007
708.42	0.007
708.60	0.007
708.79	0.007
708.98	0.007
709.16	0.007
709.35	0.007
709.53	0.007
709.72	0.007
709.90	0.008
710.09	0.008
710.27	0.008
710.46	0.008
710.64	0.008
710.83	0.008
711.02	0.008
711.20	0.008
711.39	0.008
711.57	0.008
711.76	0.008
711.94	0.008
712.13	0.008
712.31	0.008
712.50	0.008
712.68	0.008
712.87	0.008
713.05	0.008
713.24	0.008
713.42	0.008
713.61	0.008
713.79	0.008
713.98	0.008
714.16	0.008
714.35	0.008
714.54	0.008
714.72	0.008
714.91	0.008
715.09	0.008
715.28	0.008
715.46	0.008
715.65	0.008
715.83	0.008
716.02	0.008
716.20	0.008
716.39	0.008
716.57	0.008
716.76	0.008
716.94	0.008
717.12	0.008
717.31	0.008
717.49	0.007
717.68	0.007
717.86	0.007
718.05	0.007
718.23	0.007
718.42	0.007
718.60	0.007
718.79	0.007
718.97	0.007
719.16	0.007
719.34	0.007
719.53	0.007
719.71	0.007
719.90	0.007
720.08	0.007
720.27	0.007
720.45	0.007
720.63	0.007
720.82	0.008
721.00	0.008
721.19	0.008
721.37	0.008
721.56	0.008
721.74	0.008
721.93	0.008
722.11	0.008
722.30	0.008
722.48	0.008
722.66	0.008
722.85	0.008
723.03	0.008
723.22	0.008
723.40	0.008
723.59	0.008
723.77	0.008
723.95	0.008
724.14	0.008
724.32	0.008
724.51	0.008
724.69	0.008
724.88	0.008
725.06	0.008
725.24	0.008
725.43	0.007
725.61	0.007
725.80	0.007
725.98	0.007
726.16	0.007
726.35	0.007
726.53	0.007
726.72	0.007
726.90	0.007
727.09	0.007
727.27	0.007
727.45	0.007
727.64	0.007
727.82	0.007
728.01	0.007
728.19	0.007
728.37	0.007
728.56	0.007
728.74	0.007
728.92	0.007
729.11	0.007
729.29	0.007
729.48	0.007
729.66	0.007
729.84	0.007
730.03	0.007
730.21	0.006
730.40	0.007
730.58	0.006
730.76	0.007
730.95	0.006
731.13	0.006
731.31	0.006
731.50	0.006
731.68	0.007
731.86	0.007
732.05	0.007
732.23	0.007
732.42	0.006
732.60	0.006
732.78	0.006
732.97	0.006
733.15	0.006
733.33	0.006
733.52	0.005
733.70	0.005
733.88	0.005
734.07	0.005
734.25	0.004
734.43	0.005
734.62	0.005
734.80	0.004
734.98	0.004
735.17	0.004
735.35	0.004
735.53	0.004
735.72	0.005
735.90	0.004
736.08	0.005
736.27	0.004
736.45	0.004
736.63	0.004
736.82	0.004
737.00	0.004
737.18	0.004
737.37	0.004
737.55	0.004
737.73	0.004
737.92	0.004
738.10	0.003
738.28	0.004
738.46	0.004
738.65	0.004
738.83	0.004
739.01	0.004
739.20	0.003
739.38	0.004
739.56	0.004
739.75	0.004
739.93	0.004
740.11	0.004
740.29	0.005
740.48	0.005
740.66	0.005
740.84	0.005
741.03	0.005
741.21	0.005
741.39	0.006
741.57	0.006
741.76	0.006
741.94	0.006
742.12	0.005
742.31	0.005
742.49	0.004
742.67	0.004
742.85	0.004
743.04	0.004
743.22	0.004
743.40	0.003
743.58	0.003
743.77	0.003
743.95	0.003
744.13	0.003
744.31	0.004
744.50	0.004
744.68	0.004
744.86	0.004
745.04	0.005
745.23	0.004
745.41	0.004
745.59	0.005
745.77	0.005
745.96	0.005
746.14	0.005
746.32	0.004
746.50	0.005
746.69	0.004
746.87	0.004
747.05	0.004
747.23	0.004
747.42	0.004
747.60	0.004
747.78	0.004
747.96	0.004
748.14	0.005
748.33	0.005
748.51	0.005
748.69	0.005
748.87	0.005
749.06	0.005
749.24	0.006
749.42	0.005
749.60	0.005
749.78	0.005
749.97	0.005
750.15	0.005
750.33	0.004
750.51	0.004
750.69	0.004
750.88	0.004
751.06	0.004
751.24	0.004
751.42	0.005
751.60	0.005
751.79	0.005
751.97	0.005
752.15	0.005
752.33	0.005
752.51	0.005
752.69	0.005
752.88	0.006
753.06	0.006
753.24	0.005
753.42	0.005
753.60	0.005
753.78	0.005
753.97	0.004
754.15	0.005
754.33	0.005
754.51	0.005
754.69	0.005
754.87	0.004
755.06	0.004
755.24	0.003
755.42	0.004
755.60	0.003
755.78	0.004
755.96	0.004
756.15	0.004
756.33	0.003
756.51	0.003
756.69	0.003
756.87	0.004
757.05	0.003
757.23	0.003
757.42	0.003
757.60	0.003
757.78	0.003
757.96	0.003
758.14	0.004
758.32	0.004
758.50	0.004
758.69	0.005
758.87	0.005
759.05	0.006
759.23	0.007
759.41	0.007
759.59	0.007
759.77	0.007
759.95	0.007
760.13	0.007
760.32	0.007
760.50	0.008
760.68	0.007
760.86	0.007
761.04	0.007
761.22	0.007
761.40	0.007
761.58	0.007
761.76	0.007
761.95	0.007
762.13	0.007
762.31	0.007
762.49	0.007
762.67	0.007
762.85	0.006
763.03	0.006
763.21	0.006
763.39	0.006
763.57	0.006
763.75	0.006
763.94	0.005
764.12	0.005
764.30	0.005
764.48	0.006
764.66	0.006
764.84	0.005
765.02	0.006
765.20	0.005
765.38	0.006
765.56	0.005
765.74	0.005
765.92	0.006
766.10	0.006
766.28	0.006
766.46	0.006
766.65	0.006
766.83	0.006
767.01	0.006
767.19	0.006
767.37	0.006
767.55	0.006
767.73	0.006
767.91	0.006
768.09	0.006
768.27	0.005
768.45	0.006
768.63	0.005
768.81	0.005
768.99	0.006
769.17	0.006
769.35	0.006
769.53	0.006
769.71	0.007
769.89	0.008
770.07	0.008
770.25	0.008
770.43	0.008
770.61	0.009
770.79	0.009
770.97	0.008
771.15	0.008
771.33	0.008
771.51	0.008
771.69	0.008
771.87	0.008
772.05	0.008
772.24	0.008
772.42	0.008
772.60	0.009
772.78	0.009
772.96	0.009
773.14	0.009
773.32	0.009
773.49	0.009
773.67	0.009
773.85	0.009
774.03	0.009
774.21	0.008
774.39	0.008
774.57	0.008
774.75	0.007
774.93	0.007
775.11	0.007
775.29	0.007
775.47	0.006
775.65	0.006
775.83	0.006
776.01	0.006
776.19	0.006
776.37	0.006
776.55	0.006
776.73	0.006
776.91	0.006
777.09	0.006
777.27	0.007
777.45	0.007
777.63	0.007
777.81	0.008
777.99	0.008
778.17	0.007
778.35	0.008
778.53	0.008
778.71	0.008
778.89	0.008
779.07	0.008
779.24	0.007
779.42	0.007
779.60	0.007
779.78	0.007
779.96	0.007
780.14	0.006
780.32	0.006
780.50	0.006
780.68	0.006
780.86	0.006
781.04	0.007
781.22	0.007
781.40	0.007
781.58	0.007
781.75	0.007
781.93	0.008
782.11	0.008
782.29	0.008
782.47	0.009
782.65	0.009
782.83	0.009
783.01	0.009
783.19	0.009
783.37	0.009
783.55	0.009
783.72	0.009
783.90	0.010
784.08	0.010
784.26	0.010
784.44	0.010
784.62	0.009
784.80	0.009
784.98	0.009
785.16	0.008
785.33	0.009
785.51	0.009
785.69	0.009
785.87	0.008
786.05	0.008
786.23	0.008
786.41	0.008
786.59	0.008
786.77	0.008
786.94	0.008
787.12	0.009
787.30	0.008
787.48	0.008
787.66	0.008
787.84	0.009
788.02	0.009
788.19	0.009
788.37	0.008
788.55	0.009
788.73	0.008
788.91	0.009
789.09	0.008
789.27	0.008
789.44	0.008
789.62	0.008
789.80	0.008
789.98	0.008
790.16	0.008
790.34	0.008
790.51	0.008
790.69	0.009
790.87	0.009
791.05	0.008
791.23	0.009
791.41	0.009
791.58	0.009
791.76	0.008
791.94	0.009
792.12	0.009
792.30	0.009
792.48	0.009
792.65	0.009
792.83	0.008
793.01	0.008
793.19	0.008
793.37	0.008
793.54	0.008
793.72	0.008
793.90	0.008
794.08	0.008
794.26	0.008
794.43	0.008
794.61	0.009
794.79	0.009
794.97	0.009
795.15	0.009
795.32	0.009
795.50	0.009
795.68	0.010
795.86	0.009
796.04	0.009
796.21	0.009
796.39	0.009
796.57	0.009
796.75	0.009
796.92	0.009
797.10	0.009
797.28	0.009
797.46	0.009
797.64	0.009
797.81	0.009
797.99	0.009
798.17	0.009
798.35	0.010
798.52	0.009
798.70	0.009
798.88	0.009
799.06	0.009
799.23	0.009
799.41	0.010
799.59	0.010
799.77	0.010
799.94	0.010
800.12	0.010
800.30	0.009
800.48	0.009
800.65	0.009
800.83	0.009
801.01	0.009
801.19	0.009
801.36	0.009
801.54	0.009
801.72	0.009
801.90	0.009
802.07	0.009
802.25	0.010
802.43	0.010
802.60	0.010
802.78	0.010
802.96	0.010
803.14	0.009
803.31	0.009
803.49	0.009
803.67	0.009
803.84	0.009
804.02	0.009
804.20	0.009
804.38	0.010
804.55	0.009
804.73	0.009
804.91	0.009
805.08	0.009
805.26	0.009
805.44	0.009
805.61	0.009
805.79	0.009
805.97	0.009
806.15	0.009
806.32	0.008
806.50	0.008
806.68	0.008
806.85	0.008
807.03	0.009
807.21	0.008
807.38	0.009
807.56	0.009
807.74	0.008
807.91	0.009
808.09	0.009
808.27	0.009
808.44	0.009
808.62	0.009
808.80	0.010
808.97	0.009
809.15	0.009
809.33	0.009
809.50	0.009
809.68	0.009
809.86	0.009
810.03	0.009
810.21	0.009
810.39	0.009
810.56	0.009
810.74	0.009
810.91	0.009
811.09	0.009
811.27	0.009
811.44	0.009
811.62	0.009
811.80	0.009
811.97	0.009
812.15	0.009
812.33	0.009
812.50	0.009
812.68	0.009
812.85	0.009
813.03	0.009
813.21	0.009
813.38	0.009
813.56	0.009
813.74	0.009
813.91	0.009
814.09	0.009
814.26	0.009
814.44	0.009
814.62	0.009
814.79	0.008
814.97	0.009
815.14	0.009
815.32	0.008
815.50	0.008
815.67	0.008
815.85	0.009
816.02	0.009
816.20	0.009
816.38	0.010
816.55	0.010
816.73	0.010
816.90	0.009
817.08	0.009
817.26	0.009
817.43	0.009
817.61	0.009
817.78	0.008
817.96	0.008
818.13	0.008
818.31	0.008
818.49	0.008
818.66	0.008
818.84	0.008
819.01	0.008
819.19	0.008
819.36	0.009
819.54	0.008
819.71	0.009
819.89	0.008
820.07	0.009
820.24	0.009
820.42	0.009
820.59	0.009
820.77	0.009
820.94	0.009
821.12	0.009
821.29	0.009
821.47	0.009
821.64	0.009
821.82	0.010
822.00	0.010
822.17	0.010
822.35	0.010
822.52	0.010
822.70	0.010
822.87	0.010
823.05	0.009
823.22	0.010
823.40	0.009
823.57	0.009
823.75	0.009
823.92	0.009
824.10	0.009
824.27	0.009
824.45	0.009
824.62	0.010
824.80	0.009
824.97	0.010
825.15	0.010
825.32	0.010
825.50	0.010
825.67	0.011
825.85	0.010
826.02	0.011
826.20	0.010
826.37	0.010
826.55	0.010
826.72	0.011
826.90	0.011
827.07	0.011
827.25	0.011
827.42	0.010
827.60	0.010
827.77	0.010
827.95	0.009
828.12	0.010
828.30	0.010
828.47	0.010
828.65	0.010
828.82	0.010
829.00	0.010
829.17	0.010
829.34	0.010
829.52	0.010
829.69	0.011
829.87	0.011
830.04	0.010
830.22	0.010
830.39	0.010
830.57	0.010
830.74	0.010
830.92	0.010
831.09	0.010
831.26	0.011
831.44	0.012
831.61	0.012
831.79	0.013
831.96	0.013
832.14	0.013
832.31	0.013
832.49	0.012
832.66	0.012
832.83	0.014
833.01	0.013
833.18	0.013
833.36	0.012
833.53	0.012
833.70	0.010
833.88	0.010
834.05	0.009
834.23	0.009
834.40	0.010
834.58	0.008
834.75	0.007
834.92	0.007
835.10	0.007
835.27	0.006
835.45	0.004
835.62	0.005
835.79	0.006
835.97	0.007
836.14	0.007
836.32	0.006
836.49	0.007
836.66	0.007
836.84	0.006
837.01	0.005
837.18	0.006
837.36	0.006
837.53	0.005
837.71	0.003
837.88	0.004
838.05	0.004
838.23	0.005
838.40	0.006
838.58	0.006
838.75	0.006
838.92	0.007
839.10	0.007
839.27	0.007
839.44	0.009
839.62	0.009
839.79	0.009
839.96	0.012
840.14	0.011
840.31	0.010
840.48	0.011
840.66	0.013
840.83	0.013
841.01	0.013
841.18	0.012
841.35	0.011
841.53	0.010
841.70	0.010
841.87	0.008
842.05	0.008
842.22	0.009
842.39	0.008
842.57	0.006
842.74	0.006
842.91	0.008
843.09	0.009
843.26	0.009
843.43	0.012
843.60	0.011
843.78	0.013
843.95	0.015
844.12	0.014
844.30	0.014
844.47	0.013
844.64	0.015
844.82	0.012
844.99	0.010
845.16	0.010
845.34	0.009
845.51	0.009
845.68	0.009
845.85	0.008
846.03	0.009
846.20	0.010
846.37	0.011
846.55	0.014
846.72	0.014
846.89	0.015
847.06	0.016
847.24	0.018
847.41	0.016
847.58	0.014
847.76	0.015
847.93	0.013
848.10	0.010
848.27	0.008
848.45	0.007
848.62	0.008
848.79	0.007
848.97	0.007
849.14	0.004
849.31	0.005
849.48	0.006
849.66	0.008
849.83	0.008
850.00	0.011
850.17	0.009
850.35	0.007
850.52	0.005
850.69	0.007
850.86	0.008
851.04	0.010
851.21	0.010
851.38	0.008
851.55	0.005
851.72	0.005
851.90	0.006
852.07	0.007
852.24	0.008
852.41	0.008
852.59	0.007
852.76	0.007
852.93	0.007
853.10	0.009
853.28	0.008
853.45	0.008
853.62	0.006
853.79	0.006
853.96	0.005
854.14	0.005
854.31	0.007
854.48	0.007
854.65	0.005
854.82	0.006
855.00	0.006
855.17	0.009
855.34	0.009
855.51	0.013
855.68	0.012
855.86	0.014
856.03	0.013
856.20	0.011
856.37	0.007
856.54	0.009
856.72	0.008
856.89	0.006
857.06	0.007
857.23	0.009
857.40	0.006
857.57	0.006
857.75	0.007
857.92	0.010
858.09	0.012
858.26	0.016
858.43	0.013
858.60	0.017
858.78	0.017
858.95	0.015
859.12	0.015
859.29	0.013
859.46	0.013
859.63	0.013
859.81	0.013
859.98	0.014
860.15	0.012
860.32	0.017
860.49	0.010
860.66	0.006
860.83	0.004
861.01	0.003
861.18	0.004
861.35	0.004
861.52	0.002
861.69	-0.001
861.86	-0.002
862.03	-0.003
862.21	-0.003
862.38	0.002
862.55	0.007
862.72	0.011
862.89	0.013
863.06	0.014
863.23	0.013
863.40	0.014
863.58	0.011
863.75	0.011
863.92	0.012
864.09	0.011
864.26	0.007
864.43	0.006
864.60	0.007
864.77	0.004
864.94	0.010
865.11	0.012
865.29	0.011
865.46	0.015
865.63	0.018
865.80	0.018
865.97	0.019
866.14	0.022
866.31	0.023
866.48	0.019
866.65	0.022
866.82	0.016
866.99	0.012
867.16	0.011
867.34	0.008
867.51	0.007
867.68	0.010
867.85	0.002
868.02	0.001
868.19	-0.001
868.36	-0.001
868.53	-0.004
868.70	-0.001
868.87	-0.004
869.04	0.000
869.21	0.006
869.38	0.004
869.55	0.002
869.72	0.009
869.89	0.013
870.06	0.013
870.24	0.017
870.41	0.018
870.58	0.018
870.75	0.022
870.92	0.026
871.09	0.021
871.26	0.024
871.43	0.030
871.60	0.031
871.77	0.025
871.94	0.027
872.11	0.026
872.28	0.025
872.45	0.024
872.62	0.025
872.79	0.018
872.96	0.018
873.13	0.014
873.30	0.006
873.47	0.004
873.64	0.005
873.81	0.005
873.98	0.005
874.15	0.010
874.32	0.007
874.49	0.011
874.66	0.011
874.83	0.017
875.00	0.015
875.17	0.025
875.34	0.026
875.51	0.028
875.68	0.028
875.85	0.026
876.02	0.025
876.19	0.028
876.36	0.023
876.53	0.026
876.70	0.023
876.87	0.028
877.04	0.023
877.21	0.023
877.38	0.026
877.55	0.028
877.72	0.029
877.89	0.028
878.06	0.021
878.23	0.019
878.39	0.014
878.56	0.020
878.73	0.019
878.90	0.017
879.07	0.013
879.24	0.011
879.41	0.011
879.58	0.011
879.75	0.008
879.92	0.010
880.09	0.013
880.26	0.017
880.43	0.010
880.60	0.010
880.77	0.018
880.94	0.023
881.11	0.020
881.27	0.022
881.44	0.020
881.61	0.023
881.78	0.026
881.95	0.023
882.12	0.020
882.29	0.019
882.46	0.014
882.63	0.012
882.80	0.013
882.97	0.012
883.14	0.002
883.30	0.004
883.47	0.002
883.64	-0.000
883.81	0.006
883.98	0.010
884.15	0.011
884.32	0.020
884.49	0.014
884.66	0.012
884.82	0.018
884.99	0.023
885.16	0.025
885.33	0.018
885.50	0.023
885.67	0.021
885.84	0.019
886.01	0.013
886.17	0.009
886.34	0.014
886.51	0.026
886.68	0.020
886.85	0.024
887.02	0.022
887.19	0.027
887.36	0.022
887.52	0.020
887.69	0.019
887.86	0.023
888.03	0.022
888.20	0.022
888.37	0.004
888.54	-0.000
888.70	-0.004
888.87	-0.006
889.04	-0.001
889.21	-0.003
889.38	0.012
889.55	0.009
889.71	0.048
889.88	0.009
890.05	-0.055
890.22	0.154
890.39	-0.019
>>>>>End Processed Spectral Data<<<<<
