SpectraSuite Data File
++++++++++++++++++++++++++++++++++++
Date: Mon Jun 15 09:27:33 PDT 2015
User: introlabs
Dark Spectrum Present: Yes
Reference Spectrum Present: Yes
Number of Sampled Component Spectra: 1
Spectrometers: USB4H08886
Integration Time (usec): 44366 (USB4H08886)
Spectra Averaged: 20 (USB4H08886)
Boxcar Smoothing: 5 (USB4H08886)
Correct for Electrical Dark: Yes (USB4H08886)
Strobe/Lamp Enabled: No (USB4H08886)
Correct for Detector Non-linearity: Yes (USB4H08886)
Correct for Stray Light: Yes (USB4H08886)
Number of Pixels in Processed Spectrum: 3648
>>>>>Begin Processed Spectral Data<<<<<
178.14	-0.000
178.36	-0.000
178.57	-0.000
178.79	0.736
179.01	-0.000
179.22	-0.000
179.44	-0.000
179.65	-0.785
179.87	-0.520
180.08	-0.160
180.30	-0.135
180.52	-0.239
180.73	-0.116
180.95	-0.117
181.16	-0.026
181.38	0.011
181.59	0.049
181.81	0.034
182.03	0.083
182.24	0.076
182.46	0.076
182.67	0.074
182.89	0.070
183.10	0.073
183.32	0.076
183.54	0.074
183.75	0.072
183.97	0.075
184.18	0.075
184.40	0.066
184.61	0.069
184.83	0.068
185.04	0.063
185.26	0.066
185.48	0.060
185.69	0.066
185.91	0.066
186.12	0.069
186.34	0.059
186.55	0.056
186.77	0.057
186.98	0.056
187.20	0.043
187.42	0.058
187.63	0.067
187.85	0.076
188.06	0.073
188.28	0.073
188.49	0.067
188.71	0.071
188.92	0.079
189.14	0.067
189.36	0.076
189.57	0.088
189.79	0.080
190.00	0.065
190.22	0.061
190.43	0.062
190.65	0.057
190.86	0.070
191.08	0.068
191.29	0.060
191.51	0.069
191.72	0.057
191.94	0.052
192.16	0.055
192.37	0.058
192.59	0.054
192.80	0.058
193.02	0.070
193.23	0.073
193.45	0.068
193.66	0.073
193.88	0.078
194.09	0.076
194.31	0.077
194.52	0.075
194.74	0.080
194.95	0.090
195.17	0.084
195.38	0.077
195.60	0.060
195.81	0.072
196.03	0.072
196.25	0.070
196.46	0.070
196.68	0.075
196.89	0.070
197.11	0.070
197.32	0.063
197.54	0.058
197.75	0.069
197.97	0.077
198.18	0.067
198.40	0.072
198.61	0.066
198.83	0.067
199.04	0.061
199.26	0.053
199.47	0.045
199.69	0.056
199.90	0.063
200.12	0.049
200.33	0.050
200.55	0.049
200.76	0.042
200.98	0.040
201.19	0.038
201.41	0.038
201.62	0.049
201.84	0.054
202.05	0.053
202.27	0.051
202.48	0.060
202.70	0.058
202.91	0.061
203.13	0.062
203.34	0.062
203.56	0.065
203.77	0.068
203.99	0.054
204.20	0.051
204.42	0.041
204.63	0.046
204.85	0.044
205.06	0.050
205.28	0.060
205.49	0.063
205.71	0.066
205.92	0.069
206.14	0.063
206.35	0.076
206.56	0.084
206.78	0.084
206.99	0.088
207.21	0.091
207.42	0.090
207.64	0.082
207.85	0.080
208.07	0.083
208.28	0.078
208.50	0.088
208.71	0.095
208.93	0.095
209.14	0.099
209.36	0.096
209.57	0.101
209.79	0.098
210.00	0.098
210.22	0.100
210.43	0.093
210.64	0.098
210.86	0.096
211.07	0.088
211.29	0.085
211.50	0.084
211.72	0.073
211.93	0.063
212.15	0.061
212.36	0.064
212.58	0.068
212.79	0.077
213.01	0.068
213.22	0.062
213.43	0.063
213.65	0.068
213.86	0.064
214.08	0.075
214.29	0.077
214.51	0.077
214.72	0.078
214.94	0.068
215.15	0.063
215.36	0.063
215.58	0.066
215.79	0.062
216.01	0.061
216.22	0.068
216.44	0.063
216.65	0.060
216.87	0.066
217.08	0.064
217.29	0.074
217.51	0.075
217.72	0.074
217.94	0.080
218.15	0.085
218.37	0.081
218.58	0.075
218.80	0.080
219.01	0.080
219.22	0.074
219.44	0.073
219.65	0.068
219.87	0.071
220.08	0.070
220.30	0.061
220.51	0.053
220.72	0.051
220.94	0.044
221.15	0.039
221.37	0.035
221.58	0.037
221.79	0.043
222.01	0.035
222.22	0.029
222.44	0.031
222.65	0.029
222.87	0.029
223.08	0.032
223.29	0.034
223.51	0.033
223.72	0.036
223.94	0.032
224.15	0.029
224.36	0.031
224.58	0.027
224.79	0.031
225.01	0.030
225.22	0.031
225.44	0.025
225.65	0.026
225.86	0.028
226.08	0.030
226.29	0.031
226.51	0.031
226.72	0.033
226.93	0.041
227.15	0.036
227.36	0.036
227.58	0.036
227.79	0.042
228.00	0.047
228.22	0.042
228.43	0.036
228.65	0.037
228.86	0.038
229.07	0.037
229.29	0.031
229.50	0.029
229.72	0.032
229.93	0.029
230.14	0.025
230.36	0.020
230.57	0.020
230.78	0.019
231.00	0.016
231.21	0.012
231.43	0.013
231.64	0.015
231.85	0.019
232.07	0.018
232.28	0.019
232.50	0.017
232.71	0.016
232.92	0.016
233.14	0.016
233.35	0.016
233.56	0.017
233.78	0.015
233.99	0.014
234.21	0.014
234.42	0.014
234.63	0.015
234.85	0.016
235.06	0.016
235.27	0.018
235.49	0.019
235.70	0.019
235.91	0.017
236.13	0.018
236.34	0.018
236.56	0.018
236.77	0.017
236.98	0.017
237.20	0.017
237.41	0.018
237.62	0.019
237.84	0.018
238.05	0.019
238.26	0.020
238.48	0.020
238.69	0.022
238.91	0.022
239.12	0.024
239.33	0.024
239.55	0.026
239.76	0.026
239.97	0.027
240.19	0.028
240.40	0.029
240.61	0.030
240.83	0.031
241.04	0.031
241.25	0.031
241.47	0.032
241.68	0.035
241.89	0.036
242.11	0.037
242.32	0.038
242.53	0.038
242.75	0.040
242.96	0.041
243.17	0.042
243.39	0.043
243.60	0.043
243.81	0.043
244.03	0.043
244.24	0.043
244.45	0.044
244.67	0.044
244.88	0.046
245.09	0.046
245.31	0.046
245.52	0.047
245.73	0.048
245.95	0.048
246.16	0.049
246.37	0.050
246.59	0.051
246.80	0.051
247.01	0.051
247.23	0.052
247.44	0.052
247.65	0.052
247.87	0.053
248.08	0.053
248.29	0.053
248.51	0.054
248.72	0.055
248.93	0.055
249.15	0.055
249.36	0.056
249.57	0.056
249.78	0.056
250.00	0.057
250.21	0.057
250.42	0.058
250.64	0.059
250.85	0.059
251.06	0.059
251.28	0.060
251.49	0.060
251.70	0.061
251.92	0.062
252.13	0.062
252.34	0.063
252.55	0.063
252.77	0.062
252.98	0.062
253.19	0.062
253.41	0.063
253.62	0.063
253.83	0.064
254.05	0.064
254.26	0.064
254.47	0.064
254.68	0.064
254.90	0.064
255.11	0.065
255.32	0.066
255.54	0.066
255.75	0.066
255.96	0.066
256.17	0.066
256.39	0.066
256.60	0.066
256.81	0.066
257.03	0.066
257.24	0.067
257.45	0.067
257.66	0.066
257.88	0.066
258.09	0.066
258.30	0.066
258.51	0.066
258.73	0.066
258.94	0.066
259.15	0.066
259.37	0.066
259.58	0.066
259.79	0.066
260.00	0.067
260.22	0.067
260.43	0.067
260.64	0.066
260.85	0.066
261.07	0.066
261.28	0.066
261.49	0.066
261.71	0.066
261.92	0.066
262.13	0.066
262.34	0.066
262.56	0.066
262.77	0.066
262.98	0.066
263.19	0.065
263.41	0.065
263.62	0.065
263.83	0.065
264.04	0.064
264.26	0.064
264.47	0.064
264.68	0.065
264.89	0.065
265.11	0.064
265.32	0.065
265.53	0.065
265.74	0.064
265.96	0.064
266.17	0.064
266.38	0.064
266.59	0.064
266.81	0.064
267.02	0.064
267.23	0.063
267.44	0.063
267.65	0.062
267.87	0.062
268.08	0.062
268.29	0.062
268.50	0.062
268.72	0.062
268.93	0.061
269.14	0.061
269.35	0.060
269.57	0.060
269.78	0.060
269.99	0.060
270.20	0.060
270.41	0.060
270.63	0.059
270.84	0.059
271.05	0.058
271.26	0.058
271.48	0.058
271.69	0.058
271.90	0.057
272.11	0.057
272.32	0.057
272.54	0.057
272.75	0.057
272.96	0.057
273.17	0.057
273.39	0.057
273.60	0.057
273.81	0.057
274.02	0.056
274.23	0.057
274.45	0.057
274.66	0.057
274.87	0.056
275.08	0.056
275.29	0.056
275.51	0.056
275.72	0.055
275.93	0.055
276.14	0.056
276.35	0.056
276.57	0.056
276.78	0.055
276.99	0.055
277.20	0.056
277.41	0.056
277.63	0.056
277.84	0.056
278.05	0.056
278.26	0.056
278.47	0.056
278.69	0.057
278.90	0.057
279.11	0.057
279.32	0.058
279.53	0.057
279.74	0.058
279.96	0.058
280.17	0.058
280.38	0.058
280.59	0.058
280.80	0.058
281.02	0.059
281.23	0.059
281.44	0.059
281.65	0.059
281.86	0.059
282.07	0.059
282.29	0.059
282.50	0.059
282.71	0.060
282.92	0.060
283.13	0.060
283.35	0.060
283.56	0.060
283.77	0.061
283.98	0.061
284.19	0.061
284.40	0.062
284.62	0.062
284.83	0.063
285.04	0.063
285.25	0.064
285.46	0.064
285.67	0.065
285.88	0.065
286.10	0.066
286.31	0.067
286.52	0.067
286.73	0.068
286.94	0.068
287.15	0.069
287.37	0.070
287.58	0.070
287.79	0.071
288.00	0.072
288.21	0.072
288.42	0.073
288.63	0.073
288.85	0.073
289.06	0.074
289.27	0.074
289.48	0.075
289.69	0.075
289.90	0.076
290.11	0.076
290.33	0.077
290.54	0.077
290.75	0.078
290.96	0.078
291.17	0.078
291.38	0.079
291.59	0.079
291.81	0.080
292.02	0.080
292.23	0.080
292.44	0.080
292.65	0.080
292.86	0.081
293.07	0.081
293.28	0.081
293.50	0.081
293.71	0.081
293.92	0.081
294.13	0.082
294.34	0.082
294.55	0.082
294.76	0.082
294.97	0.082
295.19	0.082
295.40	0.082
295.61	0.082
295.82	0.082
296.03	0.082
296.24	0.083
296.45	0.083
296.66	0.083
296.87	0.082
297.09	0.082
297.30	0.083
297.51	0.083
297.72	0.083
297.93	0.083
298.14	0.083
298.35	0.083
298.56	0.083
298.77	0.083
298.99	0.083
299.20	0.084
299.41	0.084
299.62	0.084
299.83	0.084
300.04	0.084
300.25	0.084
300.46	0.084
300.67	0.084
300.88	0.084
301.10	0.084
301.31	0.084
301.52	0.084
301.73	0.084
301.94	0.084
302.15	0.083
302.36	0.083
302.57	0.083
302.78	0.083
302.99	0.083
303.20	0.083
303.41	0.083
303.63	0.083
303.84	0.083
304.05	0.083
304.26	0.083
304.47	0.083
304.68	0.083
304.89	0.084
305.10	0.084
305.31	0.084
305.52	0.084
305.73	0.084
305.94	0.084
306.15	0.084
306.37	0.084
306.58	0.084
306.79	0.084
307.00	0.084
307.21	0.084
307.42	0.084
307.63	0.084
307.84	0.084
308.05	0.084
308.26	0.084
308.47	0.084
308.68	0.084
308.89	0.084
309.10	0.084
309.31	0.084
309.52	0.084
309.73	0.084
309.95	0.084
310.16	0.084
310.37	0.084
310.58	0.084
310.79	0.084
311.00	0.084
311.21	0.084
311.42	0.084
311.63	0.084
311.84	0.084
312.05	0.084
312.26	0.084
312.47	0.084
312.68	0.084
312.89	0.084
313.10	0.084
313.31	0.084
313.52	0.084
313.73	0.084
313.94	0.084
314.15	0.084
314.36	0.084
314.57	0.084
314.78	0.084
314.99	0.084
315.21	0.084
315.42	0.084
315.63	0.084
315.84	0.084
316.05	0.084
316.26	0.084
316.47	0.084
316.68	0.084
316.89	0.084
317.10	0.084
317.31	0.084
317.52	0.084
317.73	0.084
317.94	0.084
318.15	0.084
318.36	0.084
318.57	0.084
318.78	0.084
318.99	0.084
319.20	0.084
319.41	0.084
319.62	0.084
319.83	0.084
320.04	0.084
320.25	0.084
320.46	0.084
320.67	0.084
320.88	0.084
321.09	0.084
321.30	0.084
321.51	0.084
321.72	0.084
321.93	0.083
322.14	0.084
322.35	0.084
322.56	0.084
322.77	0.084
322.98	0.084
323.19	0.084
323.40	0.084
323.61	0.084
323.82	0.084
324.03	0.084
324.24	0.084
324.45	0.084
324.66	0.084
324.87	0.084
325.08	0.084
325.29	0.084
325.50	0.084
325.71	0.084
325.92	0.084
326.13	0.084
326.34	0.084
326.55	0.084
326.76	0.084
326.97	0.084
327.18	0.084
327.39	0.084
327.60	0.084
327.80	0.084
328.01	0.083
328.22	0.083
328.43	0.084
328.64	0.083
328.85	0.083
329.06	0.083
329.27	0.083
329.48	0.083
329.69	0.083
329.90	0.083
330.11	0.083
330.32	0.083
330.53	0.083
330.74	0.083
330.95	0.083
331.16	0.083
331.37	0.083
331.58	0.083
331.79	0.083
332.00	0.083
332.21	0.083
332.42	0.083
332.63	0.083
332.83	0.083
333.04	0.083
333.25	0.083
333.46	0.083
333.67	0.082
333.88	0.082
334.09	0.082
334.30	0.082
334.51	0.082
334.72	0.082
334.93	0.082
335.14	0.082
335.35	0.082
335.56	0.082
335.77	0.082
335.98	0.082
336.18	0.082
336.39	0.082
336.60	0.082
336.81	0.081
337.02	0.081
337.23	0.081
337.44	0.081
337.65	0.081
337.86	0.081
338.07	0.081
338.28	0.081
338.49	0.081
338.70	0.081
338.91	0.081
339.11	0.081
339.32	0.080
339.53	0.080
339.74	0.080
339.95	0.080
340.16	0.080
340.37	0.080
340.58	0.080
340.79	0.080
341.00	0.080
341.21	0.080
341.41	0.080
341.62	0.080
341.83	0.079
342.04	0.079
342.25	0.079
342.46	0.079
342.67	0.079
342.88	0.079
343.09	0.079
343.30	0.079
343.50	0.079
343.71	0.079
343.92	0.079
344.13	0.079
344.34	0.079
344.55	0.079
344.76	0.078
344.97	0.078
345.18	0.078
345.38	0.078
345.59	0.078
345.80	0.078
346.01	0.078
346.22	0.078
346.43	0.078
346.64	0.078
346.85	0.078
347.06	0.078
347.26	0.078
347.47	0.078
347.68	0.078
347.89	0.078
348.10	0.078
348.31	0.077
348.52	0.077
348.73	0.077
348.93	0.077
349.14	0.077
349.35	0.077
349.56	0.077
349.77	0.077
349.98	0.077
350.19	0.077
350.39	0.077
350.60	0.077
350.81	0.077
351.02	0.077
351.23	0.077
351.44	0.077
351.65	0.077
351.86	0.077
352.06	0.076
352.27	0.076
352.48	0.076
352.69	0.076
352.90	0.076
353.11	0.076
353.31	0.077
353.52	0.076
353.73	0.076
353.94	0.076
354.15	0.076
354.36	0.076
354.57	0.076
354.77	0.076
354.98	0.076
355.19	0.076
355.40	0.076
355.61	0.076
355.82	0.076
356.02	0.076
356.23	0.076
356.44	0.076
356.65	0.076
356.86	0.076
357.07	0.076
357.27	0.076
357.48	0.076
357.69	0.075
357.90	0.075
358.11	0.075
358.32	0.075
358.52	0.075
358.73	0.075
358.94	0.075
359.15	0.075
359.36	0.075
359.56	0.075
359.77	0.075
359.98	0.075
360.19	0.075
360.40	0.075
360.61	0.075
360.81	0.075
361.02	0.075
361.23	0.075
361.44	0.075
361.65	0.075
361.85	0.075
362.06	0.075
362.27	0.075
362.48	0.075
362.69	0.074
362.89	0.074
363.10	0.074
363.31	0.074
363.52	0.074
363.73	0.074
363.93	0.074
364.14	0.074
364.35	0.074
364.56	0.074
364.77	0.074
364.97	0.074
365.18	0.074
365.39	0.074
365.60	0.074
365.81	0.074
366.01	0.074
366.22	0.074
366.43	0.074
366.64	0.074
366.84	0.074
367.05	0.074
367.26	0.074
367.47	0.074
367.68	0.074
367.88	0.074
368.09	0.074
368.30	0.074
368.51	0.074
368.71	0.074
368.92	0.074
369.13	0.074
369.34	0.074
369.55	0.074
369.75	0.074
369.96	0.074
370.17	0.074
370.38	0.074
370.58	0.073
370.79	0.074
371.00	0.073
371.21	0.073
371.41	0.073
371.62	0.073
371.83	0.073
372.04	0.073
372.24	0.073
372.45	0.073
372.66	0.073
372.87	0.073
373.07	0.073
373.28	0.073
373.49	0.073
373.70	0.073
373.90	0.073
374.11	0.073
374.32	0.073
374.53	0.073
374.73	0.073
374.94	0.073
375.15	0.073
375.36	0.073
375.56	0.073
375.77	0.073
375.98	0.073
376.19	0.072
376.39	0.073
376.60	0.072
376.81	0.072
377.02	0.072
377.22	0.072
377.43	0.072
377.64	0.072
377.84	0.072
378.05	0.072
378.26	0.072
378.47	0.072
378.67	0.072
378.88	0.072
379.09	0.072
379.30	0.072
379.50	0.072
379.71	0.072
379.92	0.072
380.12	0.072
380.33	0.072
380.54	0.072
380.75	0.072
380.95	0.072
381.16	0.072
381.37	0.072
381.57	0.072
381.78	0.072
381.99	0.072
382.20	0.072
382.40	0.072
382.61	0.072
382.82	0.072
383.02	0.072
383.23	0.072
383.44	0.072
383.64	0.072
383.85	0.072
384.06	0.072
384.27	0.072
384.47	0.072
384.68	0.071
384.89	0.071
385.09	0.071
385.30	0.071
385.51	0.071
385.71	0.071
385.92	0.071
386.13	0.071
386.33	0.071
386.54	0.071
386.75	0.071
386.95	0.071
387.16	0.071
387.37	0.071
387.58	0.071
387.78	0.071
387.99	0.071
388.20	0.071
388.40	0.071
388.61	0.071
388.82	0.071
389.02	0.071
389.23	0.071
389.44	0.071
389.64	0.071
389.85	0.071
390.06	0.071
390.26	0.070
390.47	0.070
390.68	0.070
390.88	0.070
391.09	0.070
391.30	0.070
391.50	0.070
391.71	0.070
391.92	0.070
392.12	0.070
392.33	0.070
392.53	0.070
392.74	0.070
392.95	0.070
393.15	0.070
393.36	0.070
393.57	0.070
393.77	0.070
393.98	0.070
394.19	0.070
394.39	0.070
394.60	0.070
394.81	0.070
395.01	0.070
395.22	0.070
395.43	0.070
395.63	0.070
395.84	0.070
396.04	0.070
396.25	0.070
396.46	0.069
396.66	0.069
396.87	0.069
397.08	0.069
397.28	0.069
397.49	0.069
397.69	0.069
397.90	0.069
398.11	0.069
398.31	0.069
398.52	0.069
398.73	0.069
398.93	0.069
399.14	0.069
399.34	0.069
399.55	0.069
399.76	0.069
399.96	0.069
400.17	0.069
400.37	0.069
400.58	0.069
400.79	0.069
400.99	0.069
401.20	0.069
401.41	0.069
401.61	0.069
401.82	0.069
402.02	0.069
402.23	0.069
402.44	0.069
402.64	0.069
402.85	0.069
403.05	0.069
403.26	0.069
403.47	0.069
403.67	0.069
403.88	0.069
404.08	0.069
404.29	0.068
404.50	0.068
404.70	0.068
404.91	0.068
405.11	0.068
405.32	0.068
405.52	0.068
405.73	0.068
405.94	0.068
406.14	0.068
406.35	0.068
406.55	0.068
406.76	0.068
406.97	0.068
407.17	0.068
407.38	0.068
407.58	0.068
407.79	0.068
407.99	0.068
408.20	0.068
408.41	0.068
408.61	0.068
408.82	0.068
409.02	0.068
409.23	0.068
409.43	0.068
409.64	0.068
409.84	0.068
410.05	0.068
410.26	0.068
410.46	0.068
410.67	0.068
410.87	0.067
411.08	0.068
411.28	0.068
411.49	0.068
411.69	0.068
411.90	0.068
412.11	0.067
412.31	0.067
412.52	0.067
412.72	0.067
412.93	0.067
413.13	0.067
413.34	0.067
413.54	0.067
413.75	0.067
413.95	0.067
414.16	0.067
414.37	0.067
414.57	0.067
414.78	0.067
414.98	0.067
415.19	0.067
415.39	0.067
415.60	0.067
415.80	0.067
416.01	0.067
416.21	0.067
416.42	0.067
416.62	0.067
416.83	0.067
417.03	0.066
417.24	0.066
417.44	0.066
417.65	0.066
417.86	0.066
418.06	0.066
418.27	0.066
418.47	0.066
418.68	0.066
418.88	0.066
419.09	0.066
419.29	0.066
419.50	0.066
419.70	0.066
419.91	0.066
420.11	0.066
420.32	0.066
420.52	0.066
420.73	0.066
420.93	0.066
421.14	0.066
421.34	0.066
421.55	0.066
421.75	0.066
421.96	0.066
422.16	0.066
422.37	0.066
422.57	0.066
422.78	0.066
422.98	0.066
423.19	0.066
423.39	0.066
423.60	0.066
423.80	0.066
424.01	0.066
424.21	0.066
424.42	0.066
424.62	0.066
424.83	0.066
425.03	0.066
425.23	0.066
425.44	0.066
425.64	0.066
425.85	0.066
426.05	0.066
426.26	0.066
426.46	0.066
426.67	0.065
426.87	0.065
427.08	0.065
427.28	0.065
427.49	0.065
427.69	0.065
427.90	0.065
428.10	0.065
428.31	0.065
428.51	0.065
428.71	0.065
428.92	0.065
429.12	0.065
429.33	0.065
429.53	0.065
429.74	0.065
429.94	0.065
430.15	0.065
430.35	0.065
430.56	0.065
430.76	0.065
430.96	0.065
431.17	0.066
431.37	0.065
431.58	0.066
431.78	0.066
431.99	0.066
432.19	0.066
432.40	0.066
432.60	0.066
432.80	0.066
433.01	0.066
433.21	0.066
433.42	0.065
433.62	0.066
433.83	0.065
434.03	0.065
434.23	0.065
434.44	0.065
434.64	0.065
434.85	0.065
435.05	0.065
435.26	0.065
435.46	0.065
435.66	0.065
435.87	0.065
436.07	0.064
436.28	0.064
436.48	0.064
436.69	0.064
436.89	0.064
437.09	0.064
437.30	0.064
437.50	0.064
437.71	0.064
437.91	0.064
438.11	0.064
438.32	0.064
438.52	0.064
438.73	0.064
438.93	0.064
439.13	0.064
439.34	0.064
439.54	0.064
439.75	0.064
439.95	0.064
440.15	0.064
440.36	0.064
440.56	0.064
440.77	0.064
440.97	0.064
441.17	0.064
441.38	0.064
441.58	0.064
441.79	0.064
441.99	0.064
442.19	0.064
442.40	0.063
442.60	0.063
442.81	0.063
443.01	0.063
443.21	0.063
443.42	0.063
443.62	0.063
443.82	0.063
444.03	0.063
444.23	0.063
444.44	0.063
444.64	0.063
444.84	0.063
445.05	0.063
445.25	0.063
445.45	0.063
445.66	0.063
445.86	0.063
446.06	0.063
446.27	0.063
446.47	0.063
446.68	0.063
446.88	0.063
447.08	0.063
447.29	0.063
447.49	0.063
447.69	0.063
447.90	0.063
448.10	0.063
448.30	0.063
448.51	0.063
448.71	0.063
448.91	0.063
449.12	0.063
449.32	0.063
449.52	0.063
449.73	0.064
449.93	0.064
450.14	0.064
450.34	0.063
450.54	0.063
450.75	0.063
450.95	0.063
451.15	0.063
451.36	0.063
451.56	0.063
451.76	0.063
451.97	0.063
452.17	0.063
452.37	0.063
452.58	0.063
452.78	0.063
452.98	0.063
453.19	0.063
453.39	0.063
453.59	0.063
453.79	0.063
454.00	0.063
454.20	0.063
454.40	0.063
454.61	0.062
454.81	0.062
455.01	0.062
455.22	0.062
455.42	0.062
455.62	0.062
455.83	0.062
456.03	0.062
456.23	0.062
456.44	0.062
456.64	0.062
456.84	0.063
457.04	0.062
457.25	0.062
457.45	0.062
457.65	0.062
457.86	0.062
458.06	0.062
458.26	0.062
458.47	0.062
458.67	0.062
458.87	0.062
459.07	0.062
459.28	0.062
459.48	0.062
459.68	0.062
459.89	0.062
460.09	0.062
460.29	0.062
460.49	0.062
460.70	0.062
460.90	0.062
461.10	0.062
461.31	0.062
461.51	0.062
461.71	0.062
461.91	0.062
462.12	0.062
462.32	0.062
462.52	0.062
462.72	0.062
462.93	0.062
463.13	0.062
463.33	0.061
463.53	0.061
463.74	0.061
463.94	0.061
464.14	0.061
464.35	0.061
464.55	0.061
464.75	0.061
464.95	0.061
465.16	0.061
465.36	0.061
465.56	0.062
465.76	0.062
465.97	0.062
466.17	0.061
466.37	0.061
466.57	0.062
466.78	0.062
466.98	0.062
467.18	0.062
467.38	0.062
467.59	0.062
467.79	0.062
467.99	0.062
468.19	0.062
468.39	0.062
468.60	0.062
468.80	0.061
469.00	0.061
469.20	0.061
469.41	0.061
469.61	0.061
469.81	0.061
470.01	0.061
470.22	0.061
470.42	0.061
470.62	0.061
470.82	0.061
471.02	0.061
471.23	0.061
471.43	0.061
471.63	0.061
471.83	0.061
472.04	0.061
472.24	0.061
472.44	0.061
472.64	0.061
472.84	0.061
473.05	0.061
473.25	0.060
473.45	0.060
473.65	0.060
473.85	0.060
474.06	0.060
474.26	0.060
474.46	0.060
474.66	0.060
474.86	0.060
475.07	0.060
475.27	0.060
475.47	0.061
475.67	0.061
475.87	0.061
476.08	0.061
476.28	0.061
476.48	0.061
476.68	0.061
476.88	0.061
477.09	0.061
477.29	0.061
477.49	0.061
477.69	0.061
477.89	0.061
478.09	0.060
478.30	0.060
478.50	0.060
478.70	0.060
478.90	0.060
479.10	0.060
479.31	0.060
479.51	0.060
479.71	0.060
479.91	0.060
480.11	0.060
480.31	0.060
480.52	0.060
480.72	0.060
480.92	0.060
481.12	0.060
481.32	0.060
481.52	0.060
481.72	0.060
481.93	0.060
482.13	0.060
482.33	0.059
482.53	0.059
482.73	0.059
482.93	0.059
483.14	0.059
483.34	0.059
483.54	0.059
483.74	0.059
483.94	0.059
484.14	0.059
484.34	0.059
484.55	0.059
484.75	0.059
484.95	0.059
485.15	0.059
485.35	0.059
485.55	0.059
485.75	0.059
485.96	0.059
486.16	0.059
486.36	0.059
486.56	0.059
486.76	0.059
486.96	0.060
487.16	0.060
487.36	0.060
487.57	0.060
487.77	0.060
487.97	0.060
488.17	0.060
488.37	0.060
488.57	0.060
488.77	0.060
488.97	0.060
489.18	0.060
489.38	0.060
489.58	0.060
489.78	0.060
489.98	0.060
490.18	0.060
490.38	0.060
490.58	0.060
490.78	0.060
490.98	0.060
491.19	0.059
491.39	0.059
491.59	0.059
491.79	0.059
491.99	0.059
492.19	0.059
492.39	0.059
492.59	0.059
492.79	0.059
492.99	0.059
493.20	0.059
493.40	0.059
493.60	0.059
493.80	0.059
494.00	0.059
494.20	0.059
494.40	0.059
494.60	0.059
494.80	0.059
495.00	0.059
495.20	0.059
495.40	0.059
495.61	0.059
495.81	0.059
496.01	0.059
496.21	0.059
496.41	0.060
496.61	0.060
496.81	0.060
497.01	0.060
497.21	0.060
497.41	0.060
497.61	0.060
497.81	0.060
498.01	0.060
498.21	0.060
498.41	0.060
498.61	0.060
498.82	0.060
499.02	0.059
499.22	0.059
499.42	0.059
499.62	0.059
499.82	0.059
500.02	0.059
500.22	0.059
500.42	0.059
500.62	0.059
500.82	0.059
501.02	0.059
501.22	0.059
501.42	0.059
501.62	0.059
501.82	0.059
502.02	0.059
502.22	0.059
502.42	0.059
502.62	0.059
502.82	0.059
503.02	0.059
503.22	0.059
503.42	0.059
503.63	0.059
503.83	0.059
504.03	0.059
504.23	0.059
504.43	0.059
504.63	0.059
504.83	0.059
505.03	0.059
505.23	0.059
505.43	0.059
505.63	0.059
505.83	0.059
506.03	0.059
506.23	0.059
506.43	0.059
506.63	0.059
506.83	0.059
507.03	0.059
507.23	0.059
507.43	0.059
507.63	0.059
507.83	0.059
508.03	0.059
508.23	0.059
508.43	0.059
508.63	0.059
508.83	0.059
509.03	0.059
509.23	0.059
509.43	0.059
509.63	0.059
509.83	0.059
510.03	0.059
510.23	0.059
510.43	0.059
510.63	0.059
510.83	0.059
511.03	0.059
511.23	0.059
511.43	0.059
511.63	0.059
511.83	0.059
512.03	0.059
512.22	0.059
512.42	0.059
512.62	0.059
512.82	0.059
513.02	0.059
513.22	0.059
513.42	0.059
513.62	0.059
513.82	0.059
514.02	0.059
514.22	0.059
514.42	0.059
514.62	0.059
514.82	0.059
515.02	0.059
515.22	0.059
515.42	0.059
515.62	0.059
515.82	0.059
516.02	0.059
516.22	0.059
516.42	0.059
516.62	0.059
516.82	0.059
517.01	0.059
517.21	0.059
517.41	0.059
517.61	0.059
517.81	0.059
518.01	0.059
518.21	0.059
518.41	0.059
518.61	0.059
518.81	0.059
519.01	0.059
519.21	0.059
519.41	0.059
519.61	0.059
519.81	0.059
520.00	0.059
520.20	0.059
520.40	0.059
520.60	0.059
520.80	0.059
521.00	0.059
521.20	0.059
521.40	0.059
521.60	0.059
521.80	0.059
522.00	0.059
522.20	0.059
522.39	0.059
522.59	0.059
522.79	0.059
522.99	0.059
523.19	0.059
523.39	0.059
523.59	0.059
523.79	0.059
523.99	0.059
524.19	0.059
524.38	0.059
524.58	0.059
524.78	0.059
524.98	0.059
525.18	0.059
525.38	0.059
525.58	0.059
525.78	0.059
525.98	0.058
526.18	0.059
526.37	0.059
526.57	0.058
526.77	0.058
526.97	0.058
527.17	0.058
527.37	0.058
527.57	0.058
527.77	0.058
527.96	0.058
528.16	0.058
528.36	0.058
528.56	0.058
528.76	0.058
528.96	0.058
529.16	0.058
529.36	0.058
529.55	0.058
529.75	0.058
529.95	0.058
530.15	0.058
530.35	0.058
530.55	0.058
530.75	0.058
530.94	0.059
531.14	0.058
531.34	0.059
531.54	0.058
531.74	0.058
531.94	0.058
532.13	0.058
532.33	0.058
532.53	0.058
532.73	0.058
532.93	0.058
533.13	0.058
533.33	0.058
533.52	0.058
533.72	0.058
533.92	0.058
534.12	0.058
534.32	0.058
534.52	0.058
534.71	0.058
534.91	0.058
535.11	0.058
535.31	0.058
535.51	0.058
535.71	0.058
535.90	0.058
536.10	0.058
536.30	0.058
536.50	0.058
536.70	0.058
536.89	0.058
537.09	0.058
537.29	0.058
537.49	0.058
537.69	0.058
537.89	0.058
538.08	0.058
538.28	0.058
538.48	0.058
538.68	0.058
538.88	0.058
539.07	0.058
539.27	0.058
539.47	0.058
539.67	0.058
539.87	0.058
540.06	0.058
540.26	0.058
540.46	0.058
540.66	0.058
540.86	0.058
541.05	0.058
541.25	0.058
541.45	0.058
541.65	0.058
541.84	0.058
542.04	0.058
542.24	0.058
542.44	0.058
542.64	0.057
542.83	0.057
543.03	0.057
543.23	0.057
543.43	0.057
543.62	0.057
543.82	0.057
544.02	0.057
544.22	0.057
544.42	0.057
544.61	0.057
544.81	0.057
545.01	0.057
545.21	0.057
545.40	0.057
545.60	0.057
545.80	0.057
546.00	0.057
546.19	0.057
546.39	0.058
546.59	0.058
546.79	0.058
546.98	0.058
547.18	0.058
547.38	0.058
547.58	0.058
547.77	0.058
547.97	0.058
548.17	0.058
548.37	0.058
548.56	0.058
548.76	0.058
548.96	0.058
549.16	0.058
549.35	0.058
549.55	0.058
549.75	0.058
549.95	0.058
550.14	0.058
550.34	0.058
550.54	0.058
550.73	0.058
550.93	0.058
551.13	0.057
551.33	0.057
551.52	0.057
551.72	0.057
551.92	0.057
552.12	0.057
552.31	0.057
552.51	0.057
552.71	0.057
552.90	0.057
553.10	0.057
553.30	0.057
553.50	0.057
553.69	0.057
553.89	0.057
554.09	0.057
554.28	0.057
554.48	0.058
554.68	0.058
554.87	0.058
555.07	0.058
555.27	0.058
555.47	0.058
555.66	0.058
555.86	0.058
556.06	0.058
556.25	0.058
556.45	0.058
556.65	0.058
556.84	0.058
557.04	0.058
557.24	0.058
557.43	0.058
557.63	0.058
557.83	0.058
558.02	0.057
558.22	0.057
558.42	0.057
558.61	0.057
558.81	0.057
559.01	0.056
559.21	0.056
559.40	0.056
559.60	0.056
559.80	0.056
559.99	0.056
560.19	0.056
560.39	0.056
560.58	0.056
560.78	0.056
560.97	0.056
561.17	0.056
561.37	0.056
561.56	0.056
561.76	0.057
561.96	0.057
562.15	0.057
562.35	0.057
562.55	0.057
562.74	0.057
562.94	0.057
563.14	0.057
563.33	0.057
563.53	0.057
563.73	0.057
563.92	0.057
564.12	0.057
564.31	0.057
564.51	0.057
564.71	0.057
564.90	0.057
565.10	0.057
565.30	0.057
565.49	0.057
565.69	0.057
565.89	0.057
566.08	0.056
566.28	0.056
566.47	0.056
566.67	0.056
566.87	0.056
567.06	0.056
567.26	0.056
567.46	0.056
567.65	0.056
567.85	0.055
568.04	0.055
568.24	0.055
568.44	0.055
568.63	0.055
568.83	0.055
569.02	0.055
569.22	0.055
569.42	0.055
569.61	0.055
569.81	0.055
570.00	0.055
570.20	0.055
570.40	0.055
570.59	0.055
570.79	0.055
570.98	0.055
571.18	0.055
571.38	0.054
571.57	0.054
571.77	0.054
571.96	0.055
572.16	0.055
572.35	0.055
572.55	0.055
572.75	0.055
572.94	0.055
573.14	0.056
573.33	0.056
573.53	0.056
573.73	0.056
573.92	0.056
574.12	0.056
574.31	0.056
574.51	0.056
574.70	0.055
574.90	0.054
575.09	0.052
575.29	0.049
575.49	0.047
575.68	0.045
575.88	0.042
576.07	0.040
576.27	0.038
576.46	0.035
576.66	0.033
576.86	0.031
577.05	0.029
577.25	0.029
577.44	0.028
577.64	0.027
577.83	0.027
578.03	0.026
578.22	0.024
578.42	0.021
578.61	0.018
578.81	0.016
579.00	0.013
579.20	0.011
579.40	0.009
579.59	0.006
579.79	0.004
579.98	0.002
580.18	0.001
580.37	0.000
580.57	0.001
580.76	0.001
580.96	0.002
581.15	0.003
581.35	0.004
581.54	0.006
581.74	0.006
581.93	0.007
582.13	0.007
582.32	0.007
582.52	0.008
582.71	0.009
582.91	0.011
583.10	0.012
583.30	0.014
583.49	0.017
583.69	0.020
583.88	0.024
584.08	0.027
584.27	0.031
584.47	0.035
584.66	0.038
584.86	0.040
585.05	0.041
585.25	0.042
585.44	0.042
585.64	0.042
585.83	0.041
586.03	0.041
586.22	0.042
586.42	0.043
586.61	0.044
586.81	0.045
587.00	0.047
587.20	0.048
587.39	0.050
587.59	0.052
587.78	0.054
587.98	0.055
588.17	0.057
588.37	0.057
588.56	0.057
588.76	0.057
588.95	0.056
589.15	0.056
589.34	0.056
589.54	0.056
589.73	0.055
589.92	0.055
590.12	0.055
590.31	0.055
590.51	0.054
590.70	0.054
590.90	0.054
591.09	0.054
591.29	0.054
591.48	0.054
591.68	0.054
591.87	0.054
592.06	0.054
592.26	0.054
592.45	0.054
592.65	0.054
592.84	0.054
593.04	0.055
593.23	0.055
593.43	0.055
593.62	0.055
593.81	0.055
594.01	0.055
594.20	0.056
594.40	0.056
594.59	0.056
594.79	0.056
594.98	0.056
595.17	0.056
595.37	0.056
595.56	0.056
595.76	0.055
595.95	0.055
596.14	0.055
596.34	0.054
596.53	0.054
596.73	0.054
596.92	0.053
597.12	0.053
597.31	0.053
597.50	0.053
597.70	0.053
597.89	0.053
598.09	0.053
598.28	0.053
598.47	0.053
598.67	0.053
598.86	0.053
599.06	0.054
599.25	0.054
599.44	0.054
599.64	0.054
599.83	0.055
600.03	0.055
600.22	0.055
600.41	0.055
600.61	0.055
600.80	0.056
601.00	0.056
601.19	0.056
601.38	0.056
601.58	0.056
601.77	0.056
601.96	0.056
602.16	0.056
602.35	0.055
602.55	0.055
602.74	0.055
602.93	0.055
603.13	0.054
603.32	0.054
603.51	0.054
603.71	0.054
603.90	0.053
604.09	0.053
604.29	0.053
604.48	0.053
604.68	0.053
604.87	0.053
605.06	0.053
605.26	0.053
605.45	0.053
605.64	0.053
605.84	0.054
606.03	0.054
606.22	0.054
606.42	0.054
606.61	0.055
606.80	0.055
607.00	0.055
607.19	0.055
607.38	0.055
607.58	0.055
607.77	0.055
607.96	0.055
608.16	0.055
608.35	0.055
608.54	0.055
608.74	0.056
608.93	0.056
609.12	0.056
609.32	0.056
609.51	0.056
609.70	0.056
609.90	0.056
610.09	0.056
610.28	0.055
610.48	0.055
610.67	0.055
610.86	0.055
611.06	0.055
611.25	0.055
611.44	0.055
611.64	0.054
611.83	0.054
612.02	0.054
612.21	0.054
612.41	0.054
612.60	0.054
612.79	0.054
612.99	0.054
613.18	0.054
613.37	0.054
613.57	0.054
613.76	0.054
613.95	0.054
614.14	0.055
614.34	0.055
614.53	0.055
614.72	0.055
614.92	0.055
615.11	0.055
615.30	0.055
615.49	0.055
615.69	0.055
615.88	0.055
616.07	0.055
616.26	0.055
616.46	0.056
616.65	0.056
616.84	0.056
617.04	0.056
617.23	0.056
617.42	0.056
617.61	0.056
617.81	0.056
618.00	0.056
618.19	0.056
618.38	0.056
618.58	0.056
618.77	0.056
618.96	0.055
619.15	0.055
619.35	0.055
619.54	0.055
619.73	0.055
619.92	0.055
620.12	0.055
620.31	0.055
620.50	0.055
620.69	0.055
620.89	0.055
621.08	0.055
621.27	0.055
621.46	0.055
621.66	0.055
621.85	0.055
622.04	0.055
622.23	0.055
622.43	0.055
622.62	0.054
622.81	0.054
623.00	0.054
623.19	0.054
623.39	0.055
623.58	0.055
623.77	0.054
623.96	0.054
624.16	0.054
624.35	0.054
624.54	0.055
624.73	0.055
624.92	0.055
625.12	0.055
625.31	0.055
625.50	0.055
625.69	0.055
625.88	0.055
626.08	0.055
626.27	0.055
626.46	0.055
626.65	0.055
626.84	0.056
627.04	0.056
627.23	0.056
627.42	0.056
627.61	0.056
627.80	0.056
628.00	0.056
628.19	0.056
628.38	0.056
628.57	0.056
628.76	0.056
628.96	0.056
629.15	0.056
629.34	0.056
629.53	0.056
629.72	0.056
629.91	0.056
630.11	0.056
630.30	0.056
630.49	0.056
630.68	0.056
630.87	0.056
631.06	0.056
631.26	0.056
631.45	0.056
631.64	0.056
631.83	0.056
632.02	0.056
632.21	0.056
632.41	0.056
632.60	0.056
632.79	0.056
632.98	0.056
633.17	0.056
633.36	0.056
633.55	0.056
633.75	0.056
633.94	0.056
634.13	0.056
634.32	0.056
634.51	0.056
634.70	0.056
634.89	0.056
635.09	0.056
635.28	0.056
635.47	0.056
635.66	0.056
635.85	0.056
636.04	0.056
636.23	0.056
636.43	0.056
636.62	0.056
636.81	0.056
637.00	0.056
637.19	0.056
637.38	0.056
637.57	0.056
637.76	0.056
637.95	0.056
638.15	0.056
638.34	0.056
638.53	0.056
638.72	0.056
638.91	0.056
639.10	0.056
639.29	0.056
639.48	0.056
639.67	0.056
639.87	0.056
640.06	0.056
640.25	0.056
640.44	0.056
640.63	0.056
640.82	0.056
641.01	0.056
641.20	0.056
641.39	0.056
641.58	0.056
641.78	0.056
641.97	0.056
642.16	0.056
642.35	0.056
642.54	0.056
642.73	0.056
642.92	0.056
643.11	0.056
643.30	0.056
643.49	0.056
643.68	0.056
643.87	0.056
644.06	0.056
644.25	0.056
644.45	0.056
644.64	0.056
644.83	0.056
645.02	0.056
645.21	0.056
645.40	0.056
645.59	0.056
645.78	0.056
645.97	0.056
646.16	0.055
646.35	0.055
646.54	0.055
646.73	0.055
646.92	0.055
647.11	0.055
647.30	0.055
647.49	0.055
647.68	0.055
647.88	0.055
648.07	0.055
648.26	0.055
648.45	0.055
648.64	0.055
648.83	0.055
649.02	0.055
649.21	0.055
649.40	0.055
649.59	0.055
649.78	0.055
649.97	0.055
650.16	0.056
650.35	0.056
650.54	0.056
650.73	0.056
650.92	0.056
651.11	0.056
651.30	0.056
651.49	0.056
651.68	0.056
651.87	0.056
652.06	0.056
652.25	0.056
652.44	0.056
652.63	0.054
652.82	0.053
653.01	0.052
653.20	0.051
653.39	0.051
653.58	0.050
653.77	0.050
653.96	0.050
654.15	0.049
654.34	0.049
654.53	0.050
654.72	0.050
654.91	0.051
655.10	0.051
655.29	0.052
655.48	0.052
655.67	0.052
655.86	0.052
656.05	0.052
656.24	0.052
656.43	0.052
656.62	0.053
656.81	0.053
657.00	0.054
657.19	0.055
657.38	0.056
657.57	0.056
657.76	0.057
657.95	0.057
658.14	0.058
658.33	0.058
658.51	0.059
658.70	0.059
658.89	0.059
659.08	0.058
659.27	0.057
659.46	0.057
659.65	0.057
659.84	0.056
660.03	0.056
660.22	0.056
660.41	0.056
660.60	0.056
660.79	0.056
660.98	0.056
661.17	0.056
661.36	0.056
661.55	0.055
661.74	0.055
661.92	0.055
662.11	0.055
662.30	0.055
662.49	0.055
662.68	0.055
662.87	0.055
663.06	0.055
663.25	0.055
663.44	0.055
663.63	0.055
663.82	0.055
664.01	0.055
664.20	0.055
664.38	0.055
664.57	0.055
664.76	0.055
664.95	0.055
665.14	0.055
665.33	0.055
665.52	0.055
665.71	0.055
665.90	0.055
666.09	0.055
666.28	0.055
666.46	0.055
666.65	0.055
666.84	0.055
667.03	0.055
667.22	0.055
667.41	0.055
667.60	0.055
667.79	0.055
667.98	0.055
668.16	0.055
668.35	0.055
668.54	0.055
668.73	0.055
668.92	0.055
669.11	0.055
669.30	0.054
669.49	0.055
669.67	0.054
669.86	0.054
670.05	0.054
670.24	0.054
670.43	0.054
670.62	0.054
670.81	0.054
671.00	0.054
671.18	0.054
671.37	0.054
671.56	0.054
671.75	0.054
671.94	0.054
672.13	0.054
672.32	0.054
672.50	0.054
672.69	0.054
672.88	0.054
673.07	0.054
673.26	0.054
673.45	0.055
673.63	0.055
673.82	0.055
674.01	0.055
674.20	0.055
674.39	0.055
674.58	0.055
674.76	0.055
674.95	0.055
675.14	0.055
675.33	0.055
675.52	0.055
675.71	0.055
675.89	0.055
676.08	0.055
676.27	0.055
676.46	0.055
676.65	0.055
676.84	0.055
677.02	0.055
677.21	0.055
677.40	0.055
677.59	0.055
677.78	0.055
677.96	0.055
678.15	0.055
678.34	0.055
678.53	0.054
678.72	0.054
678.90	0.054
679.09	0.055
679.28	0.054
679.47	0.055
679.66	0.054
679.84	0.054
680.03	0.054
680.22	0.054
680.41	0.054
680.60	0.054
680.78	0.054
680.97	0.054
681.16	0.054
681.35	0.054
681.53	0.054
681.72	0.054
681.91	0.054
682.10	0.054
682.29	0.054
682.47	0.054
682.66	0.054
682.85	0.054
683.04	0.053
683.22	0.053
683.41	0.054
683.60	0.054
683.79	0.054
683.97	0.054
684.16	0.054
684.35	0.054
684.54	0.054
684.72	0.054
684.91	0.054
685.10	0.054
685.29	0.054
685.47	0.054
685.66	0.054
685.85	0.054
686.04	0.054
686.22	0.054
686.41	0.054
686.60	0.054
686.79	0.054
686.97	0.054
687.16	0.054
687.35	0.054
687.54	0.054
687.72	0.054
687.91	0.054
688.10	0.054
688.29	0.054
688.47	0.054
688.66	0.054
688.85	0.054
689.03	0.054
689.22	0.054
689.41	0.054
689.60	0.054
689.78	0.054
689.97	0.054
690.16	0.054
690.34	0.054
690.53	0.054
690.72	0.054
690.91	0.054
691.09	0.054
691.28	0.054
691.47	0.054
691.65	0.054
691.84	0.054
692.03	0.054
692.21	0.054
692.40	0.054
692.59	0.054
692.77	0.054
692.96	0.054
693.15	0.054
693.34	0.054
693.52	0.054
693.71	0.054
693.90	0.054
694.08	0.054
694.27	0.054
694.46	0.054
694.64	0.054
694.83	0.054
695.02	0.054
695.20	0.054
695.39	0.054
695.58	0.054
695.76	0.054
695.95	0.054
696.14	0.054
696.32	0.054
696.51	0.053
696.70	0.053
696.88	0.053
697.07	0.053
697.26	0.053
697.44	0.053
697.63	0.053
697.81	0.053
698.00	0.053
698.19	0.054
698.37	0.054
698.56	0.054
698.75	0.054
698.93	0.054
699.12	0.054
699.31	0.054
699.49	0.054
699.68	0.054
699.87	0.054
700.05	0.054
700.24	0.054
700.42	0.054
700.61	0.054
700.80	0.054
700.98	0.054
701.17	0.054
701.36	0.054
701.54	0.054
701.73	0.054
701.91	0.054
702.10	0.054
702.29	0.054
702.47	0.054
702.66	0.054
702.84	0.054
703.03	0.054
703.22	0.055
703.40	0.055
703.59	0.055
703.77	0.055
703.96	0.055
704.15	0.054
704.33	0.054
704.52	0.054
704.70	0.054
704.89	0.054
705.08	0.054
705.26	0.054
705.45	0.053
705.63	0.053
705.82	0.053
706.00	0.053
706.19	0.053
706.38	0.053
706.56	0.053
706.75	0.053
706.93	0.052
707.12	0.052
707.30	0.053
707.49	0.053
707.68	0.053
707.86	0.053
708.05	0.053
708.23	0.053
708.42	0.053
708.60	0.053
708.79	0.053
708.98	0.053
709.16	0.053
709.35	0.054
709.53	0.053
709.72	0.054
709.90	0.054
710.09	0.054
710.27	0.054
710.46	0.054
710.64	0.054
710.83	0.054
711.02	0.053
711.20	0.054
711.39	0.053
711.57	0.053
711.76	0.053
711.94	0.053
712.13	0.053
712.31	0.053
712.50	0.053
712.68	0.053
712.87	0.053
713.05	0.053
713.24	0.053
713.42	0.053
713.61	0.053
713.79	0.053
713.98	0.053
714.16	0.053
714.35	0.053
714.54	0.053
714.72	0.053
714.91	0.053
715.09	0.053
715.28	0.053
715.46	0.053
715.65	0.054
715.83	0.053
716.02	0.053
716.20	0.053
716.39	0.053
716.57	0.053
716.76	0.053
716.94	0.053
717.12	0.053
717.31	0.053
717.49	0.053
717.68	0.053
717.86	0.052
718.05	0.052
718.23	0.052
718.42	0.052
718.60	0.052
718.79	0.052
718.97	0.052
719.16	0.052
719.34	0.052
719.53	0.052
719.71	0.052
719.90	0.052
720.08	0.053
720.27	0.053
720.45	0.053
720.63	0.053
720.82	0.053
721.00	0.053
721.19	0.053
721.37	0.053
721.56	0.053
721.74	0.053
721.93	0.053
722.11	0.053
722.30	0.053
722.48	0.053
722.66	0.053
722.85	0.053
723.03	0.053
723.22	0.052
723.40	0.052
723.59	0.052
723.77	0.053
723.95	0.052
724.14	0.052
724.32	0.052
724.51	0.052
724.69	0.052
724.88	0.052
725.06	0.052
725.24	0.052
725.43	0.051
725.61	0.051
725.80	0.051
725.98	0.051
726.16	0.051
726.35	0.051
726.53	0.051
726.72	0.051
726.90	0.051
727.09	0.051
727.27	0.051
727.45	0.051
727.64	0.051
727.82	0.051
728.01	0.051
728.19	0.051
728.37	0.050
728.56	0.050
728.74	0.050
728.92	0.051
729.11	0.051
729.29	0.051
729.48	0.051
729.66	0.050
729.84	0.050
730.03	0.050
730.21	0.050
730.40	0.050
730.58	0.050
730.76	0.050
730.95	0.050
731.13	0.050
731.31	0.050
731.50	0.050
731.68	0.050
731.86	0.050
732.05	0.050
732.23	0.050
732.42	0.050
732.60	0.050
732.78	0.050
732.97	0.049
733.15	0.049
733.33	0.049
733.52	0.048
733.70	0.048
733.88	0.048
734.07	0.048
734.25	0.047
734.43	0.047
734.62	0.047
734.80	0.047
734.98	0.046
735.17	0.046
735.35	0.046
735.53	0.046
735.72	0.046
735.90	0.046
736.08	0.046
736.27	0.046
736.45	0.046
736.63	0.046
736.82	0.047
737.00	0.046
737.18	0.047
737.37	0.046
737.55	0.046
737.73	0.046
737.92	0.046
738.10	0.046
738.28	0.046
738.46	0.047
738.65	0.047
738.83	0.046
739.01	0.046
739.20	0.046
739.38	0.046
739.56	0.047
739.75	0.047
739.93	0.046
740.11	0.047
740.29	0.046
740.48	0.046
740.66	0.046
740.84	0.046
741.03	0.046
741.21	0.047
741.39	0.047
741.57	0.047
741.76	0.047
741.94	0.047
742.12	0.047
742.31	0.047
742.49	0.047
742.67	0.047
742.85	0.047
743.04	0.046
743.22	0.046
743.40	0.045
743.58	0.045
743.77	0.045
743.95	0.045
744.13	0.045
744.31	0.046
744.50	0.046
744.68	0.046
744.86	0.046
745.04	0.047
745.23	0.046
745.41	0.046
745.59	0.046
745.77	0.046
745.96	0.046
746.14	0.046
746.32	0.046
746.50	0.047
746.69	0.047
746.87	0.046
747.05	0.046
747.23	0.046
747.42	0.046
747.60	0.046
747.78	0.047
747.96	0.047
748.14	0.048
748.33	0.047
748.51	0.047
748.69	0.047
748.87	0.047
749.06	0.048
749.24	0.048
749.42	0.048
749.60	0.048
749.78	0.048
749.97	0.048
750.15	0.048
750.33	0.048
750.51	0.048
750.69	0.048
750.88	0.047
751.06	0.047
751.24	0.047
751.42	0.047
751.60	0.047
751.79	0.047
751.97	0.047
752.15	0.046
752.33	0.046
752.51	0.045
752.69	0.046
752.88	0.046
753.06	0.047
753.24	0.046
753.42	0.046
753.60	0.046
753.78	0.046
753.97	0.046
754.15	0.046
754.33	0.046
754.51	0.046
754.69	0.046
754.87	0.046
755.06	0.046
755.24	0.045
755.42	0.046
755.60	0.046
755.78	0.045
755.96	0.046
756.15	0.046
756.33	0.045
756.51	0.045
756.69	0.046
756.87	0.046
757.05	0.046
757.23	0.046
757.42	0.045
757.60	0.045
757.78	0.045
757.96	0.046
758.14	0.046
758.32	0.046
758.50	0.046
758.69	0.046
758.87	0.046
759.05	0.047
759.23	0.048
759.41	0.048
759.59	0.048
759.77	0.048
759.95	0.049
760.13	0.049
760.32	0.049
760.50	0.049
760.68	0.049
760.86	0.049
761.04	0.048
761.22	0.049
761.40	0.049
761.58	0.048
761.76	0.048
761.95	0.048
762.13	0.048
762.31	0.048
762.49	0.048
762.67	0.048
762.85	0.048
763.03	0.048
763.21	0.048
763.39	0.048
763.57	0.048
763.75	0.048
763.94	0.048
764.12	0.048
764.30	0.047
764.48	0.047
764.66	0.047
764.84	0.046
765.02	0.046
765.20	0.046
765.38	0.046
765.56	0.047
765.74	0.046
765.92	0.047
766.10	0.047
766.28	0.047
766.46	0.047
766.65	0.048
766.83	0.048
767.01	0.048
767.19	0.048
767.37	0.048
767.55	0.048
767.73	0.048
767.91	0.048
768.09	0.048
768.27	0.048
768.45	0.048
768.63	0.048
768.81	0.048
768.99	0.047
769.17	0.048
769.35	0.048
769.53	0.048
769.71	0.048
769.89	0.049
770.07	0.049
770.25	0.049
770.43	0.049
770.61	0.049
770.79	0.049
770.97	0.049
771.15	0.049
771.33	0.050
771.51	0.050
771.69	0.050
771.87	0.049
772.05	0.049
772.24	0.049
772.42	0.049
772.60	0.049
772.78	0.049
772.96	0.050
773.14	0.049
773.32	0.049
773.49	0.049
773.67	0.049
773.85	0.049
774.03	0.050
774.21	0.049
774.39	0.049
774.57	0.049
774.75	0.049
774.93	0.049
775.11	0.049
775.29	0.049
775.47	0.049
775.65	0.048
775.83	0.048
776.01	0.048
776.19	0.048
776.37	0.048
776.55	0.047
776.73	0.047
776.91	0.047
777.09	0.047
777.27	0.047
777.45	0.047
777.63	0.047
777.81	0.048
777.99	0.048
778.17	0.048
778.35	0.049
778.53	0.049
778.71	0.049
778.89	0.049
779.07	0.049
779.24	0.049
779.42	0.049
779.60	0.049
779.78	0.049
779.96	0.048
780.14	0.048
780.32	0.048
780.50	0.048
780.68	0.048
780.86	0.048
781.04	0.048
781.22	0.048
781.40	0.049
781.58	0.049
781.75	0.048
781.93	0.049
782.11	0.049
782.29	0.049
782.47	0.050
782.65	0.051
782.83	0.051
783.01	0.051
783.19	0.051
783.37	0.051
783.55	0.051
783.72	0.051
783.90	0.051
784.08	0.052
784.26	0.051
784.44	0.051
784.62	0.050
784.80	0.050
784.98	0.050
785.16	0.050
785.33	0.050
785.51	0.050
785.69	0.050
785.87	0.049
786.05	0.049
786.23	0.049
786.41	0.049
786.59	0.049
786.77	0.049
786.94	0.049
787.12	0.049
787.30	0.049
787.48	0.049
787.66	0.049
787.84	0.049
788.02	0.049
788.19	0.049
788.37	0.050
788.55	0.050
788.73	0.049
788.91	0.049
789.09	0.049
789.27	0.049
789.44	0.049
789.62	0.049
789.80	0.049
789.98	0.049
790.16	0.049
790.34	0.048
790.51	0.048
790.69	0.049
790.87	0.049
791.05	0.049
791.23	0.050
791.41	0.049
791.58	0.049
791.76	0.049
791.94	0.049
792.12	0.050
792.30	0.050
792.48	0.050
792.65	0.050
792.83	0.050
793.01	0.050
793.19	0.050
793.37	0.050
793.54	0.050
793.72	0.050
793.90	0.050
794.08	0.050
794.26	0.050
794.43	0.050
794.61	0.050
794.79	0.051
794.97	0.051
795.15	0.051
795.32	0.051
795.50	0.051
795.68	0.051
795.86	0.051
796.04	0.052
796.21	0.052
796.39	0.052
796.57	0.052
796.75	0.051
796.92	0.051
797.10	0.051
797.28	0.051
797.46	0.051
797.64	0.051
797.81	0.051
797.99	0.051
798.17	0.050
798.35	0.050
798.52	0.050
798.70	0.050
798.88	0.050
799.06	0.051
799.23	0.050
799.41	0.050
799.59	0.050
799.77	0.050
799.94	0.050
800.12	0.051
800.30	0.050
800.48	0.050
800.65	0.050
800.83	0.049
801.01	0.049
801.19	0.050
801.36	0.050
801.54	0.050
801.72	0.050
801.90	0.050
802.07	0.050
802.25	0.050
802.43	0.050
802.60	0.051
802.78	0.051
802.96	0.051
803.14	0.050
803.31	0.050
803.49	0.050
803.67	0.050
803.84	0.050
804.02	0.050
804.20	0.050
804.38	0.050
804.55	0.050
804.73	0.050
804.91	0.050
805.08	0.050
805.26	0.050
805.44	0.050
805.61	0.051
805.79	0.051
805.97	0.051
806.15	0.050
806.32	0.050
806.50	0.050
806.68	0.050
806.85	0.050
807.03	0.050
807.21	0.050
807.38	0.050
807.56	0.050
807.74	0.050
807.91	0.049
808.09	0.049
808.27	0.050
808.44	0.050
808.62	0.050
808.80	0.050
808.97	0.050
809.15	0.051
809.33	0.051
809.50	0.050
809.68	0.050
809.86	0.050
810.03	0.051
810.21	0.051
810.39	0.051
810.56	0.051
810.74	0.050
810.91	0.050
811.09	0.050
811.27	0.050
811.44	0.050
811.62	0.049
811.80	0.049
811.97	0.049
812.15	0.049
812.33	0.049
812.50	0.049
812.68	0.049
812.85	0.049
813.03	0.049
813.21	0.049
813.38	0.049
813.56	0.050
813.74	0.050
813.91	0.049
814.09	0.049
814.26	0.049
814.44	0.049
814.62	0.049
814.79	0.049
814.97	0.049
815.14	0.049
815.32	0.050
815.50	0.050
815.67	0.049
815.85	0.050
816.02	0.050
816.20	0.050
816.38	0.050
816.55	0.050
816.73	0.050
816.90	0.051
817.08	0.050
817.26	0.050
817.43	0.050
817.61	0.050
817.78	0.050
817.96	0.049
818.13	0.049
818.31	0.049
818.49	0.049
818.66	0.048
818.84	0.048
819.01	0.048
819.19	0.049
819.36	0.049
819.54	0.049
819.71	0.049
819.89	0.049
820.07	0.049
820.24	0.049
820.42	0.049
820.59	0.049
820.77	0.049
820.94	0.049
821.12	0.049
821.29	0.049
821.47	0.049
821.64	0.050
821.82	0.050
822.00	0.050
822.17	0.050
822.35	0.050
822.52	0.050
822.70	0.050
822.87	0.051
823.05	0.049
823.22	0.050
823.40	0.049
823.57	0.049
823.75	0.049
823.92	0.048
824.10	0.048
824.27	0.048
824.45	0.048
824.62	0.047
824.80	0.047
824.97	0.048
825.15	0.047
825.32	0.048
825.50	0.047
825.67	0.048
825.85	0.048
826.02	0.048
826.20	0.048
826.37	0.048
826.55	0.048
826.72	0.048
826.90	0.048
827.07	0.048
827.25	0.048
827.42	0.047
827.60	0.047
827.77	0.047
827.95	0.047
828.12	0.047
828.30	0.047
828.47	0.047
828.65	0.046
828.82	0.047
829.00	0.047
829.17	0.048
829.34	0.049
829.52	0.049
829.69	0.049
829.87	0.049
830.04	0.048
830.22	0.048
830.39	0.048
830.57	0.049
830.74	0.049
830.92	0.049
831.09	0.049
831.26	0.048
831.44	0.049
831.61	0.050
831.79	0.051
831.96	0.052
832.14	0.052
832.31	0.052
832.49	0.051
832.66	0.050
832.83	0.050
833.01	0.049
833.18	0.050
833.36	0.047
833.53	0.047
833.70	0.046
833.88	0.045
834.05	0.045
834.23	0.044
834.40	0.044
834.58	0.045
834.75	0.045
834.92	0.045
835.10	0.043
835.27	0.043
835.45	0.043
835.62	0.042
835.79	0.043
835.97	0.042
836.14	0.042
836.32	0.042
836.49	0.040
836.66	0.039
836.84	0.039
837.01	0.039
837.18	0.040
837.36	0.040
837.53	0.039
837.71	0.037
837.88	0.038
838.05	0.037
838.23	0.038
838.40	0.039
838.58	0.039
838.75	0.038
838.92	0.038
839.10	0.037
839.27	0.038
839.44	0.039
839.62	0.039
839.79	0.039
839.96	0.042
840.14	0.041
840.31	0.042
840.48	0.042
840.66	0.045
840.83	0.046
841.01	0.046
841.18	0.046
841.35	0.045
841.53	0.044
841.70	0.045
841.87	0.044
842.05	0.043
842.22	0.042
842.39	0.042
842.57	0.038
842.74	0.038
842.91	0.039
843.09	0.040
843.26	0.043
843.43	0.045
843.60	0.044
843.78	0.046
843.95	0.047
844.12	0.047
844.30	0.048
844.47	0.050
844.64	0.050
844.82	0.048
844.99	0.048
845.16	0.047
845.34	0.046
845.51	0.046
845.68	0.044
845.85	0.044
846.03	0.043
846.20	0.043
846.37	0.044
846.55	0.044
846.72	0.046
846.89	0.045
847.06	0.044
847.24	0.044
847.41	0.043
847.58	0.043
847.76	0.047
847.93	0.050
848.10	0.045
848.27	0.044
848.45	0.045
848.62	0.046
848.79	0.045
848.97	0.045
849.14	0.044
849.31	0.047
849.48	0.048
849.66	0.045
849.83	0.044
850.00	0.048
850.17	0.046
850.35	0.043
850.52	0.037
850.69	0.039
850.86	0.038
851.04	0.038
851.21	0.037
851.38	0.034
851.55	0.033
851.72	0.031
851.90	0.031
852.07	0.033
852.24	0.033
852.41	0.036
852.59	0.034
852.76	0.037
852.93	0.035
853.10	0.034
853.28	0.036
853.45	0.034
853.62	0.036
853.79	0.033
853.96	0.033
854.14	0.033
854.31	0.035
854.48	0.036
854.65	0.034
854.82	0.038
855.00	0.037
855.17	0.039
855.34	0.043
855.51	0.043
855.68	0.045
855.86	0.045
856.03	0.044
856.20	0.040
856.37	0.035
856.54	0.035
856.72	0.032
856.89	0.031
857.06	0.029
857.23	0.030
857.40	0.031
857.57	0.029
857.75	0.027
857.92	0.032
858.09	0.034
858.26	0.038
858.43	0.038
858.60	0.040
858.78	0.043
858.95	0.043
859.12	0.043
859.29	0.042
859.46	0.039
859.63	0.044
859.81	0.044
859.98	0.045
860.15	0.046
860.32	0.047
860.49	0.048
860.66	0.043
860.83	0.042
861.01	0.043
861.18	0.042
861.35	0.044
861.52	0.043
861.69	0.039
861.86	0.040
862.03	0.038
862.21	0.037
862.38	0.034
862.55	0.038
862.72	0.040
862.89	0.039
863.06	0.041
863.23	0.046
863.40	0.043
863.58	0.043
863.75	0.040
863.92	0.043
864.09	0.043
864.26	0.042
864.43	0.038
864.60	0.039
864.77	0.039
864.94	0.042
865.11	0.038
865.29	0.040
865.46	0.041
865.63	0.042
865.80	0.042
865.97	0.043
866.14	0.045
866.31	0.047
866.48	0.045
866.65	0.049
866.82	0.048
866.99	0.045
867.16	0.039
867.34	0.038
867.51	0.038
867.68	0.038
867.85	0.035
868.02	0.032
868.19	0.030
868.36	0.029
868.53	0.024
868.70	0.023
868.87	0.022
869.04	0.029
869.21	0.030
869.38	0.027
869.55	0.028
869.72	0.029
869.89	0.035
870.06	0.036
870.24	0.040
870.41	0.037
870.58	0.032
870.75	0.037
870.92	0.039
871.09	0.039
871.26	0.045
871.43	0.047
871.60	0.055
871.77	0.050
871.94	0.051
872.11	0.049
872.28	0.050
872.45	0.054
872.62	0.051
872.79	0.047
872.96	0.049
873.13	0.042
873.30	0.038
873.47	0.030
873.64	0.032
873.81	0.030
873.98	0.029
874.15	0.034
874.32	0.033
874.49	0.040
874.66	0.036
874.83	0.036
875.00	0.043
875.17	0.048
875.34	0.048
875.51	0.051
875.68	0.052
875.85	0.055
876.02	0.053
876.19	0.054
876.36	0.050
876.53	0.058
876.70	0.059
876.87	0.053
877.04	0.041
877.21	0.040
877.38	0.039
877.55	0.040
877.72	0.044
877.89	0.038
878.06	0.031
878.23	0.031
878.39	0.026
878.56	0.025
878.73	0.029
878.90	0.038
879.07	0.040
879.24	0.036
879.41	0.038
879.58	0.029
879.75	0.030
879.92	0.037
880.09	0.035
880.26	0.035
880.43	0.032
880.60	0.028
880.77	0.030
880.94	0.037
881.11	0.034
881.27	0.036
881.44	0.039
881.61	0.047
881.78	0.041
881.95	0.042
882.12	0.037
882.29	0.042
882.46	0.037
882.63	0.039
882.80	0.033
882.97	0.043
883.14	0.031
883.30	0.033
883.47	0.032
883.64	0.033
883.81	0.039
883.98	0.047
884.15	0.047
884.32	0.056
884.49	0.048
884.66	0.044
884.82	0.035
884.99	0.041
885.16	0.040
885.33	0.030
885.50	0.032
885.67	0.029
885.84	0.033
886.01	0.024
886.17	0.019
886.34	0.028
886.51	0.041
886.68	0.042
886.85	0.041
887.02	0.049
887.19	0.055
887.36	0.049
887.52	0.043
887.69	0.049
887.86	0.054
888.03	0.054
888.20	0.046
888.37	0.029
888.54	0.029
888.70	0.025
888.87	0.015
889.04	0.013
889.21	0.013
889.38	0.027
889.55	0.015
889.71	0.025
889.88	-0.012
890.05	-0.071
890.22	0.140
890.39	0.026
>>>>>End Processed Spectral Data<<<<<
