SpectraSuite Data File
++++++++++++++++++++++++++++++++++++
Date: Mon Jun 15 09:07:59 PDT 2015
User: introlabs
Dark Spectrum Present: Yes
Reference Spectrum Present: Yes
Number of Sampled Component Spectra: 1
Spectrometers: USB4H08886
Integration Time (usec): 44366 (USB4H08886)
Spectra Averaged: 20 (USB4H08886)
Boxcar Smoothing: 5 (USB4H08886)
Correct for Electrical Dark: Yes (USB4H08886)
Strobe/Lamp Enabled: No (USB4H08886)
Correct for Detector Non-linearity: Yes (USB4H08886)
Correct for Stray Light: Yes (USB4H08886)
Number of Pixels in Processed Spectrum: 3648
>>>>>Begin Processed Spectral Data<<<<<
178.14	0.387
178.36	0.387
178.57	0.387
178.79	0.486
179.01	-1.088
179.22	0.177
179.44	-0.226
179.65	-0.000
179.87	-0.000
180.08	0.829
180.30	0.420
180.52	0.243
180.73	0.155
180.95	0.051
181.16	0.061
181.38	0.050
181.59	0.033
181.81	0.018
182.03	0.029
182.24	0.024
182.46	0.015
182.67	0.024
182.89	0.031
183.10	0.040
183.32	0.037
183.54	0.032
183.75	0.029
183.97	0.031
184.18	0.035
184.40	0.031
184.61	0.040
184.83	0.045
185.04	0.044
185.26	0.043
185.48	0.036
185.69	0.039
185.91	0.052
186.12	0.056
186.34	0.067
186.55	0.057
186.77	0.058
186.98	0.056
187.20	0.044
187.42	0.046
187.63	0.044
187.85	0.049
188.06	0.050
188.28	0.046
188.49	0.045
188.71	0.030
188.92	0.032
189.14	0.029
189.36	0.028
189.57	0.034
189.79	0.026
190.00	0.029
190.22	0.025
190.43	0.019
190.65	0.012
190.86	0.016
191.08	0.021
191.29	0.025
191.51	0.029
191.72	0.032
191.94	0.034
192.16	0.035
192.37	0.031
192.59	0.035
192.80	0.037
193.02	0.040
193.23	0.041
193.45	0.039
193.66	0.031
193.88	0.028
194.09	0.019
194.31	0.018
194.52	0.014
194.74	0.011
194.95	0.010
195.17	0.010
195.38	0.006
195.60	-0.002
195.81	0.001
196.03	0.001
196.25	0.015
196.46	0.016
196.68	0.009
196.89	0.009
197.11	0.014
197.32	0.010
197.54	0.002
197.75	0.011
197.97	0.010
198.18	0.006
198.40	0.017
198.61	0.006
198.83	0.004
199.04	0.008
199.26	0.007
199.47	0.004
199.69	0.007
199.90	0.023
200.12	0.021
200.33	0.035
200.55	0.034
200.76	0.022
200.98	0.021
201.19	0.021
201.41	0.022
201.62	0.029
201.84	0.030
202.05	0.034
202.27	0.023
202.48	0.019
202.70	0.014
202.91	0.016
203.13	0.018
203.34	0.014
203.56	0.015
203.77	0.015
203.99	0.002
204.20	-0.003
204.42	-0.012
204.63	-0.007
204.85	-0.010
205.06	-0.009
205.28	-0.013
205.49	-0.010
205.71	-0.003
205.92	-0.002
206.14	-0.005
206.35	0.008
206.56	0.019
206.78	0.024
206.99	0.025
207.21	0.029
207.42	0.024
207.64	0.029
207.85	0.028
208.07	0.028
208.28	0.031
208.50	0.043
208.71	0.037
208.93	0.037
209.14	0.037
209.36	0.032
209.57	0.034
209.79	0.037
210.00	0.035
210.22	0.040
210.43	0.031
210.64	0.027
210.86	0.010
211.07	0.011
211.29	0.000
211.50	-0.002
211.72	-0.008
211.93	-0.011
212.15	-0.013
212.36	-0.018
212.58	-0.020
212.79	-0.015
213.01	-0.018
213.22	-0.007
213.43	-0.009
213.65	-0.003
213.86	-0.000
214.08	0.012
214.29	0.014
214.51	0.011
214.72	0.012
214.94	0.008
215.15	0.010
215.36	0.015
215.58	0.010
215.79	0.006
216.01	0.010
216.22	0.010
216.44	0.001
216.65	-0.004
216.87	0.007
217.08	0.013
217.29	0.019
217.51	0.017
217.72	0.014
217.94	0.018
218.15	0.026
218.37	0.017
218.58	0.015
218.80	0.021
219.01	0.020
219.22	0.012
219.44	0.011
219.65	0.010
219.87	0.009
220.08	0.006
220.30	0.002
220.51	-0.003
220.72	-0.003
220.94	-0.002
221.15	-0.008
221.37	-0.006
221.58	-0.004
221.79	-0.000
222.01	-0.011
222.22	-0.016
222.44	-0.011
222.65	-0.011
222.87	-0.013
223.08	-0.011
223.29	-0.015
223.51	-0.013
223.72	-0.014
223.94	-0.019
224.15	-0.022
224.36	-0.017
224.58	-0.020
224.79	-0.017
225.01	-0.016
225.22	-0.015
225.44	-0.015
225.65	-0.012
225.86	-0.009
226.08	-0.005
226.29	-0.010
226.51	-0.008
226.72	-0.004
226.93	0.002
227.15	-0.004
227.36	-0.007
227.58	-0.005
227.79	-0.004
228.00	-0.008
228.22	-0.018
228.43	-0.020
228.65	-0.017
228.86	-0.018
229.07	-0.021
229.29	-0.022
229.50	-0.024
229.72	-0.023
229.93	-0.026
230.14	-0.027
230.36	-0.027
230.57	-0.023
230.78	-0.024
231.00	-0.026
231.21	-0.032
231.43	-0.031
231.64	-0.030
231.85	-0.026
232.07	-0.027
232.28	-0.029
232.50	-0.030
232.71	-0.030
232.92	-0.032
233.14	-0.034
233.35	-0.032
233.56	-0.031
233.78	-0.034
233.99	-0.036
234.21	-0.038
234.42	-0.037
234.63	-0.037
234.85	-0.038
235.06	-0.039
235.27	-0.038
235.49	-0.036
235.70	-0.037
235.91	-0.038
236.13	-0.036
236.34	-0.038
236.56	-0.038
236.77	-0.039
236.98	-0.037
237.20	-0.037
237.41	-0.035
237.62	-0.035
237.84	-0.036
238.05	-0.035
238.26	-0.034
238.48	-0.035
238.69	-0.032
238.91	-0.032
239.12	-0.031
239.33	-0.031
239.55	-0.030
239.76	-0.030
239.97	-0.029
240.19	-0.028
240.40	-0.028
240.61	-0.026
240.83	-0.026
241.04	-0.025
241.25	-0.025
241.47	-0.024
241.68	-0.023
241.89	-0.022
242.11	-0.022
242.32	-0.022
242.53	-0.022
242.75	-0.021
242.96	-0.020
243.17	-0.020
243.39	-0.019
243.60	-0.019
243.81	-0.019
244.03	-0.019
244.24	-0.018
244.45	-0.017
244.67	-0.017
244.88	-0.015
245.09	-0.015
245.31	-0.014
245.52	-0.014
245.73	-0.013
245.95	-0.013
246.16	-0.012
246.37	-0.013
246.59	-0.012
246.80	-0.012
247.01	-0.011
247.23	-0.011
247.44	-0.012
247.65	-0.012
247.87	-0.011
248.08	-0.011
248.29	-0.011
248.51	-0.010
248.72	-0.010
248.93	-0.009
249.15	-0.009
249.36	-0.009
249.57	-0.009
249.78	-0.008
250.00	-0.008
250.21	-0.008
250.42	-0.008
250.64	-0.007
250.85	-0.007
251.06	-0.007
251.28	-0.007
251.49	-0.007
251.70	-0.007
251.92	-0.006
252.13	-0.006
252.34	-0.005
252.55	-0.005
252.77	-0.005
252.98	-0.005
253.19	-0.005
253.41	-0.005
253.62	-0.004
253.83	-0.004
254.05	-0.003
254.26	-0.003
254.47	-0.004
254.68	-0.004
254.90	-0.004
255.11	-0.003
255.32	-0.003
255.54	-0.003
255.75	-0.003
255.96	-0.003
256.17	-0.004
256.39	-0.003
256.60	-0.003
256.81	-0.003
257.03	-0.003
257.24	-0.003
257.45	-0.003
257.66	-0.003
257.88	-0.003
258.09	-0.003
258.30	-0.003
258.51	-0.003
258.73	-0.003
258.94	-0.003
259.15	-0.003
259.37	-0.003
259.58	-0.003
259.79	-0.004
260.00	-0.003
260.22	-0.003
260.43	-0.003
260.64	-0.003
260.85	-0.004
261.07	-0.003
261.28	-0.004
261.49	-0.004
261.71	-0.004
261.92	-0.004
262.13	-0.004
262.34	-0.005
262.56	-0.005
262.77	-0.005
262.98	-0.005
263.19	-0.005
263.41	-0.005
263.62	-0.005
263.83	-0.006
264.04	-0.006
264.26	-0.006
264.47	-0.006
264.68	-0.006
264.89	-0.006
265.11	-0.006
265.32	-0.006
265.53	-0.006
265.74	-0.006
265.96	-0.007
266.17	-0.006
266.38	-0.007
266.59	-0.007
266.81	-0.007
267.02	-0.007
267.23	-0.008
267.44	-0.008
267.65	-0.009
267.87	-0.009
268.08	-0.009
268.29	-0.010
268.50	-0.010
268.72	-0.010
268.93	-0.010
269.14	-0.010
269.35	-0.010
269.57	-0.010
269.78	-0.011
269.99	-0.011
270.20	-0.011
270.41	-0.011
270.63	-0.011
270.84	-0.011
271.05	-0.011
271.26	-0.012
271.48	-0.012
271.69	-0.012
271.90	-0.013
272.11	-0.013
272.32	-0.013
272.54	-0.013
272.75	-0.013
272.96	-0.013
273.17	-0.013
273.39	-0.014
273.60	-0.014
273.81	-0.014
274.02	-0.014
274.23	-0.014
274.45	-0.014
274.66	-0.014
274.87	-0.014
275.08	-0.015
275.29	-0.015
275.51	-0.015
275.72	-0.015
275.93	-0.015
276.14	-0.015
276.35	-0.015
276.57	-0.015
276.78	-0.015
276.99	-0.015
277.20	-0.015
277.41	-0.015
277.63	-0.015
277.84	-0.014
278.05	-0.014
278.26	-0.014
278.47	-0.014
278.69	-0.014
278.90	-0.014
279.11	-0.014
279.32	-0.014
279.53	-0.013
279.74	-0.013
279.96	-0.013
280.17	-0.013
280.38	-0.012
280.59	-0.013
280.80	-0.012
281.02	-0.012
281.23	-0.012
281.44	-0.012
281.65	-0.012
281.86	-0.012
282.07	-0.011
282.29	-0.011
282.50	-0.011
282.71	-0.011
282.92	-0.011
283.13	-0.010
283.35	-0.010
283.56	-0.010
283.77	-0.010
283.98	-0.009
284.19	-0.009
284.40	-0.008
284.62	-0.008
284.83	-0.008
285.04	-0.007
285.25	-0.007
285.46	-0.006
285.67	-0.006
285.88	-0.005
286.10	-0.005
286.31	-0.005
286.52	-0.004
286.73	-0.004
286.94	-0.003
287.15	-0.002
287.37	-0.002
287.58	-0.001
287.79	-0.001
288.00	-0.000
288.21	0.000
288.42	0.001
288.63	0.002
288.85	0.002
289.06	0.003
289.27	0.003
289.48	0.003
289.69	0.004
289.90	0.004
290.11	0.005
290.33	0.005
290.54	0.006
290.75	0.006
290.96	0.006
291.17	0.006
291.38	0.007
291.59	0.007
291.81	0.007
292.02	0.008
292.23	0.008
292.44	0.008
292.65	0.008
292.86	0.008
293.07	0.009
293.28	0.009
293.50	0.009
293.71	0.009
293.92	0.009
294.13	0.010
294.34	0.010
294.55	0.010
294.76	0.010
294.97	0.010
295.19	0.010
295.40	0.010
295.61	0.010
295.82	0.010
296.03	0.010
296.24	0.011
296.45	0.011
296.66	0.011
296.87	0.011
297.09	0.011
297.30	0.011
297.51	0.011
297.72	0.011
297.93	0.011
298.14	0.011
298.35	0.011
298.56	0.011
298.77	0.011
298.99	0.011
299.20	0.012
299.41	0.012
299.62	0.012
299.83	0.012
300.04	0.012
300.25	0.012
300.46	0.012
300.67	0.012
300.88	0.012
301.10	0.012
301.31	0.012
301.52	0.012
301.73	0.012
301.94	0.012
302.15	0.012
302.36	0.012
302.57	0.012
302.78	0.012
302.99	0.012
303.20	0.012
303.41	0.012
303.63	0.012
303.84	0.012
304.05	0.012
304.26	0.012
304.47	0.012
304.68	0.012
304.89	0.012
305.10	0.012
305.31	0.012
305.52	0.012
305.73	0.012
305.94	0.013
306.15	0.012
306.37	0.013
306.58	0.013
306.79	0.013
307.00	0.013
307.21	0.013
307.42	0.013
307.63	0.013
307.84	0.013
308.05	0.013
308.26	0.013
308.47	0.013
308.68	0.013
308.89	0.013
309.10	0.013
309.31	0.013
309.52	0.013
309.73	0.013
309.95	0.013
310.16	0.013
310.37	0.013
310.58	0.013
310.79	0.013
311.00	0.013
311.21	0.013
311.42	0.013
311.63	0.013
311.84	0.013
312.05	0.014
312.26	0.014
312.47	0.014
312.68	0.014
312.89	0.014
313.10	0.014
313.31	0.014
313.52	0.014
313.73	0.014
313.94	0.015
314.15	0.015
314.36	0.015
314.57	0.015
314.78	0.015
314.99	0.015
315.21	0.015
315.42	0.015
315.63	0.015
315.84	0.015
316.05	0.015
316.26	0.015
316.47	0.015
316.68	0.015
316.89	0.015
317.10	0.015
317.31	0.015
317.52	0.015
317.73	0.015
317.94	0.015
318.15	0.015
318.36	0.015
318.57	0.015
318.78	0.015
318.99	0.015
319.20	0.015
319.41	0.015
319.62	0.015
319.83	0.016
320.04	0.016
320.25	0.015
320.46	0.015
320.67	0.015
320.88	0.015
321.09	0.015
321.30	0.015
321.51	0.015
321.72	0.015
321.93	0.015
322.14	0.015
322.35	0.015
322.56	0.015
322.77	0.015
322.98	0.016
323.19	0.015
323.40	0.015
323.61	0.016
323.82	0.016
324.03	0.016
324.24	0.016
324.45	0.016
324.66	0.016
324.87	0.016
325.08	0.016
325.29	0.015
325.50	0.015
325.71	0.015
325.92	0.015
326.13	0.015
326.34	0.015
326.55	0.015
326.76	0.015
326.97	0.015
327.18	0.015
327.39	0.015
327.60	0.015
327.80	0.016
328.01	0.015
328.22	0.015
328.43	0.016
328.64	0.016
328.85	0.016
329.06	0.016
329.27	0.016
329.48	0.015
329.69	0.015
329.90	0.015
330.11	0.015
330.32	0.015
330.53	0.015
330.74	0.015
330.95	0.015
331.16	0.015
331.37	0.015
331.58	0.015
331.79	0.015
332.00	0.015
332.21	0.015
332.42	0.015
332.63	0.015
332.83	0.015
333.04	0.015
333.25	0.015
333.46	0.015
333.67	0.014
333.88	0.014
334.09	0.014
334.30	0.014
334.51	0.014
334.72	0.014
334.93	0.014
335.14	0.014
335.35	0.014
335.56	0.014
335.77	0.013
335.98	0.013
336.18	0.013
336.39	0.013
336.60	0.013
336.81	0.013
337.02	0.013
337.23	0.013
337.44	0.013
337.65	0.013
337.86	0.013
338.07	0.013
338.28	0.013
338.49	0.013
338.70	0.013
338.91	0.013
339.11	0.013
339.32	0.013
339.53	0.013
339.74	0.013
339.95	0.012
340.16	0.012
340.37	0.012
340.58	0.012
340.79	0.012
341.00	0.012
341.21	0.012
341.41	0.011
341.62	0.011
341.83	0.011
342.04	0.011
342.25	0.011
342.46	0.011
342.67	0.011
342.88	0.010
343.09	0.010
343.30	0.010
343.50	0.010
343.71	0.010
343.92	0.010
344.13	0.010
344.34	0.010
344.55	0.010
344.76	0.010
344.97	0.010
345.18	0.010
345.38	0.010
345.59	0.010
345.80	0.009
346.01	0.010
346.22	0.009
346.43	0.009
346.64	0.009
346.85	0.009
347.06	0.009
347.26	0.009
347.47	0.009
347.68	0.009
347.89	0.009
348.10	0.009
348.31	0.009
348.52	0.009
348.73	0.008
348.93	0.008
349.14	0.008
349.35	0.008
349.56	0.008
349.77	0.008
349.98	0.008
350.19	0.008
350.39	0.008
350.60	0.008
350.81	0.008
351.02	0.008
351.23	0.008
351.44	0.008
351.65	0.008
351.86	0.008
352.06	0.008
352.27	0.008
352.48	0.008
352.69	0.007
352.90	0.007
353.11	0.007
353.31	0.007
353.52	0.007
353.73	0.007
353.94	0.007
354.15	0.007
354.36	0.007
354.57	0.007
354.77	0.007
354.98	0.007
355.19	0.007
355.40	0.007
355.61	0.007
355.82	0.007
356.02	0.007
356.23	0.007
356.44	0.007
356.65	0.007
356.86	0.007
357.07	0.007
357.27	0.007
357.48	0.007
357.69	0.007
357.90	0.007
358.11	0.007
358.32	0.007
358.52	0.006
358.73	0.006
358.94	0.006
359.15	0.006
359.36	0.006
359.56	0.006
359.77	0.006
359.98	0.006
360.19	0.006
360.40	0.006
360.61	0.006
360.81	0.006
361.02	0.006
361.23	0.006
361.44	0.006
361.65	0.006
361.85	0.006
362.06	0.006
362.27	0.006
362.48	0.006
362.69	0.006
362.89	0.006
363.10	0.006
363.31	0.005
363.52	0.005
363.73	0.005
363.93	0.006
364.14	0.006
364.35	0.005
364.56	0.005
364.77	0.005
364.97	0.005
365.18	0.005
365.39	0.005
365.60	0.005
365.81	0.005
366.01	0.005
366.22	0.005
366.43	0.005
366.64	0.005
366.84	0.005
367.05	0.005
367.26	0.005
367.47	0.005
367.68	0.005
367.88	0.005
368.09	0.005
368.30	0.005
368.51	0.005
368.71	0.005
368.92	0.005
369.13	0.005
369.34	0.005
369.55	0.005
369.75	0.005
369.96	0.005
370.17	0.005
370.38	0.005
370.58	0.005
370.79	0.005
371.00	0.005
371.21	0.005
371.41	0.005
371.62	0.005
371.83	0.005
372.04	0.005
372.24	0.005
372.45	0.005
372.66	0.005
372.87	0.005
373.07	0.005
373.28	0.005
373.49	0.005
373.70	0.005
373.90	0.005
374.11	0.005
374.32	0.005
374.53	0.004
374.73	0.004
374.94	0.004
375.15	0.004
375.36	0.004
375.56	0.004
375.77	0.004
375.98	0.004
376.19	0.004
376.39	0.004
376.60	0.004
376.81	0.004
377.02	0.004
377.22	0.004
377.43	0.004
377.64	0.004
377.84	0.004
378.05	0.004
378.26	0.004
378.47	0.004
378.67	0.004
378.88	0.004
379.09	0.004
379.30	0.004
379.50	0.004
379.71	0.004
379.92	0.004
380.12	0.004
380.33	0.004
380.54	0.004
380.75	0.004
380.95	0.004
381.16	0.004
381.37	0.004
381.57	0.004
381.78	0.004
381.99	0.004
382.20	0.004
382.40	0.004
382.61	0.004
382.82	0.004
383.02	0.004
383.23	0.004
383.44	0.004
383.64	0.004
383.85	0.004
384.06	0.004
384.27	0.004
384.47	0.004
384.68	0.004
384.89	0.004
385.09	0.004
385.30	0.003
385.51	0.003
385.71	0.003
385.92	0.003
386.13	0.003
386.33	0.003
386.54	0.003
386.75	0.003
386.95	0.003
387.16	0.003
387.37	0.003
387.58	0.003
387.78	0.003
387.99	0.003
388.20	0.003
388.40	0.003
388.61	0.003
388.82	0.003
389.02	0.003
389.23	0.003
389.44	0.003
389.64	0.003
389.85	0.003
390.06	0.003
390.26	0.003
390.47	0.003
390.68	0.003
390.88	0.003
391.09	0.003
391.30	0.003
391.50	0.003
391.71	0.003
391.92	0.003
392.12	0.003
392.33	0.003
392.53	0.003
392.74	0.003
392.95	0.003
393.15	0.003
393.36	0.003
393.57	0.003
393.77	0.003
393.98	0.003
394.19	0.003
394.39	0.003
394.60	0.003
394.81	0.003
395.01	0.003
395.22	0.003
395.43	0.003
395.63	0.003
395.84	0.003
396.04	0.003
396.25	0.003
396.46	0.003
396.66	0.003
396.87	0.003
397.08	0.003
397.28	0.003
397.49	0.003
397.69	0.003
397.90	0.003
398.11	0.003
398.31	0.003
398.52	0.003
398.73	0.003
398.93	0.003
399.14	0.002
399.34	0.002
399.55	0.002
399.76	0.002
399.96	0.002
400.17	0.002
400.37	0.002
400.58	0.002
400.79	0.002
400.99	0.002
401.20	0.002
401.41	0.002
401.61	0.002
401.82	0.002
402.02	0.003
402.23	0.003
402.44	0.003
402.64	0.003
402.85	0.002
403.05	0.002
403.26	0.002
403.47	0.002
403.67	0.002
403.88	0.002
404.08	0.002
404.29	0.002
404.50	0.002
404.70	0.002
404.91	0.002
405.11	0.002
405.32	0.002
405.52	0.002
405.73	0.002
405.94	0.002
406.14	0.002
406.35	0.002
406.55	0.002
406.76	0.002
406.97	0.002
407.17	0.001
407.38	0.001
407.58	0.001
407.79	0.001
407.99	0.001
408.20	0.001
408.41	0.002
408.61	0.002
408.82	0.002
409.02	0.002
409.23	0.002
409.43	0.002
409.64	0.002
409.84	0.002
410.05	0.002
410.26	0.002
410.46	0.002
410.67	0.002
410.87	0.002
411.08	0.002
411.28	0.002
411.49	0.002
411.69	0.002
411.90	0.002
412.11	0.002
412.31	0.002
412.52	0.002
412.72	0.002
412.93	0.002
413.13	0.002
413.34	0.002
413.54	0.002
413.75	0.002
413.95	0.002
414.16	0.002
414.37	0.002
414.57	0.002
414.78	0.002
414.98	0.002
415.19	0.002
415.39	0.002
415.60	0.002
415.80	0.002
416.01	0.002
416.21	0.002
416.42	0.002
416.62	0.002
416.83	0.001
417.03	0.001
417.24	0.001
417.44	0.001
417.65	0.001
417.86	0.001
418.06	0.001
418.27	0.001
418.47	0.001
418.68	0.001
418.88	0.001
419.09	0.001
419.29	0.001
419.50	0.001
419.70	0.001
419.91	0.001
420.11	0.001
420.32	0.001
420.52	0.001
420.73	0.001
420.93	0.001
421.14	0.001
421.34	0.001
421.55	0.001
421.75	0.001
421.96	0.001
422.16	0.001
422.37	0.001
422.57	0.001
422.78	0.001
422.98	0.001
423.19	0.001
423.39	0.001
423.60	0.001
423.80	0.001
424.01	0.001
424.21	0.001
424.42	0.001
424.62	0.001
424.83	0.001
425.03	0.001
425.23	0.001
425.44	0.001
425.64	0.001
425.85	0.001
426.05	0.001
426.26	0.001
426.46	0.001
426.67	0.001
426.87	0.001
427.08	0.001
427.28	0.001
427.49	0.001
427.69	0.000
427.90	0.000
428.10	0.000
428.31	0.000
428.51	0.000
428.71	0.000
428.92	0.000
429.12	0.000
429.33	0.000
429.53	0.000
429.74	0.001
429.94	0.001
430.15	0.001
430.35	0.001
430.56	0.001
430.76	0.001
430.96	0.001
431.17	0.001
431.37	0.001
431.58	0.001
431.78	0.001
431.99	0.001
432.19	0.001
432.40	0.001
432.60	0.001
432.80	0.001
433.01	0.001
433.21	0.001
433.42	0.001
433.62	0.001
433.83	0.001
434.03	0.001
434.23	0.001
434.44	0.001
434.64	0.001
434.85	0.001
435.05	0.001
435.26	0.001
435.46	0.001
435.66	0.001
435.87	0.001
436.07	0.001
436.28	0.000
436.48	0.000
436.69	0.001
436.89	0.001
437.09	0.000
437.30	0.001
437.50	0.001
437.71	0.001
437.91	0.001
438.11	0.001
438.32	0.001
438.52	0.001
438.73	0.001
438.93	0.000
439.13	0.000
439.34	0.000
439.54	0.000
439.75	0.000
439.95	0.000
440.15	0.000
440.36	0.000
440.56	0.000
440.77	0.000
440.97	0.000
441.17	0.000
441.38	0.000
441.58	0.000
441.79	0.000
441.99	0.000
442.19	0.000
442.40	0.000
442.60	0.000
442.81	0.000
443.01	0.000
443.21	0.000
443.42	0.000
443.62	0.000
443.82	0.000
444.03	0.000
444.23	0.000
444.44	0.000
444.64	0.000
444.84	0.000
445.05	0.000
445.25	0.000
445.45	0.000
445.66	0.000
445.86	0.000
446.06	0.000
446.27	0.000
446.47	0.000
446.68	0.000
446.88	0.000
447.08	0.000
447.29	0.000
447.49	0.000
447.69	0.000
447.90	0.000
448.10	0.000
448.30	0.000
448.51	0.000
448.71	0.000
448.91	0.000
449.12	0.000
449.32	0.000
449.52	0.000
449.73	0.000
449.93	0.000
450.14	0.000
450.34	0.000
450.54	0.000
450.75	0.000
450.95	0.000
451.15	0.000
451.36	0.000
451.56	0.000
451.76	0.000
451.97	0.000
452.17	0.000
452.37	0.000
452.58	0.000
452.78	0.000
452.98	0.000
453.19	0.000
453.39	0.000
453.59	0.000
453.79	0.000
454.00	0.000
454.20	0.000
454.40	0.000
454.61	0.000
454.81	0.000
455.01	0.000
455.22	-0.000
455.42	-0.000
455.62	-0.000
455.83	-0.000
456.03	-0.000
456.23	-0.000
456.44	0.000
456.64	0.000
456.84	0.000
457.04	0.000
457.25	0.000
457.45	-0.000
457.65	0.000
457.86	0.000
458.06	0.000
458.26	-0.000
458.47	-0.000
458.67	-0.000
458.87	-0.000
459.07	-0.000
459.28	-0.000
459.48	-0.000
459.68	-0.000
459.89	-0.000
460.09	-0.000
460.29	-0.000
460.49	-0.000
460.70	-0.000
460.90	0.000
461.10	0.000
461.31	0.000
461.51	0.000
461.71	0.000
461.91	0.000
462.12	0.000
462.32	0.000
462.52	0.000
462.72	0.000
462.93	0.000
463.13	-0.000
463.33	-0.000
463.53	-0.000
463.74	-0.000
463.94	-0.000
464.14	-0.000
464.35	-0.000
464.55	-0.000
464.75	-0.000
464.95	-0.000
465.16	-0.000
465.36	-0.000
465.56	0.000
465.76	0.000
465.97	0.000
466.17	0.000
466.37	0.000
466.57	0.000
466.78	0.000
466.98	0.000
467.18	0.000
467.38	0.000
467.59	0.000
467.79	0.000
467.99	0.000
468.19	0.000
468.39	0.000
468.60	0.000
468.80	0.000
469.00	0.000
469.20	0.000
469.41	0.000
469.61	0.000
469.81	-0.000
470.01	-0.000
470.22	-0.000
470.42	-0.000
470.62	-0.000
470.82	-0.000
471.02	-0.000
471.23	-0.000
471.43	-0.000
471.63	-0.000
471.83	-0.000
472.04	-0.000
472.24	-0.000
472.44	-0.000
472.64	-0.000
472.84	-0.000
473.05	-0.000
473.25	-0.001
473.45	-0.001
473.65	-0.001
473.85	-0.001
474.06	-0.001
474.26	-0.001
474.46	-0.000
474.66	-0.000
474.86	-0.000
475.07	-0.000
475.27	-0.000
475.47	-0.000
475.67	-0.000
475.87	-0.000
476.08	0.000
476.28	-0.000
476.48	0.000
476.68	0.000
476.88	0.000
477.09	0.000
477.29	0.000
477.49	0.000
477.69	0.000
477.89	0.000
478.09	-0.000
478.30	-0.000
478.50	-0.000
478.70	-0.000
478.90	-0.001
479.10	-0.001
479.31	-0.001
479.51	-0.001
479.71	-0.001
479.91	-0.001
480.11	-0.001
480.31	-0.001
480.52	-0.001
480.72	-0.001
480.92	-0.001
481.12	-0.001
481.32	-0.001
481.52	-0.001
481.72	-0.001
481.93	-0.001
482.13	-0.001
482.33	-0.001
482.53	-0.001
482.73	-0.001
482.93	-0.001
483.14	-0.001
483.34	-0.001
483.54	-0.001
483.74	-0.001
483.94	-0.001
484.14	-0.001
484.34	-0.001
484.55	-0.001
484.75	-0.001
484.95	-0.001
485.15	-0.001
485.35	-0.001
485.55	-0.000
485.75	-0.001
485.96	-0.000
486.16	-0.000
486.36	-0.001
486.56	-0.001
486.76	-0.000
486.96	-0.000
487.16	-0.000
487.36	-0.000
487.57	-0.000
487.77	-0.001
487.97	-0.000
488.17	-0.001
488.37	-0.001
488.57	-0.000
488.77	-0.000
488.97	-0.000
489.18	-0.000
489.38	-0.000
489.58	-0.000
489.78	-0.000
489.98	-0.000
490.18	0.000
490.38	0.000
490.58	0.000
490.78	0.000
490.98	0.000
491.19	-0.000
491.39	-0.000
491.59	-0.000
491.79	-0.000
491.99	-0.000
492.19	-0.000
492.39	-0.000
492.59	-0.000
492.79	-0.000
492.99	-0.000
493.20	-0.000
493.40	-0.000
493.60	-0.000
493.80	-0.000
494.00	-0.000
494.20	-0.000
494.40	-0.000
494.60	-0.000
494.80	-0.000
495.00	-0.000
495.20	-0.000
495.40	-0.000
495.61	-0.000
495.81	-0.000
496.01	-0.000
496.21	-0.000
496.41	-0.000
496.61	-0.000
496.81	0.000
497.01	0.000
497.21	0.000
497.41	0.000
497.61	0.000
497.81	0.000
498.01	0.000
498.21	0.001
498.41	0.000
498.61	0.000
498.82	0.000
499.02	0.000
499.22	0.000
499.42	0.000
499.62	0.000
499.82	0.000
500.02	-0.000
500.22	-0.000
500.42	-0.000
500.62	-0.000
500.82	-0.000
501.02	-0.000
501.22	-0.000
501.42	-0.000
501.62	-0.000
501.82	-0.000
502.02	-0.000
502.22	-0.000
502.42	0.000
502.62	0.000
502.82	0.000
503.02	0.000
503.22	0.000
503.42	0.000
503.63	0.000
503.83	0.000
504.03	0.000
504.23	0.000
504.43	0.000
504.63	-0.000
504.83	-0.000
505.03	0.000
505.23	0.000
505.43	0.000
505.63	0.000
505.83	0.000
506.03	0.000
506.23	0.000
506.43	0.000
506.63	0.000
506.83	0.000
507.03	0.000
507.23	0.000
507.43	0.000
507.63	-0.000
507.83	-0.000
508.03	-0.000
508.23	-0.000
508.43	-0.000
508.63	0.000
508.83	0.000
509.03	0.000
509.23	0.000
509.43	0.000
509.63	0.000
509.83	0.000
510.03	0.000
510.23	-0.000
510.43	-0.000
510.63	-0.000
510.83	-0.000
511.03	-0.000
511.23	-0.000
511.43	-0.000
511.63	-0.000
511.83	-0.000
512.03	-0.000
512.22	0.000
512.42	0.000
512.62	0.000
512.82	0.000
513.02	0.000
513.22	0.000
513.42	-0.000
513.62	0.000
513.82	0.000
514.02	0.000
514.22	0.000
514.42	0.000
514.62	0.000
514.82	0.000
515.02	0.000
515.22	0.000
515.42	0.000
515.62	0.000
515.82	0.000
516.02	-0.000
516.22	0.000
516.42	0.000
516.62	0.000
516.82	-0.000
517.01	0.000
517.21	0.000
517.41	0.000
517.61	0.000
517.81	0.000
518.01	0.000
518.21	0.000
518.41	0.000
518.61	0.000
518.81	0.000
519.01	0.000
519.21	0.000
519.41	0.000
519.61	0.000
519.81	0.000
520.00	0.000
520.20	0.001
520.40	0.001
520.60	0.001
520.80	0.001
521.00	0.001
521.20	0.001
521.40	0.001
521.60	0.001
521.80	0.001
522.00	0.001
522.20	0.001
522.39	0.001
522.59	0.001
522.79	0.001
522.99	0.001
523.19	0.001
523.39	0.000
523.59	0.001
523.79	0.001
523.99	0.001
524.19	0.001
524.38	0.001
524.58	0.001
524.78	0.001
524.98	0.001
525.18	0.001
525.38	0.001
525.58	0.001
525.78	0.001
525.98	0.000
526.18	0.000
526.37	0.000
526.57	0.000
526.77	0.000
526.97	0.000
527.17	0.000
527.37	0.000
527.57	0.000
527.77	0.000
527.96	-0.000
528.16	-0.000
528.36	0.000
528.56	0.000
528.76	0.000
528.96	0.000
529.16	0.000
529.36	0.000
529.55	0.000
529.75	0.000
529.95	0.000
530.15	0.000
530.35	0.001
530.55	0.001
530.75	0.001
530.94	0.001
531.14	0.001
531.34	0.001
531.54	0.000
531.74	0.000
531.94	0.000
532.13	0.000
532.33	0.000
532.53	0.000
532.73	0.000
532.93	0.000
533.13	0.000
533.33	0.000
533.52	0.000
533.72	0.000
533.92	0.000
534.12	0.000
534.32	0.000
534.52	0.000
534.71	0.000
534.91	0.001
535.11	0.001
535.31	0.001
535.51	0.001
535.71	0.001
535.90	0.001
536.10	0.001
536.30	0.001
536.50	0.001
536.70	0.001
536.89	0.001
537.09	0.001
537.29	0.001
537.49	0.001
537.69	0.001
537.89	0.000
538.08	0.000
538.28	0.000
538.48	0.000
538.68	0.000
538.88	0.000
539.07	0.000
539.27	0.000
539.47	0.000
539.67	0.000
539.87	0.000
540.06	0.000
540.26	0.001
540.46	0.001
540.66	0.001
540.86	0.001
541.05	0.001
541.25	0.001
541.45	0.001
541.65	0.001
541.84	0.001
542.04	0.000
542.24	0.001
542.44	0.000
542.64	0.000
542.83	0.000
543.03	0.000
543.23	0.000
543.43	0.000
543.62	0.000
543.82	0.000
544.02	0.000
544.22	0.000
544.42	0.000
544.61	0.000
544.81	0.000
545.01	0.000
545.21	0.000
545.40	0.000
545.60	0.000
545.80	0.000
546.00	0.001
546.19	0.001
546.39	0.001
546.59	0.001
546.79	0.001
546.98	0.001
547.18	0.001
547.38	0.001
547.58	0.001
547.77	0.001
547.97	0.000
548.17	0.000
548.37	0.001
548.56	0.001
548.76	0.001
548.96	0.001
549.16	0.001
549.35	0.001
549.55	0.001
549.75	0.001
549.95	0.001
550.14	0.001
550.34	0.001
550.54	0.001
550.73	0.001
550.93	0.001
551.13	0.001
551.33	0.000
551.52	0.000
551.72	0.001
551.92	0.001
552.12	0.000
552.31	0.000
552.51	0.001
552.71	0.001
552.90	0.000
553.10	0.001
553.30	0.001
553.50	0.001
553.69	0.001
553.89	0.001
554.09	0.001
554.28	0.001
554.48	0.001
554.68	0.001
554.87	0.001
555.07	0.001
555.27	0.001
555.47	0.001
555.66	0.001
555.86	0.001
556.06	0.001
556.25	0.001
556.45	0.001
556.65	0.001
556.84	0.001
557.04	0.001
557.24	0.001
557.43	0.001
557.63	0.001
557.83	0.001
558.02	0.001
558.22	0.001
558.42	0.001
558.61	0.001
558.81	0.001
559.01	0.001
559.21	0.000
559.40	0.000
559.60	0.000
559.80	0.000
559.99	0.000
560.19	0.000
560.39	0.000
560.58	0.000
560.78	0.000
560.97	0.000
561.17	0.000
561.37	0.000
561.56	0.000
561.76	0.000
561.96	0.001
562.15	0.001
562.35	0.001
562.55	0.001
562.74	0.001
562.94	0.001
563.14	0.001
563.33	0.001
563.53	0.001
563.73	0.001
563.92	0.001
564.12	0.001
564.31	0.001
564.51	0.001
564.71	0.001
564.90	0.001
565.10	0.001
565.30	0.001
565.49	0.001
565.69	0.001
565.89	0.001
566.08	0.001
566.28	0.001
566.47	0.001
566.67	0.000
566.87	0.000
567.06	0.000
567.26	0.000
567.46	0.000
567.65	0.000
567.85	0.000
568.04	-0.000
568.24	-0.000
568.44	-0.000
568.63	-0.000
568.83	-0.000
569.02	-0.000
569.22	-0.000
569.42	-0.000
569.61	-0.000
569.81	-0.000
570.00	-0.000
570.20	-0.000
570.40	-0.000
570.59	-0.000
570.79	-0.000
570.98	-0.000
571.18	-0.000
571.38	-0.001
571.57	-0.001
571.77	-0.001
571.96	-0.001
572.16	-0.000
572.35	-0.000
572.55	-0.000
572.75	-0.000
572.94	-0.000
573.14	-0.000
573.33	0.000
573.53	0.000
573.73	0.000
573.92	0.000
574.12	0.000
574.31	0.000
574.51	0.000
574.70	0.000
574.90	0.000
575.09	-0.000
575.29	-0.000
575.49	-0.000
575.68	-0.000
575.88	-0.000
576.07	-0.000
576.27	-0.000
576.46	-0.000
576.66	-0.000
576.86	-0.000
577.05	-0.000
577.25	-0.000
577.44	-0.000
577.64	-0.000
577.83	-0.000
578.03	-0.000
578.22	-0.000
578.42	-0.000
578.61	-0.000
578.81	-0.000
579.00	-0.000
579.20	-0.000
579.40	-0.000
579.59	-0.000
579.79	-0.000
579.98	-0.000
580.18	-0.000
580.37	-0.000
580.57	-0.000
580.76	-0.000
580.96	-0.000
581.15	-0.000
581.35	-0.000
581.54	-0.000
581.74	-0.000
581.93	-0.000
582.13	-0.000
582.32	-0.000
582.52	-0.000
582.71	-0.000
582.91	-0.000
583.10	-0.000
583.30	-0.000
583.49	-0.000
583.69	-0.000
583.88	-0.000
584.08	-0.000
584.27	-0.000
584.47	-0.000
584.66	-0.000
584.86	-0.000
585.05	-0.000
585.25	-0.000
585.44	-0.000
585.64	-0.000
585.83	-0.000
586.03	-0.000
586.22	-0.000
586.42	-0.000
586.61	0.000
586.81	0.000
587.00	0.000
587.20	0.000
587.39	0.001
587.59	0.001
587.78	0.001
587.98	0.001
588.17	0.001
588.37	0.001
588.56	0.001
588.76	0.001
588.95	0.001
589.15	0.001
589.34	0.001
589.54	0.001
589.73	0.001
589.92	0.000
590.12	0.000
590.31	0.000
590.51	-0.000
590.70	0.000
590.90	-0.000
591.09	-0.000
591.29	-0.000
591.48	-0.000
591.68	-0.000
591.87	-0.000
592.06	0.000
592.26	0.000
592.45	0.000
592.65	0.000
592.84	0.000
593.04	0.000
593.23	0.000
593.43	0.001
593.62	0.001
593.81	0.001
594.01	0.001
594.20	0.001
594.40	0.001
594.59	0.001
594.79	0.001
594.98	0.001
595.17	0.001
595.37	0.001
595.56	0.001
595.76	0.001
595.95	0.001
596.14	0.000
596.34	0.000
596.53	0.000
596.73	-0.000
596.92	-0.000
597.12	-0.001
597.31	-0.001
597.50	-0.001
597.70	-0.001
597.89	-0.001
598.09	-0.001
598.28	-0.001
598.47	-0.001
598.67	-0.001
598.86	-0.001
599.06	-0.000
599.25	-0.000
599.44	-0.000
599.64	-0.000
599.83	0.000
600.03	0.000
600.22	0.001
600.41	0.001
600.61	0.001
600.80	0.001
601.00	0.001
601.19	0.001
601.38	0.001
601.58	0.001
601.77	0.001
601.96	0.001
602.16	0.001
602.35	0.001
602.55	0.001
602.74	0.001
602.93	0.001
603.13	0.000
603.32	0.000
603.51	0.000
603.71	-0.000
603.90	-0.000
604.09	-0.000
604.29	-0.001
604.48	-0.001
604.68	-0.000
604.87	-0.000
605.06	-0.000
605.26	-0.000
605.45	-0.000
605.64	-0.000
605.84	-0.000
606.03	-0.000
606.22	-0.000
606.42	0.000
606.61	0.000
606.80	0.000
607.00	0.000
607.19	0.000
607.38	0.000
607.58	0.000
607.77	0.001
607.96	0.001
608.16	0.001
608.35	0.001
608.54	0.001
608.74	0.001
608.93	0.001
609.12	0.001
609.32	0.001
609.51	0.001
609.70	0.001
609.90	0.002
610.09	0.002
610.28	0.001
610.48	0.001
610.67	0.001
610.86	0.001
611.06	0.001
611.25	0.001
611.44	0.001
611.64	0.001
611.83	0.000
612.02	0.000
612.21	0.000
612.41	0.000
612.60	0.000
612.79	0.000
612.99	0.000
613.18	0.000
613.37	0.000
613.57	0.000
613.76	0.000
613.95	0.001
614.14	0.001
614.34	0.001
614.53	0.001
614.72	0.001
614.92	0.001
615.11	0.001
615.30	0.001
615.49	0.001
615.69	0.001
615.88	0.002
616.07	0.001
616.26	0.002
616.46	0.002
616.65	0.002
616.84	0.002
617.04	0.002
617.23	0.002
617.42	0.002
617.61	0.002
617.81	0.002
618.00	0.002
618.19	0.002
618.38	0.002
618.58	0.002
618.77	0.002
618.96	0.002
619.15	0.002
619.35	0.002
619.54	0.002
619.73	0.002
619.92	0.001
620.12	0.001
620.31	0.001
620.50	0.002
620.69	0.002
620.89	0.002
621.08	0.002
621.27	0.002
621.46	0.002
621.66	0.002
621.85	0.002
622.04	0.002
622.23	0.002
622.43	0.001
622.62	0.001
622.81	0.002
623.00	0.002
623.19	0.002
623.39	0.002
623.58	0.002
623.77	0.002
623.96	0.002
624.16	0.002
624.35	0.002
624.54	0.002
624.73	0.002
624.92	0.002
625.12	0.002
625.31	0.002
625.50	0.002
625.69	0.002
625.88	0.002
626.08	0.002
626.27	0.002
626.46	0.002
626.65	0.002
626.84	0.002
627.04	0.003
627.23	0.003
627.42	0.003
627.61	0.003
627.80	0.003
628.00	0.003
628.19	0.003
628.38	0.003
628.57	0.003
628.76	0.003
628.96	0.003
629.15	0.003
629.34	0.003
629.53	0.003
629.72	0.003
629.91	0.003
630.11	0.003
630.30	0.003
630.49	0.003
630.68	0.003
630.87	0.003
631.06	0.003
631.26	0.003
631.45	0.003
631.64	0.003
631.83	0.003
632.02	0.003
632.21	0.003
632.41	0.003
632.60	0.003
632.79	0.003
632.98	0.003
633.17	0.003
633.36	0.003
633.55	0.003
633.75	0.003
633.94	0.003
634.13	0.003
634.32	0.003
634.51	0.003
634.70	0.002
634.89	0.003
635.09	0.003
635.28	0.003
635.47	0.003
635.66	0.003
635.85	0.003
636.04	0.003
636.23	0.003
636.43	0.003
636.62	0.003
636.81	0.003
637.00	0.003
637.19	0.003
637.38	0.003
637.57	0.003
637.76	0.003
637.95	0.003
638.15	0.003
638.34	0.003
638.53	0.003
638.72	0.003
638.91	0.003
639.10	0.003
639.29	0.003
639.48	0.003
639.67	0.003
639.87	0.003
640.06	0.004
640.25	0.004
640.44	0.003
640.63	0.003
640.82	0.003
641.01	0.003
641.20	0.003
641.39	0.003
641.58	0.003
641.78	0.003
641.97	0.003
642.16	0.003
642.35	0.004
642.54	0.004
642.73	0.004
642.92	0.004
643.11	0.004
643.30	0.004
643.49	0.004
643.68	0.003
643.87	0.003
644.06	0.004
644.25	0.004
644.45	0.004
644.64	0.003
644.83	0.004
645.02	0.004
645.21	0.004
645.40	0.004
645.59	0.004
645.78	0.004
645.97	0.004
646.16	0.003
646.35	0.003
646.54	0.003
646.73	0.003
646.92	0.003
647.11	0.003
647.30	0.003
647.49	0.002
647.68	0.002
647.88	0.002
648.07	0.002
648.26	0.002
648.45	0.003
648.64	0.002
648.83	0.002
649.02	0.002
649.21	0.003
649.40	0.003
649.59	0.003
649.78	0.003
649.97	0.003
650.16	0.003
650.35	0.003
650.54	0.003
650.73	0.003
650.92	0.003
651.11	0.003
651.30	0.003
651.49	0.003
651.68	0.003
651.87	0.004
652.06	0.004
652.25	0.004
652.44	0.003
652.63	0.003
652.82	0.002
653.01	0.001
653.20	0.001
653.39	0.001
653.58	0.000
653.77	-0.000
653.96	-0.000
654.15	-0.000
654.34	-0.001
654.53	-0.001
654.72	-0.000
654.91	-0.000
655.10	0.000
655.29	0.000
655.48	0.001
655.67	0.001
655.86	0.001
656.05	0.001
656.24	0.001
656.43	0.001
656.62	0.001
656.81	0.001
657.00	0.002
657.19	0.002
657.38	0.003
657.57	0.003
657.76	0.003
657.95	0.004
658.14	0.004
658.33	0.005
658.51	0.005
658.70	0.005
658.89	0.006
659.08	0.005
659.27	0.005
659.46	0.004
659.65	0.004
659.84	0.004
660.03	0.004
660.22	0.004
660.41	0.004
660.60	0.004
660.79	0.004
660.98	0.004
661.17	0.004
661.36	0.004
661.55	0.004
661.74	0.004
661.92	0.004
662.11	0.003
662.30	0.003
662.49	0.004
662.68	0.004
662.87	0.004
663.06	0.004
663.25	0.004
663.44	0.004
663.63	0.004
663.82	0.004
664.01	0.004
664.20	0.004
664.38	0.004
664.57	0.004
664.76	0.003
664.95	0.003
665.14	0.003
665.33	0.003
665.52	0.003
665.71	0.003
665.90	0.003
666.09	0.003
666.28	0.003
666.46	0.003
666.65	0.004
666.84	0.004
667.03	0.004
667.22	0.004
667.41	0.004
667.60	0.004
667.79	0.004
667.98	0.003
668.16	0.003
668.35	0.003
668.54	0.003
668.73	0.003
668.92	0.003
669.11	0.003
669.30	0.003
669.49	0.003
669.67	0.003
669.86	0.003
670.05	0.003
670.24	0.003
670.43	0.003
670.62	0.003
670.81	0.003
671.00	0.003
671.18	0.003
671.37	0.003
671.56	0.003
671.75	0.003
671.94	0.003
672.13	0.003
672.32	0.003
672.50	0.003
672.69	0.003
672.88	0.003
673.07	0.003
673.26	0.003
673.45	0.003
673.63	0.003
673.82	0.003
674.01	0.004
674.20	0.004
674.39	0.004
674.58	0.004
674.76	0.004
674.95	0.004
675.14	0.004
675.33	0.004
675.52	0.004
675.71	0.004
675.89	0.003
676.08	0.003
676.27	0.003
676.46	0.003
676.65	0.003
676.84	0.003
677.02	0.003
677.21	0.003
677.40	0.003
677.59	0.003
677.78	0.003
677.96	0.004
678.15	0.004
678.34	0.003
678.53	0.003
678.72	0.003
678.90	0.003
679.09	0.003
679.28	0.003
679.47	0.003
679.66	0.003
679.84	0.003
680.03	0.003
680.22	0.003
680.41	0.003
680.60	0.003
680.78	0.003
680.97	0.003
681.16	0.003
681.35	0.003
681.53	0.003
681.72	0.003
681.91	0.003
682.10	0.003
682.29	0.003
682.47	0.003
682.66	0.003
682.85	0.003
683.04	0.003
683.22	0.003
683.41	0.003
683.60	0.003
683.79	0.003
683.97	0.003
684.16	0.003
684.35	0.003
684.54	0.003
684.72	0.003
684.91	0.003
685.10	0.003
685.29	0.003
685.47	0.003
685.66	0.003
685.85	0.003
686.04	0.003
686.22	0.003
686.41	0.003
686.60	0.003
686.79	0.003
686.97	0.003
687.16	0.003
687.35	0.004
687.54	0.004
687.72	0.004
687.91	0.004
688.10	0.004
688.29	0.004
688.47	0.004
688.66	0.004
688.85	0.004
689.03	0.004
689.22	0.004
689.41	0.004
689.60	0.004
689.78	0.003
689.97	0.003
690.16	0.003
690.34	0.003
690.53	0.003
690.72	0.003
690.91	0.004
691.09	0.004
691.28	0.003
691.47	0.003
691.65	0.003
691.84	0.003
692.03	0.003
692.21	0.003
692.40	0.003
692.59	0.003
692.77	0.003
692.96	0.003
693.15	0.003
693.34	0.004
693.52	0.004
693.71	0.004
693.90	0.004
694.08	0.004
694.27	0.004
694.46	0.004
694.64	0.004
694.83	0.004
695.02	0.004
695.20	0.004
695.39	0.004
695.58	0.004
695.76	0.003
695.95	0.003
696.14	0.003
696.32	0.003
696.51	0.003
696.70	0.003
696.88	0.003
697.07	0.003
697.26	0.003
697.44	0.003
697.63	0.003
697.81	0.003
698.00	0.003
698.19	0.004
698.37	0.003
698.56	0.003
698.75	0.004
698.93	0.004
699.12	0.004
699.31	0.004
699.49	0.004
699.68	0.004
699.87	0.004
700.05	0.004
700.24	0.004
700.42	0.004
700.61	0.004
700.80	0.004
700.98	0.004
701.17	0.003
701.36	0.004
701.54	0.004
701.73	0.004
701.91	0.004
702.10	0.004
702.29	0.004
702.47	0.004
702.66	0.004
702.84	0.004
703.03	0.004
703.22	0.004
703.40	0.004
703.59	0.004
703.77	0.004
703.96	0.004
704.15	0.004
704.33	0.004
704.52	0.004
704.70	0.004
704.89	0.004
705.08	0.004
705.26	0.004
705.45	0.004
705.63	0.004
705.82	0.003
706.00	0.003
706.19	0.003
706.38	0.003
706.56	0.003
706.75	0.003
706.93	0.003
707.12	0.003
707.30	0.003
707.49	0.003
707.68	0.003
707.86	0.003
708.05	0.003
708.23	0.003
708.42	0.003
708.60	0.003
708.79	0.003
708.98	0.003
709.16	0.003
709.35	0.003
709.53	0.003
709.72	0.003
709.90	0.004
710.09	0.003
710.27	0.003
710.46	0.003
710.64	0.004
710.83	0.004
711.02	0.004
711.20	0.004
711.39	0.003
711.57	0.004
711.76	0.004
711.94	0.004
712.13	0.004
712.31	0.004
712.50	0.004
712.68	0.004
712.87	0.004
713.05	0.004
713.24	0.004
713.42	0.004
713.61	0.003
713.79	0.004
713.98	0.003
714.16	0.003
714.35	0.003
714.54	0.003
714.72	0.003
714.91	0.003
715.09	0.003
715.28	0.003
715.46	0.003
715.65	0.003
715.83	0.003
716.02	0.003
716.20	0.003
716.39	0.003
716.57	0.003
716.76	0.003
716.94	0.003
717.12	0.003
717.31	0.003
717.49	0.003
717.68	0.003
717.86	0.003
718.05	0.002
718.23	0.002
718.42	0.003
718.60	0.002
718.79	0.002
718.97	0.002
719.16	0.002
719.34	0.003
719.53	0.003
719.71	0.003
719.90	0.003
720.08	0.003
720.27	0.003
720.45	0.003
720.63	0.003
720.82	0.003
721.00	0.003
721.19	0.003
721.37	0.003
721.56	0.003
721.74	0.003
721.93	0.003
722.11	0.003
722.30	0.003
722.48	0.003
722.66	0.003
722.85	0.003
723.03	0.003
723.22	0.003
723.40	0.002
723.59	0.003
723.77	0.003
723.95	0.003
724.14	0.003
724.32	0.003
724.51	0.003
724.69	0.003
724.88	0.003
725.06	0.003
725.24	0.003
725.43	0.003
725.61	0.002
725.80	0.002
725.98	0.002
726.16	0.002
726.35	0.002
726.53	0.002
726.72	0.002
726.90	0.002
727.09	0.002
727.27	0.002
727.45	0.002
727.64	0.002
727.82	0.002
728.01	0.002
728.19	0.002
728.37	0.002
728.56	0.002
728.74	0.002
728.92	0.002
729.11	0.003
729.29	0.003
729.48	0.003
729.66	0.002
729.84	0.002
730.03	0.002
730.21	0.002
730.40	0.002
730.58	0.002
730.76	0.002
730.95	0.002
731.13	0.001
731.31	0.001
731.50	0.002
731.68	0.002
731.86	0.002
732.05	0.002
732.23	0.002
732.42	0.002
732.60	0.002
732.78	0.002
732.97	0.002
733.15	0.002
733.33	0.002
733.52	0.002
733.70	0.001
733.88	0.001
734.07	0.000
734.25	0.000
734.43	0.000
734.62	0.000
734.80	-0.000
734.98	-0.000
735.17	-0.000
735.35	-0.000
735.53	-0.000
735.72	0.000
735.90	0.001
736.08	0.001
736.27	0.000
736.45	0.000
736.63	-0.000
736.82	-0.000
737.00	-0.000
737.18	0.000
737.37	-0.000
737.55	-0.001
737.73	-0.001
737.92	-0.001
738.10	-0.002
738.28	-0.001
738.46	-0.001
738.65	-0.001
738.83	-0.001
739.01	-0.001
739.20	-0.001
739.38	-0.001
739.56	-0.001
739.75	-0.001
739.93	-0.000
740.11	-0.000
740.29	0.000
740.48	0.000
740.66	-0.000
740.84	-0.000
741.03	-0.001
741.21	0.001
741.39	0.001
741.57	0.000
741.76	-0.000
741.94	-0.000
742.12	-0.001
742.31	-0.001
742.49	-0.000
742.67	-0.000
742.85	-0.000
743.04	-0.000
743.22	-0.000
743.40	0.000
743.58	0.001
743.77	0.001
743.95	0.001
744.13	0.001
744.31	0.001
744.50	0.002
744.68	0.001
744.86	0.002
745.04	0.002
745.23	0.002
745.41	0.002
745.59	0.001
745.77	0.002
745.96	0.002
746.14	0.002
746.32	0.002
746.50	0.001
746.69	0.001
746.87	0.001
747.05	0.000
747.23	0.000
747.42	0.000
747.60	0.001
747.78	0.000
747.96	0.001
748.14	0.001
748.33	0.001
748.51	0.001
748.69	0.001
748.87	0.002
749.06	0.003
749.24	0.003
749.42	0.003
749.60	0.003
749.78	0.002
749.97	0.002
750.15	0.001
750.33	0.001
750.51	0.001
750.69	0.001
750.88	0.001
751.06	0.000
751.24	0.000
751.42	0.000
751.60	0.000
751.79	0.001
751.97	0.001
752.15	0.001
752.33	0.001
752.51	0.000
752.69	0.000
752.88	0.001
753.06	0.002
753.24	0.002
753.42	0.002
753.60	0.002
753.78	0.001
753.97	0.001
754.15	0.002
754.33	0.002
754.51	0.002
754.69	0.002
754.87	0.002
755.06	0.001
755.24	0.000
755.42	0.001
755.60	0.001
755.78	0.001
755.96	0.001
756.15	0.000
756.33	0.000
756.51	0.001
756.69	0.001
756.87	0.001
757.05	0.001
757.23	0.001
757.42	0.001
757.60	0.001
757.78	0.001
757.96	0.001
758.14	0.001
758.32	0.001
758.50	0.001
758.69	0.001
758.87	0.001
759.05	0.002
759.23	0.002
759.41	0.002
759.59	0.002
759.77	0.002
759.95	0.002
760.13	0.002
760.32	0.002
760.50	0.002
760.68	0.002
760.86	0.002
761.04	0.002
761.22	0.002
761.40	0.002
761.58	0.002
761.76	0.002
761.95	0.002
762.13	0.001
762.31	0.001
762.49	0.002
762.67	0.002
762.85	0.002
763.03	0.002
763.21	0.002
763.39	0.002
763.57	0.002
763.75	0.002
763.94	0.002
764.12	0.002
764.30	0.002
764.48	0.002
764.66	0.001
764.84	0.001
765.02	0.001
765.20	0.001
765.38	0.001
765.56	0.001
765.74	0.001
765.92	0.001
766.10	0.002
766.28	0.002
766.46	0.002
766.65	0.002
766.83	0.002
767.01	0.002
767.19	0.002
767.37	0.002
767.55	0.002
767.73	0.003
767.91	0.002
768.09	0.002
768.27	0.002
768.45	0.003
768.63	0.003
768.81	0.003
768.99	0.003
769.17	0.003
769.35	0.003
769.53	0.003
769.71	0.003
769.89	0.004
770.07	0.004
770.25	0.004
770.43	0.004
770.61	0.004
770.79	0.005
770.97	0.004
771.15	0.004
771.33	0.004
771.51	0.004
771.69	0.004
771.87	0.003
772.05	0.003
772.24	0.003
772.42	0.003
772.60	0.003
772.78	0.004
772.96	0.004
773.14	0.004
773.32	0.004
773.49	0.004
773.67	0.005
773.85	0.005
774.03	0.005
774.21	0.005
774.39	0.004
774.57	0.004
774.75	0.004
774.93	0.003
775.11	0.004
775.29	0.004
775.47	0.004
775.65	0.004
775.83	0.004
776.01	0.003
776.19	0.004
776.37	0.004
776.55	0.004
776.73	0.004
776.91	0.004
777.09	0.004
777.27	0.004
777.45	0.005
777.63	0.005
777.81	0.005
777.99	0.005
778.17	0.006
778.35	0.006
778.53	0.006
778.71	0.006
778.89	0.006
779.07	0.005
779.24	0.005
779.42	0.004
779.60	0.004
779.78	0.004
779.96	0.004
780.14	0.003
780.32	0.003
780.50	0.003
780.68	0.002
780.86	0.002
781.04	0.002
781.22	0.003
781.40	0.004
781.58	0.004
781.75	0.004
781.93	0.004
782.11	0.005
782.29	0.005
782.47	0.005
782.65	0.006
782.83	0.006
783.01	0.006
783.19	0.006
783.37	0.006
783.55	0.005
783.72	0.005
783.90	0.005
784.08	0.004
784.26	0.004
784.44	0.005
784.62	0.004
784.80	0.004
784.98	0.004
785.16	0.005
785.33	0.005
785.51	0.005
785.69	0.005
785.87	0.005
786.05	0.005
786.23	0.005
786.41	0.005
786.59	0.005
786.77	0.005
786.94	0.004
787.12	0.004
787.30	0.004
787.48	0.004
787.66	0.004
787.84	0.004
788.02	0.004
788.19	0.004
788.37	0.004
788.55	0.005
788.73	0.004
788.91	0.004
789.09	0.004
789.27	0.005
789.44	0.005
789.62	0.005
789.80	0.005
789.98	0.005
790.16	0.005
790.34	0.005
790.51	0.005
790.69	0.005
790.87	0.005
791.05	0.005
791.23	0.005
791.41	0.005
791.58	0.006
791.76	0.006
791.94	0.006
792.12	0.006
792.30	0.006
792.48	0.005
792.65	0.005
792.83	0.005
793.01	0.006
793.19	0.005
793.37	0.005
793.54	0.005
793.72	0.004
793.90	0.005
794.08	0.005
794.26	0.005
794.43	0.005
794.61	0.005
794.79	0.005
794.97	0.005
795.15	0.005
795.32	0.005
795.50	0.005
795.68	0.006
795.86	0.005
796.04	0.005
796.21	0.006
796.39	0.005
796.57	0.006
796.75	0.005
796.92	0.005
797.10	0.005
797.28	0.005
797.46	0.005
797.64	0.004
797.81	0.004
797.99	0.004
798.17	0.004
798.35	0.005
798.52	0.004
798.70	0.004
798.88	0.005
799.06	0.004
799.23	0.004
799.41	0.005
799.59	0.005
799.77	0.006
799.94	0.006
800.12	0.006
800.30	0.005
800.48	0.005
800.65	0.005
800.83	0.005
801.01	0.004
801.19	0.005
801.36	0.005
801.54	0.005
801.72	0.005
801.90	0.005
802.07	0.005
802.25	0.005
802.43	0.005
802.60	0.006
802.78	0.006
802.96	0.006
803.14	0.005
803.31	0.005
803.49	0.005
803.67	0.005
803.84	0.005
804.02	0.005
804.20	0.005
804.38	0.005
804.55	0.005
804.73	0.005
804.91	0.005
805.08	0.005
805.26	0.005
805.44	0.005
805.61	0.006
805.79	0.006
805.97	0.006
806.15	0.006
806.32	0.006
806.50	0.006
806.68	0.005
806.85	0.005
807.03	0.005
807.21	0.005
807.38	0.006
807.56	0.005
807.74	0.005
807.91	0.005
808.09	0.005
808.27	0.005
808.44	0.005
808.62	0.005
808.80	0.005
808.97	0.004
809.15	0.004
809.33	0.004
809.50	0.004
809.68	0.004
809.86	0.004
810.03	0.004
810.21	0.004
810.39	0.005
810.56	0.004
810.74	0.004
810.91	0.005
811.09	0.004
811.27	0.004
811.44	0.004
811.62	0.004
811.80	0.004
811.97	0.004
812.15	0.004
812.33	0.005
812.50	0.005
812.68	0.005
812.85	0.005
813.03	0.005
813.21	0.005
813.38	0.005
813.56	0.005
813.74	0.005
813.91	0.005
814.09	0.004
814.26	0.004
814.44	0.004
814.62	0.004
814.79	0.004
814.97	0.004
815.14	0.004
815.32	0.004
815.50	0.004
815.67	0.004
815.85	0.005
816.02	0.005
816.20	0.005
816.38	0.005
816.55	0.005
816.73	0.005
816.90	0.005
817.08	0.005
817.26	0.005
817.43	0.005
817.61	0.005
817.78	0.005
817.96	0.005
818.13	0.005
818.31	0.005
818.49	0.005
818.66	0.005
818.84	0.005
819.01	0.004
819.19	0.005
819.36	0.005
819.54	0.004
819.71	0.005
819.89	0.004
820.07	0.004
820.24	0.004
820.42	0.004
820.59	0.004
820.77	0.004
820.94	0.004
821.12	0.004
821.29	0.004
821.47	0.004
821.64	0.004
821.82	0.005
822.00	0.004
822.17	0.004
822.35	0.004
822.52	0.004
822.70	0.004
822.87	0.004
823.05	0.003
823.22	0.003
823.40	0.003
823.57	0.003
823.75	0.003
823.92	0.003
824.10	0.003
824.27	0.003
824.45	0.003
824.62	0.004
824.80	0.004
824.97	0.004
825.15	0.004
825.32	0.005
825.50	0.004
825.67	0.004
825.85	0.004
826.02	0.004
826.20	0.004
826.37	0.005
826.55	0.005
826.72	0.005
826.90	0.005
827.07	0.005
827.25	0.005
827.42	0.005
827.60	0.005
827.77	0.005
827.95	0.004
828.12	0.004
828.30	0.004
828.47	0.003
828.65	0.002
828.82	0.003
829.00	0.002
829.17	0.003
829.34	0.003
829.52	0.003
829.69	0.004
829.87	0.004
830.04	0.003
830.22	0.004
830.39	0.005
830.57	0.005
830.74	0.006
830.92	0.006
831.09	0.005
831.26	0.006
831.44	0.007
831.61	0.008
831.79	0.008
831.96	0.008
832.14	0.008
832.31	0.007
832.49	0.007
832.66	0.007
832.83	0.008
833.01	0.008
833.18	0.008
833.36	0.006
833.53	0.007
833.70	0.006
833.88	0.006
834.05	0.005
834.23	0.006
834.40	0.005
834.58	0.005
834.75	0.004
834.92	0.003
835.10	0.002
835.27	0.001
835.45	-0.000
835.62	-0.001
835.79	-0.000
835.97	0.000
836.14	-0.001
836.32	-0.000
836.49	-0.001
836.66	-0.002
836.84	-0.001
837.01	-0.001
837.18	-0.001
837.36	0.000
837.53	0.000
837.71	-0.001
837.88	0.000
838.05	-0.000
838.23	-0.000
838.40	-0.000
838.58	0.000
838.75	-0.001
838.92	-0.001
839.10	-0.001
839.27	-0.001
839.44	0.000
839.62	0.001
839.79	0.001
839.96	0.004
840.14	0.004
840.31	0.005
840.48	0.004
840.66	0.007
840.83	0.009
841.01	0.008
841.18	0.008
841.35	0.007
841.53	0.003
841.70	0.002
841.87	0.002
842.05	0.001
842.22	-0.000
842.39	0.001
842.57	-0.002
842.74	-0.003
842.91	-0.001
843.09	0.000
843.26	0.002
843.43	0.006
843.60	0.005
843.78	0.006
843.95	0.007
844.12	0.006
844.30	0.006
844.47	0.008
844.64	0.007
844.82	0.005
844.99	0.004
845.16	0.004
845.34	0.004
845.51	0.005
845.68	0.005
845.85	0.004
846.03	0.002
846.20	0.002
846.37	0.002
846.55	0.005
846.72	0.007
846.89	0.006
847.06	0.005
847.24	0.005
847.41	0.004
847.58	0.003
847.76	0.007
847.93	0.010
848.10	0.009
848.27	0.008
848.45	0.009
848.62	0.007
848.79	0.007
848.97	0.008
849.14	0.007
849.31	0.008
849.48	0.008
849.66	0.006
849.83	0.005
850.00	0.005
850.17	0.003
850.35	-0.001
850.52	-0.003
850.69	-0.001
850.86	-0.001
851.04	0.002
851.21	0.001
851.38	0.000
851.55	-0.002
851.72	-0.002
851.90	0.000
852.07	0.001
852.24	0.004
852.41	0.006
852.59	0.005
852.76	0.006
852.93	0.004
853.10	0.005
853.28	0.007
853.45	0.006
853.62	0.008
853.79	0.006
853.96	0.007
854.14	0.007
854.31	0.007
854.48	0.006
854.65	0.005
854.82	0.008
855.00	0.008
855.17	0.007
855.34	0.009
855.51	0.009
855.68	0.009
855.86	0.010
856.03	0.010
856.20	0.010
856.37	0.009
856.54	0.008
856.72	0.005
856.89	0.006
857.06	0.005
857.23	0.005
857.40	0.005
857.57	0.004
857.75	0.004
857.92	0.003
858.09	0.004
858.26	0.004
858.43	0.002
858.60	0.005
858.78	0.004
858.95	0.004
859.12	0.005
859.29	0.004
859.46	0.003
859.63	0.005
859.81	0.007
859.98	0.007
860.15	0.005
860.32	0.008
860.49	0.002
860.66	0.000
860.83	0.003
861.01	-0.000
861.18	-0.001
861.35	-0.001
861.52	-0.003
861.69	-0.006
861.86	-0.007
862.03	-0.004
862.21	-0.002
862.38	0.002
862.55	0.001
862.72	0.000
862.89	0.003
863.06	0.004
863.23	0.007
863.40	0.005
863.58	0.003
863.75	0.004
863.92	0.001
864.09	-0.001
864.26	-0.003
864.43	-0.001
864.60	0.001
864.77	-0.002
864.94	-0.000
865.11	-0.002
865.29	-0.001
865.46	0.004
865.63	0.007
865.80	0.010
865.97	0.012
866.14	0.014
866.31	0.014
866.48	0.012
866.65	0.016
866.82	0.014
866.99	0.013
867.16	0.012
867.34	0.009
867.51	0.007
867.68	0.003
867.85	0.000
868.02	-0.003
868.19	-0.006
868.36	-0.006
868.53	-0.007
868.70	-0.007
868.87	-0.009
869.04	-0.007
869.21	-0.003
869.38	-0.000
869.55	0.001
869.72	0.005
869.89	0.009
870.06	0.009
870.24	0.012
870.41	0.010
870.58	0.006
870.75	0.013
870.92	0.015
871.09	0.010
871.26	0.008
871.43	0.011
871.60	0.010
871.77	0.010
871.94	0.011
872.11	0.006
872.28	0.006
872.45	0.009
872.62	0.002
872.79	-0.006
872.96	-0.005
873.13	-0.012
873.30	-0.012
873.47	-0.016
873.64	-0.015
873.81	-0.012
873.98	-0.009
874.15	-0.006
874.32	-0.006
874.49	0.002
874.66	0.010
874.83	0.013
875.00	0.016
875.17	0.015
875.34	0.017
875.51	0.020
875.68	0.019
875.85	0.016
876.02	0.017
876.19	0.017
876.36	0.011
876.53	0.011
876.70	0.013
876.87	0.016
877.04	0.014
877.21	0.020
877.38	0.018
877.55	0.024
877.72	0.028
877.89	0.024
878.06	0.022
878.23	0.025
878.39	0.022
878.56	0.020
878.73	0.020
878.90	0.024
879.07	0.020
879.24	0.018
879.41	0.015
879.58	0.014
879.75	0.016
879.92	0.022
880.09	0.022
880.26	0.025
880.43	0.024
880.60	0.026
880.77	0.027
880.94	0.025
881.11	0.022
881.27	0.024
881.44	0.023
881.61	0.020
881.78	0.017
881.95	0.016
882.12	0.010
882.29	0.008
882.46	-0.004
882.63	0.001
882.80	0.007
882.97	0.009
883.14	0.005
883.30	0.003
883.47	0.001
883.64	-0.000
883.81	0.005
883.98	0.002
884.15	0.003
884.32	0.015
884.49	0.010
884.66	0.006
884.82	0.008
884.99	0.003
885.16	0.006
885.33	0.005
885.50	0.006
885.67	0.006
885.84	0.014
886.01	0.013
886.17	0.010
886.34	0.016
886.51	0.019
886.68	0.011
886.85	0.016
887.02	0.016
887.19	0.024
887.36	0.025
887.52	0.026
887.69	0.029
887.86	0.031
888.03	0.031
888.20	0.031
888.37	0.017
888.54	0.020
888.70	0.016
888.87	0.022
889.04	0.016
889.21	0.017
889.38	0.013
889.55	0.008
889.71	0.120
889.88	-0.033
890.05	-0.011
890.22	0.042
890.39	-0.019
>>>>>End Processed Spectral Data<<<<<
