SpectraSuite Data File
++++++++++++++++++++++++++++++++++++
Date: Mon Jun 15 09:48:10 PDT 2015
User: introlabs
Dark Spectrum Present: Yes
Reference Spectrum Present: Yes
Number of Sampled Component Spectra: 1
Spectrometers: USB4H08886
Integration Time (usec): 44366 (USB4H08886)
Spectra Averaged: 20 (USB4H08886)
Boxcar Smoothing: 5 (USB4H08886)
Correct for Electrical Dark: Yes (USB4H08886)
Strobe/Lamp Enabled: No (USB4H08886)
Correct for Detector Non-linearity: Yes (USB4H08886)
Correct for Stray Light: Yes (USB4H08886)
Number of Pixels in Processed Spectrum: 3648
>>>>>Begin Processed Spectral Data<<<<<
178.14	-0.000
178.36	-0.000
178.57	-0.000
178.79	-0.000
179.01	-0.929
179.22	-0.000
179.44	-0.000
179.65	-0.066
179.87	-0.000
180.08	-0.000
180.30	1.496
180.52	-0.000
180.73	-0.000
180.95	1.268
181.16	0.740
181.38	0.556
181.59	0.658
181.81	0.695
182.03	0.729
182.24	0.679
182.46	0.674
182.67	0.663
182.89	0.625
183.10	0.614
183.32	0.633
183.54	0.588
183.75	0.592
183.97	0.587
184.18	0.577
184.40	0.567
184.61	0.592
184.83	0.616
185.04	0.611
185.26	0.607
185.48	0.617
185.69	0.654
185.91	0.661
186.12	0.659
186.34	0.661
186.55	0.633
186.77	0.649
186.98	0.643
187.20	0.597
187.42	0.620
187.63	0.625
187.85	0.665
188.06	0.686
188.28	0.711
188.49	0.697
188.71	0.683
188.92	0.723
189.14	0.743
189.36	0.693
189.57	0.705
189.79	0.677
190.00	0.676
190.22	0.621
190.43	0.578
190.65	0.584
190.86	0.597
191.08	0.613
191.29	0.600
191.51	0.596
191.72	0.602
191.94	0.638
192.16	0.654
192.37	0.654
192.59	0.686
192.80	0.678
193.02	0.681
193.23	0.682
193.45	0.692
193.66	0.704
193.88	0.698
194.09	0.735
194.31	0.707
194.52	0.709
194.74	0.712
194.95	0.732
195.17	0.773
195.38	0.766
195.60	0.764
195.81	0.761
196.03	0.755
196.25	0.760
196.46	0.736
196.68	0.765
196.89	0.759
197.11	0.772
197.32	0.743
197.54	0.705
197.75	0.731
197.97	0.736
198.18	0.700
198.40	0.733
198.61	0.713
198.83	0.705
199.04	0.673
199.26	0.675
199.47	0.668
199.69	0.660
199.90	0.685
200.12	0.630
200.33	0.649
200.55	0.663
200.76	0.640
200.98	0.612
201.19	0.604
201.41	0.594
201.62	0.599
201.84	0.597
202.05	0.619
202.27	0.612
202.48	0.663
202.70	0.659
202.91	0.665
203.13	0.649
203.34	0.646
203.56	0.666
203.77	0.661
203.99	0.624
204.20	0.630
204.42	0.587
204.63	0.585
204.85	0.565
205.06	0.555
205.28	0.546
205.49	0.552
205.71	0.570
205.92	0.579
206.14	0.594
206.35	0.628
206.56	0.643
206.78	0.682
206.99	0.695
207.21	0.717
207.42	0.710
207.64	0.706
207.85	0.737
208.07	0.780
208.28	0.767
208.50	0.750
208.71	0.734
208.93	0.724
209.14	0.713
209.36	0.705
209.57	0.692
209.79	0.717
210.00	0.725
210.22	0.695
210.43	0.672
210.64	0.672
210.86	0.699
211.07	0.682
211.29	0.699
211.50	0.705
211.72	0.675
211.93	0.697
212.15	0.672
212.36	0.666
212.58	0.682
212.79	0.704
213.01	0.704
213.22	0.679
213.43	0.703
213.65	0.673
213.86	0.670
214.08	0.698
214.29	0.658
214.51	0.687
214.72	0.714
214.94	0.692
215.15	0.694
215.36	0.683
215.58	0.699
215.79	0.697
216.01	0.692
216.22	0.708
216.44	0.720
216.65	0.757
216.87	0.734
217.08	0.710
217.29	0.728
217.51	0.721
217.72	0.717
217.94	0.726
218.15	0.749
218.37	0.762
218.58	0.756
218.80	0.735
219.01	0.691
219.22	0.703
219.44	0.719
219.65	0.696
219.87	0.702
220.08	0.696
220.30	0.685
220.51	0.679
220.72	0.701
220.94	0.720
221.15	0.728
221.37	0.749
221.58	0.761
221.79	0.756
222.01	0.773
222.22	0.769
222.44	0.799
222.65	0.798
222.87	0.771
223.08	0.746
223.29	0.733
223.51	0.759
223.72	0.764
223.94	0.760
224.15	0.755
224.36	0.760
224.58	0.764
224.79	0.776
225.01	0.780
225.22	0.799
225.44	0.818
225.65	0.789
225.86	0.775
226.08	0.796
226.29	0.784
226.51	0.808
226.72	0.814
226.93	0.808
227.15	0.799
227.36	0.811
227.58	0.807
227.79	0.817
228.00	0.872
228.22	0.885
228.43	0.920
228.65	0.949
228.86	0.940
229.07	0.969
229.29	0.971
229.50	0.957
229.72	0.966
229.93	0.981
230.14	0.964
230.36	0.949
230.57	0.947
230.78	0.918
231.00	0.929
231.21	0.933
231.43	0.910
231.64	0.936
231.85	0.978
232.07	0.971
232.28	0.994
232.50	1.004
232.71	1.013
232.92	1.026
233.14	1.037
233.35	1.042
233.56	1.061
233.78	1.088
233.99	1.095
234.21	1.103
234.42	1.123
234.63	1.136
234.85	1.161
235.06	1.175
235.27	1.187
235.49	1.195
235.70	1.194
235.91	1.199
236.13	1.222
236.34	1.243
236.56	1.231
236.77	1.254
236.98	1.249
237.20	1.285
237.41	1.300
237.62	1.318
237.84	1.356
238.05	1.382
238.26	1.397
238.48	1.392
238.69	1.398
238.91	1.428
239.12	1.423
239.33	1.446
239.55	1.429
239.76	1.420
239.97	1.444
240.19	1.439
240.40	1.451
240.61	1.464
240.83	1.488
241.04	1.514
241.25	1.533
241.47	1.582
241.68	1.610
241.89	1.651
242.11	1.672
242.32	1.657
242.53	1.688
242.75	1.699
242.96	1.739
243.17	1.760
243.39	1.755
243.60	1.767
243.81	1.754
244.03	1.752
244.24	1.759
244.45	1.774
244.67	1.779
244.88	1.777
245.09	1.775
245.31	1.755
245.52	1.750
245.73	1.765
245.95	1.781
246.16	1.776
246.37	1.790
246.59	1.775
246.80	1.810
247.01	1.826
247.23	1.835
247.44	1.865
247.65	1.874
247.87	1.879
248.08	1.878
248.29	1.870
248.51	1.899
248.72	1.901
248.93	1.898
249.15	1.887
249.36	1.896
249.57	1.883
249.78	1.877
250.00	1.886
250.21	1.893
250.42	1.901
250.64	1.909
250.85	1.910
251.06	1.919
251.28	1.944
251.49	1.951
251.70	1.950
251.92	1.965
252.13	1.965
252.34	1.951
252.55	1.949
252.77	1.954
252.98	1.948
253.19	1.928
253.41	1.921
253.62	1.926
253.83	1.914
254.05	1.918
254.26	1.914
254.47	1.939
254.68	1.961
254.90	1.977
255.11	1.997
255.32	2.012
255.54	2.055
255.75	2.059
255.96	2.053
256.17	2.055
256.39	2.069
256.60	2.093
256.81	2.096
257.03	2.094
257.24	2.092
257.45	2.097
257.66	2.107
257.88	2.080
258.09	2.086
258.30	2.101
258.51	2.127
258.73	2.129
258.94	2.150
259.15	2.143
259.37	2.170
259.58	2.172
259.79	2.166
260.00	2.165
260.22	2.173
260.43	2.174
260.64	2.164
260.85	2.156
261.07	2.157
261.28	2.130
261.49	2.126
261.71	2.123
261.92	2.130
262.13	2.111
262.34	2.102
262.56	2.118
262.77	2.098
262.98	2.107
263.19	2.103
263.41	2.093
263.62	2.106
263.83	2.105
264.04	2.093
264.26	2.076
264.47	2.079
264.68	2.096
264.89	2.088
265.11	2.117
265.32	2.103
265.53	2.117
265.74	2.129
265.96	2.139
266.17	2.162
266.38	2.168
266.59	2.191
266.81	2.199
267.02	2.191
267.23	2.186
267.44	2.186
267.65	2.199
267.87	2.194
268.08	2.211
268.29	2.200
268.50	2.168
268.72	2.152
268.93	2.150
269.14	2.163
269.35	2.155
269.57	2.168
269.78	2.169
269.99	2.179
270.20	2.196
270.41	2.188
270.63	2.184
270.84	2.167
271.05	2.187
271.26	2.207
271.48	2.206
271.69	2.193
271.90	2.186
272.11	2.171
272.32	2.155
272.54	2.159
272.75	2.150
272.96	2.171
273.17	2.201
273.39	2.196
273.60	2.164
273.81	2.156
274.02	2.165
274.23	2.166
274.45	2.174
274.66	2.181
274.87	2.160
275.08	2.165
275.29	2.162
275.51	2.159
275.72	2.172
275.93	2.176
276.14	2.177
276.35	2.192
276.57	2.180
276.78	2.177
276.99	2.190
277.20	2.202
277.41	2.215
277.63	2.217
277.84	2.215
278.05	2.212
278.26	2.234
278.47	2.251
278.69	2.256
278.90	2.269
279.11	2.285
279.32	2.309
279.53	2.298
279.74	2.280
279.96	2.288
280.17	2.292
280.38	2.292
280.59	2.281
280.80	2.277
281.02	2.271
281.23	2.272
281.44	2.279
281.65	2.282
281.86	2.286
282.07	2.299
282.29	2.291
282.50	2.304
282.71	2.301
282.92	2.316
283.13	2.312
283.35	2.317
283.56	2.338
283.77	2.352
283.98	2.344
284.19	2.369
284.40	2.367
284.62	2.362
284.83	2.368
285.04	2.391
285.25	2.394
285.46	2.411
285.67	2.405
285.88	2.401
286.10	2.406
286.31	2.386
286.52	2.371
286.73	2.372
286.94	2.383
287.15	2.388
287.37	2.391
287.58	2.395
287.79	2.387
288.00	2.415
288.21	2.418
288.42	2.402
288.63	2.419
288.85	2.430
289.06	2.447
289.27	2.465
289.48	2.482
289.69	2.482
289.90	2.484
290.11	2.492
290.33	2.485
290.54	2.494
290.75	2.498
290.96	2.517
291.17	2.534
291.38	2.549
291.59	2.548
291.81	2.541
292.02	2.546
292.23	2.538
292.44	2.548
292.65	2.533
292.86	2.541
293.07	2.559
293.28	2.558
293.50	2.571
293.71	2.567
293.92	2.571
294.13	2.558
294.34	2.561
294.55	2.578
294.76	2.596
294.97	2.625
295.19	2.624
295.40	2.626
295.61	2.631
295.82	2.613
296.03	2.625
296.24	2.624
296.45	2.646
296.66	2.638
296.87	2.645
297.09	2.630
297.30	2.622
297.51	2.623
297.72	2.632
297.93	2.624
298.14	2.633
298.35	2.623
298.56	2.622
298.77	2.615
298.99	2.626
299.20	2.623
299.41	2.630
299.62	2.647
299.83	2.659
300.04	2.659
300.25	2.654
300.46	2.631
300.67	2.646
300.88	2.651
301.10	2.657
301.31	2.674
301.52	2.682
301.73	2.672
301.94	2.668
302.15	2.658
302.36	2.648
302.57	2.656
302.78	2.669
302.99	2.656
303.20	2.662
303.41	2.669
303.63	2.656
303.84	2.652
304.05	2.652
304.26	2.649
304.47	2.661
304.68	2.678
304.89	2.689
305.10	2.702
305.31	2.705
305.52	2.702
305.73	2.690
305.94	2.688
306.15	2.689
306.37	2.696
306.58	2.688
306.79	2.686
307.00	2.671
307.21	2.655
307.42	2.640
307.63	2.636
307.84	2.634
308.05	2.648
308.26	2.663
308.47	2.660
308.68	2.646
308.89	2.653
309.10	2.655
309.31	2.661
309.52	2.676
309.73	2.684
309.95	2.690
310.16	2.686
310.37	2.680
310.58	2.668
310.79	2.680
311.00	2.709
311.21	2.709
311.42	2.716
311.63	2.702
311.84	2.699
312.05	2.706
312.26	2.700
312.47	2.703
312.68	2.707
312.89	2.707
313.10	2.705
313.31	2.688
313.52	2.692
313.73	2.675
313.94	2.688
314.15	2.691
314.36	2.683
314.57	2.681
314.78	2.684
314.99	2.675
315.21	2.684
315.42	2.674
315.63	2.678
315.84	2.664
316.05	2.681
316.26	2.689
316.47	2.688
316.68	2.693
316.89	2.698
317.10	2.691
317.31	2.706
317.52	2.708
317.73	2.717
317.94	2.730
318.15	2.724
318.36	2.698
318.57	2.681
318.78	2.674
318.99	2.670
319.20	2.662
319.41	2.662
319.62	2.652
319.83	2.637
320.04	2.637
320.25	2.615
320.46	2.645
320.67	2.671
320.88	2.667
321.09	2.669
321.30	2.676
321.51	2.683
321.72	2.687
321.93	2.685
322.14	2.682
322.35	2.688
322.56	2.701
322.77	2.694
322.98	2.682
323.19	2.686
323.40	2.689
323.61	2.691
323.82	2.696
324.03	2.707
324.24	2.711
324.45	2.727
324.66	2.735
324.87	2.737
325.08	2.722
325.29	2.715
325.50	2.724
325.71	2.737
325.92	2.734
326.13	2.721
326.34	2.705
326.55	2.709
326.76	2.698
326.97	2.686
327.18	2.685
327.39	2.693
327.60	2.687
327.80	2.700
328.01	2.691
328.22	2.696
328.43	2.702
328.64	2.709
328.85	2.701
329.06	2.702
329.27	2.703
329.48	2.697
329.69	2.697
329.90	2.710
330.11	2.701
330.32	2.701
330.53	2.695
330.74	2.692
330.95	2.682
331.16	2.691
331.37	2.694
331.58	2.696
331.79	2.702
332.00	2.711
332.21	2.714
332.42	2.706
332.63	2.698
332.83	2.698
333.04	2.701
333.25	2.719
333.46	2.707
333.67	2.704
333.88	2.699
334.09	2.699
334.30	2.694
334.51	2.688
334.72	2.681
334.93	2.682
335.14	2.684
335.35	2.686
335.56	2.677
335.77	2.675
335.98	2.668
336.18	2.663
336.39	2.668
336.60	2.658
336.81	2.663
337.02	2.659
337.23	2.661
337.44	2.656
337.65	2.668
337.86	2.670
338.07	2.684
338.28	2.691
338.49	2.699
338.70	2.707
338.91	2.713
339.11	2.700
339.32	2.723
339.53	2.725
339.74	2.726
339.95	2.718
340.16	2.705
340.37	2.702
340.58	2.704
340.79	2.713
341.00	2.703
341.21	2.697
341.41	2.707
341.62	2.697
341.83	2.696
342.04	2.705
342.25	2.702
342.46	2.714
342.67	2.713
342.88	2.719
343.09	2.703
343.30	2.701
343.50	2.711
343.71	2.710
343.92	2.719
344.13	2.728
344.34	2.719
344.55	2.712
344.76	2.721
344.97	2.719
345.18	2.722
345.38	2.721
345.59	2.711
345.80	2.698
346.01	2.692
346.22	2.696
346.43	2.690
346.64	2.696
346.85	2.709
347.06	2.709
347.26	2.712
347.47	2.706
347.68	2.706
347.89	2.716
348.10	2.724
348.31	2.737
348.52	2.720
348.73	2.714
348.93	2.716
349.14	2.703
349.35	2.697
349.56	2.684
349.77	2.690
349.98	2.692
350.19	2.697
350.39	2.694
350.60	2.685
350.81	2.703
351.02	2.705
351.23	2.701
351.44	2.708
351.65	2.713
351.86	2.719
352.06	2.711
352.27	2.719
352.48	2.710
352.69	2.731
352.90	2.723
353.11	2.715
353.31	2.712
353.52	2.719
353.73	2.724
353.94	2.723
354.15	2.726
354.36	2.727
354.57	2.723
354.77	2.728
354.98	2.713
355.19	2.725
355.40	2.716
355.61	2.728
355.82	2.717
356.02	2.711
356.23	2.709
356.44	2.701
356.65	2.697
356.86	2.691
357.07	2.690
357.27	2.688
357.48	2.686
357.69	2.694
357.90	2.687
358.11	2.691
358.32	2.684
358.52	2.685
358.73	2.692
358.94	2.687
359.15	2.683
359.36	2.679
359.56	2.684
359.77	2.686
359.98	2.676
360.19	2.674
360.40	2.680
360.61	2.689
360.81	2.694
361.02	2.697
361.23	2.709
361.44	2.706
361.65	2.714
361.85	2.715
362.06	2.707
362.27	2.722
362.48	2.723
362.69	2.716
362.89	2.704
363.10	2.701
363.31	2.694
363.52	2.694
363.73	2.707
363.93	2.698
364.14	2.703
364.35	2.708
364.56	2.708
364.77	2.707
364.97	2.698
365.18	2.707
365.39	2.708
365.60	2.711
365.81	2.705
366.01	2.702
366.22	2.703
366.43	2.685
366.64	2.679
366.84	2.671
367.05	2.679
367.26	2.681
367.47	2.681
367.68	2.683
367.88	2.675
368.09	2.675
368.30	2.686
368.51	2.698
368.71	2.719
368.92	2.716
369.13	2.724
369.34	2.720
369.55	2.721
369.75	2.724
369.96	2.720
370.17	2.732
370.38	2.735
370.58	2.712
370.79	2.698
371.00	2.691
371.21	2.702
371.41	2.698
371.62	2.694
371.83	2.692
372.04	2.686
372.24	2.684
372.45	2.675
372.66	2.682
372.87	2.688
373.07	2.692
373.28	2.688
373.49	2.682
373.70	2.679
373.90	2.679
374.11	2.691
374.32	2.704
374.53	2.706
374.73	2.718
374.94	2.720
375.15	2.726
375.36	2.719
375.56	2.715
375.77	2.721
375.98	2.722
376.19	2.720
376.39	2.706
376.60	2.685
376.81	2.688
377.02	2.682
377.22	2.671
377.43	2.658
377.64	2.661
377.84	2.663
378.05	2.663
378.26	2.654
378.47	2.658
378.67	2.657
378.88	2.663
379.09	2.658
379.30	2.651
379.50	2.645
379.71	2.666
379.92	2.678
380.12	2.675
380.33	2.656
380.54	2.664
380.75	2.667
380.95	2.676
381.16	2.677
381.37	2.671
381.57	2.682
381.78	2.696
381.99	2.685
382.20	2.668
382.40	2.681
382.61	2.696
382.82	2.687
383.02	2.690
383.23	2.692
383.44	2.683
383.64	2.693
383.85	2.685
384.06	2.677
384.27	2.674
384.47	2.679
384.68	2.663
384.89	2.658
385.09	2.666
385.30	2.651
385.51	2.655
385.71	2.665
385.92	2.659
386.13	2.666
386.33	2.664
386.54	2.667
386.75	2.669
386.95	2.669
387.16	2.679
387.37	2.675
387.58	2.674
387.78	2.664
387.99	2.677
388.20	2.681
388.40	2.670
388.61	2.670
388.82	2.676
389.02	2.668
389.23	2.664
389.44	2.662
389.64	2.658
389.85	2.660
390.06	2.665
390.26	2.659
390.47	2.644
390.68	2.649
390.88	2.644
391.09	2.637
391.30	2.656
391.50	2.658
391.71	2.659
391.92	2.669
392.12	2.676
392.33	2.673
392.53	2.668
392.74	2.671
392.95	2.674
393.15	2.686
393.36	2.689
393.57	2.675
393.77	2.675
393.98	2.679
394.19	2.672
394.39	2.675
394.60	2.666
394.81	2.666
395.01	2.675
395.22	2.687
395.43	2.691
395.63	2.688
395.84	2.691
396.04	2.686
396.25	2.677
396.46	2.680
396.66	2.683
396.87	2.688
397.08	2.680
397.28	2.672
397.49	2.667
397.69	2.669
397.90	2.660
398.11	2.658
398.31	2.672
398.52	2.668
398.73	2.660
398.93	2.652
399.14	2.656
399.34	2.668
399.55	2.676
399.76	2.677
399.96	2.671
400.17	2.676
400.37	2.669
400.58	2.663
400.79	2.666
400.99	2.671
401.20	2.669
401.41	2.659
401.61	2.651
401.82	2.637
402.02	2.624
402.23	2.616
402.44	2.609
402.64	2.608
402.85	2.597
403.05	2.599
403.26	2.604
403.47	2.609
403.67	2.611
403.88	2.618
404.08	2.639
404.29	2.637
404.50	2.643
404.70	2.653
404.91	2.665
405.11	2.677
405.32	2.676
405.52	2.666
405.73	2.656
405.94	2.664
406.14	2.652
406.35	2.639
406.55	2.642
406.76	2.638
406.97	2.634
407.17	2.638
407.38	2.631
407.58	2.628
407.79	2.632
407.99	2.632
408.20	2.633
408.41	2.637
408.61	2.632
408.82	2.629
409.02	2.629
409.23	2.620
409.43	2.605
409.64	2.614
409.84	2.621
410.05	2.621
410.26	2.626
410.46	2.617
410.67	2.612
410.87	2.616
411.08	2.618
411.28	2.624
411.49	2.629
411.69	2.626
411.90	2.617
412.11	2.608
412.31	2.602
412.52	2.600
412.72	2.608
412.93	2.613
413.13	2.612
413.34	2.603
413.54	2.591
413.75	2.584
413.95	2.577
414.16	2.591
414.37	2.579
414.57	2.580
414.78	2.567
414.98	2.549
415.19	2.546
415.39	2.532
415.60	2.541
415.80	2.541
416.01	2.544
416.21	2.556
416.42	2.541
416.62	2.544
416.83	2.548
417.03	2.545
417.24	2.557
417.44	2.558
417.65	2.560
417.86	2.548
418.06	2.547
418.27	2.546
418.47	2.536
418.68	2.533
418.88	2.539
419.09	2.527
419.29	2.527
419.50	2.517
419.70	2.513
419.91	2.520
420.11	2.522
420.32	2.515
420.52	2.518
420.73	2.516
420.93	2.515
421.14	2.509
421.34	2.508
421.55	2.516
421.75	2.518
421.96	2.517
422.16	2.509
422.37	2.507
422.57	2.508
422.78	2.495
422.98	2.496
423.19	2.489
423.39	2.479
423.60	2.480
423.80	2.469
424.01	2.461
424.21	2.453
424.42	2.451
424.62	2.444
424.83	2.437
425.03	2.440
425.23	2.431
425.44	2.426
425.64	2.424
425.85	2.417
426.05	2.404
426.26	2.401
426.46	2.394
426.67	2.380
426.87	2.367
427.08	2.354
427.28	2.339
427.49	2.329
427.69	2.324
427.90	2.310
428.10	2.302
428.31	2.297
428.51	2.287
428.71	2.276
428.92	2.271
429.12	2.269
429.33	2.262
429.53	2.255
429.74	2.247
429.94	2.241
430.15	2.232
430.35	2.222
430.56	2.211
430.76	2.203
430.96	2.197
431.17	2.189
431.37	2.175
431.58	2.165
431.78	2.154
431.99	2.143
432.19	2.128
432.40	2.115
432.60	2.102
432.80	2.090
433.01	2.073
433.21	2.057
433.42	2.044
433.62	2.033
433.83	2.020
434.03	2.007
434.23	1.992
434.44	1.978
434.64	1.965
434.85	1.953
435.05	1.940
435.26	1.928
435.46	1.916
435.66	1.903
435.87	1.890
436.07	1.878
436.28	1.864
436.48	1.854
436.69	1.843
436.89	1.832
437.09	1.821
437.30	1.808
437.50	1.795
437.71	1.784
437.91	1.770
438.11	1.756
438.32	1.743
438.52	1.730
438.73	1.716
438.93	1.702
439.13	1.690
439.34	1.677
439.54	1.666
439.75	1.653
439.95	1.638
440.15	1.626
440.36	1.614
440.56	1.601
440.77	1.588
440.97	1.576
441.17	1.564
441.38	1.551
441.58	1.538
441.79	1.525
441.99	1.513
442.19	1.501
442.40	1.490
442.60	1.478
442.81	1.466
443.01	1.455
443.21	1.444
443.42	1.432
443.62	1.420
443.82	1.409
444.03	1.397
444.23	1.386
444.44	1.375
444.64	1.363
444.84	1.353
445.05	1.341
445.25	1.331
445.45	1.320
445.66	1.310
445.86	1.299
446.06	1.289
446.27	1.279
446.47	1.269
446.68	1.259
446.88	1.250
447.08	1.241
447.29	1.231
447.49	1.221
447.69	1.212
447.90	1.203
448.10	1.194
448.30	1.184
448.51	1.175
448.71	1.167
448.91	1.157
449.12	1.148
449.32	1.140
449.52	1.132
449.73	1.123
449.93	1.114
450.14	1.106
450.34	1.097
450.54	1.089
450.75	1.081
450.95	1.073
451.15	1.066
451.36	1.058
451.56	1.050
451.76	1.042
451.97	1.035
452.17	1.028
452.37	1.021
452.58	1.014
452.78	1.006
452.98	0.999
453.19	0.992
453.39	0.985
453.59	0.978
453.79	0.971
454.00	0.964
454.20	0.958
454.40	0.950
454.61	0.944
454.81	0.937
455.01	0.931
455.22	0.924
455.42	0.918
455.62	0.912
455.83	0.905
456.03	0.899
456.23	0.893
456.44	0.887
456.64	0.881
456.84	0.875
457.04	0.869
457.25	0.864
457.45	0.858
457.65	0.852
457.86	0.847
458.06	0.841
458.26	0.836
458.47	0.830
458.67	0.825
458.87	0.820
459.07	0.815
459.28	0.810
459.48	0.805
459.68	0.800
459.89	0.795
460.09	0.790
460.29	0.786
460.49	0.781
460.70	0.776
460.90	0.771
461.10	0.767
461.31	0.762
461.51	0.758
461.71	0.754
461.91	0.749
462.12	0.745
462.32	0.740
462.52	0.736
462.72	0.732
462.93	0.728
463.13	0.723
463.33	0.719
463.53	0.715
463.74	0.710
463.94	0.706
464.14	0.702
464.35	0.698
464.55	0.694
464.75	0.690
464.95	0.686
465.16	0.683
465.36	0.679
465.56	0.676
465.76	0.673
465.97	0.669
466.17	0.666
466.37	0.663
466.57	0.659
466.78	0.656
466.98	0.653
467.18	0.650
467.38	0.647
467.59	0.643
467.79	0.640
467.99	0.637
468.19	0.633
468.39	0.630
468.60	0.627
468.80	0.623
469.00	0.620
469.20	0.617
469.41	0.614
469.61	0.611
469.81	0.608
470.01	0.605
470.22	0.602
470.42	0.599
470.62	0.596
470.82	0.593
471.02	0.590
471.23	0.588
471.43	0.585
471.63	0.582
471.83	0.579
472.04	0.577
472.24	0.574
472.44	0.571
472.64	0.568
472.84	0.565
473.05	0.563
473.25	0.560
473.45	0.557
473.65	0.555
473.85	0.553
474.06	0.550
474.26	0.548
474.46	0.546
474.66	0.544
474.86	0.541
475.07	0.539
475.27	0.537
475.47	0.535
475.67	0.533
475.87	0.531
476.08	0.528
476.28	0.526
476.48	0.524
476.68	0.522
476.88	0.520
477.09	0.518
477.29	0.516
477.49	0.514
477.69	0.511
477.89	0.509
478.09	0.507
478.30	0.505
478.50	0.503
478.70	0.500
478.90	0.498
479.10	0.496
479.31	0.494
479.51	0.492
479.71	0.490
479.91	0.488
480.11	0.486
480.31	0.484
480.52	0.482
480.72	0.481
480.92	0.479
481.12	0.477
481.32	0.476
481.52	0.474
481.72	0.472
481.93	0.470
482.13	0.468
482.33	0.467
482.53	0.465
482.73	0.463
482.93	0.461
483.14	0.460
483.34	0.458
483.54	0.456
483.74	0.454
483.94	0.452
484.14	0.451
484.34	0.449
484.55	0.447
484.75	0.446
484.95	0.444
485.15	0.443
485.35	0.441
485.55	0.440
485.75	0.438
485.96	0.437
486.16	0.436
486.36	0.434
486.56	0.433
486.76	0.432
486.96	0.431
487.16	0.429
487.36	0.428
487.57	0.427
487.77	0.425
487.97	0.424
488.17	0.422
488.37	0.421
488.57	0.419
488.77	0.418
488.97	0.417
489.18	0.415
489.38	0.414
489.58	0.412
489.78	0.411
489.98	0.409
490.18	0.408
490.38	0.407
490.58	0.405
490.78	0.404
490.98	0.403
491.19	0.401
491.39	0.400
491.59	0.398
491.79	0.397
491.99	0.395
492.19	0.394
492.39	0.392
492.59	0.391
492.79	0.390
492.99	0.388
493.20	0.387
493.40	0.386
493.60	0.384
493.80	0.383
494.00	0.382
494.20	0.381
494.40	0.379
494.60	0.378
494.80	0.377
495.00	0.376
495.20	0.375
495.40	0.374
495.61	0.372
495.81	0.371
496.01	0.370
496.21	0.369
496.41	0.368
496.61	0.367
496.81	0.367
497.01	0.365
497.21	0.364
497.41	0.363
497.61	0.363
497.81	0.362
498.01	0.361
498.21	0.360
498.41	0.359
498.61	0.358
498.82	0.356
499.02	0.355
499.22	0.354
499.42	0.353
499.62	0.352
499.82	0.351
500.02	0.350
500.22	0.348
500.42	0.347
500.62	0.346
500.82	0.345
501.02	0.344
501.22	0.343
501.42	0.342
501.62	0.341
501.82	0.340
502.02	0.339
502.22	0.338
502.42	0.337
502.62	0.336
502.82	0.336
503.02	0.335
503.22	0.334
503.42	0.333
503.63	0.332
503.83	0.331
504.03	0.331
504.23	0.330
504.43	0.329
504.63	0.328
504.83	0.327
505.03	0.327
505.23	0.326
505.43	0.325
505.63	0.324
505.83	0.324
506.03	0.323
506.23	0.322
506.43	0.321
506.63	0.320
506.83	0.319
507.03	0.319
507.23	0.318
507.43	0.317
507.63	0.316
507.83	0.315
508.03	0.314
508.23	0.314
508.43	0.313
508.63	0.313
508.83	0.312
509.03	0.311
509.23	0.311
509.43	0.310
509.63	0.309
509.83	0.308
510.03	0.307
510.23	0.307
510.43	0.306
510.63	0.305
510.83	0.304
511.03	0.303
511.23	0.303
511.43	0.302
511.63	0.301
511.83	0.301
512.03	0.300
512.22	0.299
512.42	0.299
512.62	0.298
512.82	0.297
513.02	0.297
513.22	0.296
513.42	0.295
513.62	0.295
513.82	0.294
514.02	0.294
514.22	0.293
514.42	0.292
514.62	0.292
514.82	0.291
515.02	0.290
515.22	0.289
515.42	0.289
515.62	0.288
515.82	0.287
516.02	0.287
516.22	0.286
516.42	0.285
516.62	0.285
516.82	0.284
517.01	0.284
517.21	0.283
517.41	0.283
517.61	0.282
517.81	0.282
518.01	0.281
518.21	0.280
518.41	0.280
518.61	0.279
518.81	0.279
519.01	0.278
519.21	0.278
519.41	0.277
519.61	0.277
519.81	0.276
520.00	0.275
520.20	0.275
520.40	0.274
520.60	0.274
520.80	0.273
521.00	0.273
521.20	0.272
521.40	0.271
521.60	0.271
521.80	0.270
522.00	0.270
522.20	0.269
522.39	0.268
522.59	0.268
522.79	0.267
522.99	0.267
523.19	0.266
523.39	0.266
523.59	0.265
523.79	0.265
523.99	0.264
524.19	0.264
524.38	0.263
524.58	0.263
524.78	0.262
524.98	0.262
525.18	0.261
525.38	0.260
525.58	0.260
525.78	0.259
525.98	0.258
526.18	0.258
526.37	0.257
526.57	0.256
526.77	0.256
526.97	0.255
527.17	0.255
527.37	0.254
527.57	0.254
527.77	0.253
527.96	0.253
528.16	0.253
528.36	0.252
528.56	0.252
528.76	0.251
528.96	0.251
529.16	0.250
529.36	0.250
529.55	0.249
529.75	0.249
529.95	0.248
530.15	0.248
530.35	0.247
530.55	0.247
530.75	0.246
530.94	0.246
531.14	0.245
531.34	0.244
531.54	0.244
531.74	0.243
531.94	0.243
532.13	0.242
532.33	0.242
532.53	0.241
532.73	0.241
532.93	0.240
533.13	0.240
533.33	0.239
533.52	0.239
533.72	0.238
533.92	0.238
534.12	0.237
534.32	0.237
534.52	0.237
534.71	0.236
534.91	0.236
535.11	0.235
535.31	0.235
535.51	0.234
535.71	0.234
535.90	0.233
536.10	0.233
536.30	0.232
536.50	0.231
536.70	0.231
536.89	0.230
537.09	0.230
537.29	0.229
537.49	0.229
537.69	0.228
537.89	0.228
538.08	0.228
538.28	0.227
538.48	0.227
538.68	0.226
538.88	0.226
539.07	0.225
539.27	0.225
539.47	0.225
539.67	0.224
539.87	0.224
540.06	0.223
540.26	0.223
540.46	0.223
540.66	0.222
540.86	0.222
541.05	0.222
541.25	0.221
541.45	0.221
541.65	0.220
541.84	0.220
542.04	0.219
542.24	0.218
542.44	0.218
542.64	0.217
542.83	0.216
543.03	0.216
543.23	0.215
543.43	0.215
543.62	0.214
543.82	0.214
544.02	0.214
544.22	0.213
544.42	0.213
544.61	0.212
544.81	0.212
545.01	0.212
545.21	0.211
545.40	0.211
545.60	0.210
545.80	0.210
546.00	0.210
546.19	0.209
546.39	0.209
546.59	0.209
546.79	0.208
546.98	0.208
547.18	0.208
547.38	0.207
547.58	0.207
547.77	0.206
547.97	0.206
548.17	0.205
548.37	0.205
548.56	0.204
548.76	0.204
548.96	0.203
549.16	0.203
549.35	0.203
549.55	0.202
549.75	0.202
549.95	0.201
550.14	0.201
550.34	0.201
550.54	0.200
550.73	0.200
550.93	0.199
551.13	0.199
551.33	0.198
551.52	0.198
551.72	0.197
551.92	0.197
552.12	0.196
552.31	0.196
552.51	0.195
552.71	0.195
552.90	0.194
553.10	0.194
553.30	0.194
553.50	0.193
553.69	0.193
553.89	0.193
554.09	0.193
554.28	0.192
554.48	0.192
554.68	0.192
554.87	0.191
555.07	0.191
555.27	0.191
555.47	0.191
555.66	0.190
555.86	0.190
556.06	0.190
556.25	0.190
556.45	0.189
556.65	0.189
556.84	0.189
557.04	0.188
557.24	0.188
557.43	0.187
557.63	0.187
557.83	0.186
558.02	0.185
558.22	0.185
558.42	0.184
558.61	0.184
558.81	0.183
559.01	0.182
559.21	0.182
559.40	0.181
559.60	0.181
559.80	0.181
559.99	0.180
560.19	0.180
560.39	0.179
560.58	0.179
560.78	0.179
560.97	0.179
561.17	0.179
561.37	0.178
561.56	0.178
561.76	0.178
561.96	0.178
562.15	0.178
562.35	0.178
562.55	0.177
562.74	0.177
562.94	0.177
563.14	0.177
563.33	0.176
563.53	0.176
563.73	0.176
563.92	0.175
564.12	0.175
564.31	0.174
564.51	0.174
564.71	0.174
564.90	0.173
565.10	0.173
565.30	0.172
565.49	0.172
565.69	0.172
565.89	0.171
566.08	0.171
566.28	0.170
566.47	0.170
566.67	0.170
566.87	0.169
567.06	0.169
567.26	0.169
567.46	0.168
567.65	0.168
567.85	0.167
568.04	0.167
568.24	0.166
568.44	0.166
568.63	0.165
568.83	0.165
569.02	0.164
569.22	0.164
569.42	0.163
569.61	0.163
569.81	0.163
570.00	0.162
570.20	0.162
570.40	0.162
570.59	0.161
570.79	0.161
570.98	0.161
571.18	0.161
571.38	0.160
571.57	0.160
571.77	0.159
571.96	0.159
572.16	0.159
572.35	0.159
572.55	0.159
572.75	0.159
572.94	0.159
573.14	0.159
573.33	0.159
573.53	0.159
573.73	0.159
573.92	0.159
574.12	0.158
574.31	0.158
574.51	0.158
574.70	0.156
574.90	0.155
575.09	0.152
575.29	0.150
575.49	0.147
575.68	0.145
575.88	0.142
576.07	0.139
576.27	0.137
576.46	0.134
576.66	0.132
576.86	0.130
577.05	0.128
577.25	0.127
577.44	0.126
577.64	0.125
577.83	0.124
578.03	0.123
578.22	0.121
578.42	0.118
578.61	0.114
578.81	0.111
579.00	0.108
579.20	0.105
579.40	0.103
579.59	0.100
579.79	0.098
579.98	0.096
580.18	0.094
580.37	0.093
580.57	0.094
580.76	0.095
580.96	0.096
581.15	0.098
581.35	0.099
581.54	0.100
581.74	0.100
581.93	0.100
582.13	0.100
582.32	0.101
582.52	0.101
582.71	0.102
582.91	0.103
583.10	0.105
583.30	0.107
583.49	0.109
583.69	0.112
583.88	0.115
584.08	0.118
584.27	0.122
584.47	0.125
584.66	0.128
584.86	0.129
585.05	0.131
585.25	0.131
585.44	0.131
585.64	0.130
585.83	0.129
586.03	0.129
586.22	0.130
586.42	0.131
586.61	0.132
586.81	0.133
587.00	0.134
587.20	0.136
587.39	0.137
587.59	0.139
587.78	0.141
587.98	0.142
588.17	0.143
588.37	0.144
588.56	0.143
588.76	0.143
588.95	0.142
589.15	0.142
589.34	0.142
589.54	0.141
589.73	0.141
589.92	0.140
590.12	0.140
590.31	0.139
590.51	0.139
590.70	0.138
590.90	0.138
591.09	0.138
591.29	0.138
591.48	0.138
591.68	0.137
591.87	0.137
592.06	0.137
592.26	0.137
592.45	0.137
592.65	0.137
592.84	0.137
593.04	0.137
593.23	0.137
593.43	0.137
593.62	0.137
593.81	0.137
594.01	0.138
594.20	0.138
594.40	0.138
594.59	0.138
594.79	0.138
594.98	0.138
595.17	0.137
595.37	0.137
595.56	0.136
595.76	0.136
595.95	0.135
596.14	0.135
596.34	0.134
596.53	0.134
596.73	0.133
596.92	0.132
597.12	0.132
597.31	0.131
597.50	0.131
597.70	0.131
597.89	0.131
598.09	0.131
598.28	0.131
598.47	0.131
598.67	0.131
598.86	0.131
599.06	0.131
599.25	0.131
599.44	0.131
599.64	0.131
599.83	0.132
600.03	0.132
600.22	0.132
600.41	0.132
600.61	0.132
600.80	0.132
601.00	0.132
601.19	0.132
601.38	0.132
601.58	0.132
601.77	0.132
601.96	0.132
602.16	0.131
602.35	0.131
602.55	0.131
602.74	0.130
602.93	0.130
603.13	0.129
603.32	0.129
603.51	0.128
603.71	0.128
603.90	0.127
604.09	0.127
604.29	0.127
604.48	0.127
604.68	0.127
604.87	0.127
605.06	0.127
605.26	0.127
605.45	0.127
605.64	0.127
605.84	0.127
606.03	0.127
606.22	0.127
606.42	0.127
606.61	0.128
606.80	0.127
607.00	0.128
607.19	0.128
607.38	0.128
607.58	0.128
607.77	0.128
607.96	0.128
608.16	0.128
608.35	0.128
608.54	0.128
608.74	0.128
608.93	0.128
609.12	0.128
609.32	0.127
609.51	0.127
609.70	0.127
609.90	0.127
610.09	0.127
610.28	0.126
610.48	0.126
610.67	0.126
610.86	0.126
611.06	0.125
611.25	0.125
611.44	0.125
611.64	0.125
611.83	0.125
612.02	0.124
612.21	0.124
612.41	0.124
612.60	0.124
612.79	0.124
612.99	0.124
613.18	0.124
613.37	0.124
613.57	0.124
613.76	0.124
613.95	0.124
614.14	0.124
614.34	0.124
614.53	0.124
614.72	0.124
614.92	0.124
615.11	0.124
615.30	0.124
615.49	0.124
615.69	0.124
615.88	0.124
616.07	0.124
616.26	0.124
616.46	0.124
616.65	0.124
616.84	0.124
617.04	0.124
617.23	0.124
617.42	0.124
617.61	0.124
617.81	0.124
618.00	0.124
618.19	0.124
618.38	0.123
618.58	0.123
618.77	0.123
618.96	0.123
619.15	0.123
619.35	0.123
619.54	0.123
619.73	0.123
619.92	0.122
620.12	0.122
620.31	0.122
620.50	0.122
620.69	0.122
620.89	0.122
621.08	0.122
621.27	0.122
621.46	0.122
621.66	0.122
621.85	0.122
622.04	0.122
622.23	0.121
622.43	0.121
622.62	0.121
622.81	0.121
623.00	0.121
623.19	0.121
623.39	0.121
623.58	0.121
623.77	0.121
623.96	0.121
624.16	0.121
624.35	0.121
624.54	0.121
624.73	0.121
624.92	0.120
625.12	0.121
625.31	0.121
625.50	0.121
625.69	0.121
625.88	0.121
626.08	0.121
626.27	0.121
626.46	0.121
626.65	0.121
626.84	0.121
627.04	0.121
627.23	0.121
627.42	0.121
627.61	0.121
627.80	0.121
628.00	0.121
628.19	0.121
628.38	0.121
628.57	0.121
628.76	0.121
628.96	0.121
629.15	0.121
629.34	0.121
629.53	0.121
629.72	0.121
629.91	0.121
630.11	0.121
630.30	0.121
630.49	0.121
630.68	0.120
630.87	0.121
631.06	0.121
631.26	0.120
631.45	0.121
631.64	0.120
631.83	0.121
632.02	0.121
632.21	0.120
632.41	0.120
632.60	0.120
632.79	0.120
632.98	0.120
633.17	0.120
633.36	0.120
633.55	0.119
633.75	0.119
633.94	0.119
634.13	0.119
634.32	0.119
634.51	0.119
634.70	0.119
634.89	0.119
635.09	0.119
635.28	0.119
635.47	0.119
635.66	0.120
635.85	0.120
636.04	0.120
636.23	0.120
636.43	0.120
636.62	0.120
636.81	0.120
637.00	0.120
637.19	0.119
637.38	0.119
637.57	0.119
637.76	0.119
637.95	0.119
638.15	0.119
638.34	0.119
638.53	0.118
638.72	0.118
638.91	0.118
639.10	0.118
639.29	0.118
639.48	0.118
639.67	0.118
639.87	0.118
640.06	0.118
640.25	0.118
640.44	0.118
640.63	0.118
640.82	0.118
641.01	0.118
641.20	0.118
641.39	0.118
641.58	0.118
641.78	0.118
641.97	0.118
642.16	0.118
642.35	0.118
642.54	0.118
642.73	0.118
642.92	0.118
643.11	0.118
643.30	0.118
643.49	0.118
643.68	0.118
643.87	0.118
644.06	0.118
644.25	0.118
644.45	0.117
644.64	0.117
644.83	0.118
645.02	0.117
645.21	0.117
645.40	0.117
645.59	0.117
645.78	0.117
645.97	0.116
646.16	0.116
646.35	0.116
646.54	0.115
646.73	0.115
646.92	0.115
647.11	0.115
647.30	0.115
647.49	0.115
647.68	0.114
647.88	0.114
648.07	0.114
648.26	0.114
648.45	0.115
648.64	0.115
648.83	0.115
649.02	0.115
649.21	0.115
649.40	0.115
649.59	0.115
649.78	0.116
649.97	0.116
650.16	0.116
650.35	0.116
650.54	0.116
650.73	0.116
650.92	0.116
651.11	0.116
651.30	0.116
651.49	0.116
651.68	0.116
651.87	0.116
652.06	0.115
652.25	0.115
652.44	0.115
652.63	0.113
652.82	0.111
653.01	0.110
653.20	0.109
653.39	0.108
653.58	0.108
653.77	0.107
653.96	0.107
654.15	0.106
654.34	0.106
654.53	0.106
654.72	0.107
654.91	0.107
655.10	0.108
655.29	0.108
655.48	0.108
655.67	0.108
655.86	0.109
656.05	0.109
656.24	0.109
656.43	0.109
656.62	0.109
656.81	0.110
657.00	0.111
657.19	0.112
657.38	0.113
657.57	0.113
657.76	0.114
657.95	0.115
658.14	0.115
658.33	0.116
658.51	0.116
658.70	0.117
658.89	0.117
659.08	0.116
659.27	0.115
659.46	0.115
659.65	0.114
659.84	0.114
660.03	0.114
660.22	0.113
660.41	0.113
660.60	0.113
660.79	0.113
660.98	0.113
661.17	0.113
661.36	0.113
661.55	0.113
661.74	0.113
661.92	0.113
662.11	0.112
662.30	0.112
662.49	0.112
662.68	0.112
662.87	0.112
663.06	0.112
663.25	0.112
663.44	0.112
663.63	0.111
663.82	0.112
664.01	0.112
664.20	0.112
664.38	0.112
664.57	0.112
664.76	0.112
664.95	0.112
665.14	0.112
665.33	0.112
665.52	0.112
665.71	0.112
665.90	0.112
666.09	0.112
666.28	0.112
666.46	0.112
666.65	0.112
666.84	0.112
667.03	0.112
667.22	0.112
667.41	0.112
667.60	0.112
667.79	0.112
667.98	0.112
668.16	0.111
668.35	0.111
668.54	0.111
668.73	0.111
668.92	0.111
669.11	0.110
669.30	0.110
669.49	0.110
669.67	0.110
669.86	0.109
670.05	0.109
670.24	0.109
670.43	0.109
670.62	0.109
670.81	0.109
671.00	0.109
671.18	0.109
671.37	0.109
671.56	0.109
671.75	0.109
671.94	0.109
672.13	0.109
672.32	0.109
672.50	0.109
672.69	0.109
672.88	0.109
673.07	0.110
673.26	0.110
673.45	0.110
673.63	0.110
673.82	0.110
674.01	0.110
674.20	0.111
674.39	0.111
674.58	0.111
674.76	0.111
674.95	0.110
675.14	0.110
675.33	0.110
675.52	0.110
675.71	0.110
675.89	0.110
676.08	0.110
676.27	0.110
676.46	0.110
676.65	0.110
676.84	0.110
677.02	0.110
677.21	0.109
677.40	0.110
677.59	0.110
677.78	0.109
677.96	0.109
678.15	0.109
678.34	0.109
678.53	0.109
678.72	0.109
678.90	0.109
679.09	0.109
679.28	0.109
679.47	0.109
679.66	0.108
679.84	0.108
680.03	0.108
680.22	0.108
680.41	0.108
680.60	0.108
680.78	0.108
680.97	0.108
681.16	0.108
681.35	0.108
681.53	0.108
681.72	0.108
681.91	0.108
682.10	0.107
682.29	0.107
682.47	0.107
682.66	0.107
682.85	0.107
683.04	0.107
683.22	0.107
683.41	0.107
683.60	0.107
683.79	0.107
683.97	0.108
684.16	0.108
684.35	0.108
684.54	0.108
684.72	0.108
684.91	0.108
685.10	0.108
685.29	0.108
685.47	0.108
685.66	0.107
685.85	0.107
686.04	0.107
686.22	0.108
686.41	0.108
686.60	0.108
686.79	0.108
686.97	0.107
687.16	0.107
687.35	0.107
687.54	0.107
687.72	0.107
687.91	0.107
688.10	0.107
688.29	0.107
688.47	0.106
688.66	0.106
688.85	0.106
689.03	0.106
689.22	0.106
689.41	0.106
689.60	0.106
689.78	0.106
689.97	0.106
690.16	0.106
690.34	0.106
690.53	0.106
690.72	0.106
690.91	0.106
691.09	0.107
691.28	0.107
691.47	0.107
691.65	0.107
691.84	0.107
692.03	0.107
692.21	0.107
692.40	0.107
692.59	0.107
692.77	0.107
692.96	0.107
693.15	0.107
693.34	0.107
693.52	0.107
693.71	0.107
693.90	0.107
694.08	0.107
694.27	0.106
694.46	0.106
694.64	0.106
694.83	0.106
695.02	0.106
695.20	0.106
695.39	0.105
695.58	0.105
695.76	0.105
695.95	0.105
696.14	0.105
696.32	0.105
696.51	0.105
696.70	0.105
696.88	0.104
697.07	0.104
697.26	0.104
697.44	0.105
697.63	0.105
697.81	0.105
698.00	0.105
698.19	0.105
698.37	0.105
698.56	0.105
698.75	0.105
698.93	0.105
699.12	0.105
699.31	0.105
699.49	0.105
699.68	0.105
699.87	0.105
700.05	0.105
700.24	0.105
700.42	0.105
700.61	0.105
700.80	0.105
700.98	0.105
701.17	0.105
701.36	0.105
701.54	0.105
701.73	0.105
701.91	0.106
702.10	0.106
702.29	0.106
702.47	0.106
702.66	0.106
702.84	0.106
703.03	0.106
703.22	0.106
703.40	0.106
703.59	0.106
703.77	0.106
703.96	0.106
704.15	0.106
704.33	0.105
704.52	0.105
704.70	0.105
704.89	0.105
705.08	0.105
705.26	0.105
705.45	0.104
705.63	0.104
705.82	0.104
706.00	0.104
706.19	0.103
706.38	0.103
706.56	0.103
706.75	0.102
706.93	0.102
707.12	0.102
707.30	0.102
707.49	0.102
707.68	0.102
707.86	0.102
708.05	0.102
708.23	0.102
708.42	0.102
708.60	0.102
708.79	0.102
708.98	0.103
709.16	0.102
709.35	0.103
709.53	0.103
709.72	0.103
709.90	0.103
710.09	0.103
710.27	0.103
710.46	0.103
710.64	0.103
710.83	0.103
711.02	0.103
711.20	0.103
711.39	0.103
711.57	0.103
711.76	0.103
711.94	0.103
712.13	0.103
712.31	0.103
712.50	0.103
712.68	0.103
712.87	0.103
713.05	0.103
713.24	0.102
713.42	0.102
713.61	0.102
713.79	0.102
713.98	0.102
714.16	0.101
714.35	0.101
714.54	0.101
714.72	0.101
714.91	0.101
715.09	0.101
715.28	0.101
715.46	0.101
715.65	0.101
715.83	0.101
716.02	0.101
716.20	0.100
716.39	0.100
716.57	0.100
716.76	0.100
716.94	0.100
717.12	0.100
717.31	0.100
717.49	0.099
717.68	0.099
717.86	0.099
718.05	0.099
718.23	0.099
718.42	0.099
718.60	0.099
718.79	0.099
718.97	0.099
719.16	0.099
719.34	0.099
719.53	0.099
719.71	0.099
719.90	0.099
720.08	0.099
720.27	0.099
720.45	0.099
720.63	0.099
720.82	0.099
721.00	0.099
721.19	0.098
721.37	0.098
721.56	0.099
721.74	0.099
721.93	0.099
722.11	0.099
722.30	0.098
722.48	0.098
722.66	0.098
722.85	0.098
723.03	0.098
723.22	0.098
723.40	0.097
723.59	0.097
723.77	0.097
723.95	0.097
724.14	0.096
724.32	0.096
724.51	0.096
724.69	0.096
724.88	0.095
725.06	0.095
725.24	0.095
725.43	0.095
725.61	0.095
725.80	0.095
725.98	0.094
726.16	0.094
726.35	0.094
726.53	0.093
726.72	0.093
726.90	0.093
727.09	0.093
727.27	0.092
727.45	0.092
727.64	0.092
727.82	0.092
728.01	0.092
728.19	0.092
728.37	0.092
728.56	0.093
728.74	0.093
728.92	0.093
729.11	0.093
729.29	0.093
729.48	0.094
729.66	0.093
729.84	0.093
730.03	0.093
730.21	0.093
730.40	0.093
730.58	0.092
730.76	0.092
730.95	0.092
731.13	0.091
731.31	0.091
731.50	0.090
731.68	0.091
731.86	0.090
732.05	0.090
732.23	0.090
732.42	0.090
732.60	0.090
732.78	0.090
732.97	0.089
733.15	0.088
733.33	0.088
733.52	0.088
733.70	0.087
733.88	0.087
734.07	0.087
734.25	0.086
734.43	0.086
734.62	0.085
734.80	0.084
734.98	0.084
735.17	0.084
735.35	0.084
735.53	0.083
735.72	0.083
735.90	0.083
736.08	0.083
736.27	0.082
736.45	0.082
736.63	0.082
736.82	0.082
737.00	0.082
737.18	0.083
737.37	0.083
737.55	0.083
737.73	0.083
737.92	0.083
738.10	0.082
738.28	0.082
738.46	0.083
738.65	0.083
738.83	0.083
739.01	0.083
739.20	0.083
739.38	0.083
739.56	0.084
739.75	0.083
739.93	0.084
740.11	0.084
740.29	0.084
740.48	0.084
740.66	0.084
740.84	0.084
741.03	0.084
741.21	0.084
741.39	0.085
741.57	0.084
741.76	0.084
741.94	0.084
742.12	0.084
742.31	0.084
742.49	0.084
742.67	0.083
742.85	0.083
743.04	0.082
743.22	0.083
743.40	0.082
743.58	0.082
743.77	0.082
743.95	0.082
744.13	0.082
744.31	0.082
744.50	0.082
744.68	0.081
744.86	0.082
745.04	0.082
745.23	0.082
745.41	0.082
745.59	0.082
745.77	0.082
745.96	0.082
746.14	0.083
746.32	0.082
746.50	0.083
746.69	0.083
746.87	0.083
747.05	0.083
747.23	0.083
747.42	0.083
747.60	0.083
747.78	0.084
747.96	0.084
748.14	0.085
748.33	0.085
748.51	0.086
748.69	0.086
748.87	0.086
749.06	0.087
749.24	0.087
749.42	0.088
749.60	0.088
749.78	0.088
749.97	0.088
750.15	0.087
750.33	0.087
750.51	0.087
750.69	0.086
750.88	0.086
751.06	0.085
751.24	0.085
751.42	0.085
751.60	0.085
751.79	0.086
751.97	0.086
752.15	0.085
752.33	0.085
752.51	0.084
752.69	0.084
752.88	0.085
753.06	0.086
753.24	0.086
753.42	0.086
753.60	0.086
753.78	0.086
753.97	0.085
754.15	0.086
754.33	0.086
754.51	0.086
754.69	0.086
754.87	0.085
755.06	0.085
755.24	0.084
755.42	0.085
755.60	0.084
755.78	0.084
755.96	0.085
756.15	0.084
756.33	0.084
756.51	0.085
756.69	0.085
756.87	0.085
757.05	0.086
757.23	0.086
757.42	0.086
757.60	0.086
757.78	0.087
757.96	0.087
758.14	0.087
758.32	0.088
758.50	0.088
758.69	0.089
758.87	0.089
759.05	0.090
759.23	0.091
759.41	0.091
759.59	0.091
759.77	0.091
759.95	0.092
760.13	0.092
760.32	0.092
760.50	0.093
760.68	0.092
760.86	0.092
761.04	0.092
761.22	0.092
761.40	0.092
761.58	0.091
761.76	0.091
761.95	0.091
762.13	0.091
762.31	0.091
762.49	0.090
762.67	0.090
762.85	0.090
763.03	0.090
763.21	0.089
763.39	0.089
763.57	0.089
763.75	0.090
763.94	0.089
764.12	0.088
764.30	0.088
764.48	0.088
764.66	0.088
764.84	0.088
765.02	0.087
765.20	0.087
765.38	0.087
765.56	0.087
765.74	0.087
765.92	0.088
766.10	0.088
766.28	0.089
766.46	0.089
766.65	0.089
766.83	0.090
767.01	0.090
767.19	0.091
767.37	0.090
767.55	0.091
767.73	0.091
767.91	0.091
768.09	0.091
768.27	0.091
768.45	0.091
768.63	0.091
768.81	0.091
768.99	0.091
769.17	0.091
769.35	0.092
769.53	0.092
769.71	0.092
769.89	0.093
770.07	0.093
770.25	0.094
770.43	0.094
770.61	0.095
770.79	0.095
770.97	0.095
771.15	0.095
771.33	0.096
771.51	0.096
771.69	0.096
771.87	0.096
772.05	0.096
772.24	0.096
772.42	0.096
772.60	0.096
772.78	0.096
772.96	0.097
773.14	0.097
773.32	0.097
773.49	0.097
773.67	0.096
773.85	0.096
774.03	0.097
774.21	0.096
774.39	0.095
774.57	0.095
774.75	0.095
774.93	0.094
775.11	0.094
775.29	0.094
775.47	0.094
775.65	0.093
775.83	0.093
776.01	0.093
776.19	0.093
776.37	0.093
776.55	0.093
776.73	0.093
776.91	0.093
777.09	0.093
777.27	0.093
777.45	0.093
777.63	0.094
777.81	0.095
777.99	0.095
778.17	0.095
778.35	0.096
778.53	0.096
778.71	0.095
778.89	0.095
779.07	0.095
779.24	0.095
779.42	0.095
779.60	0.095
779.78	0.094
779.96	0.094
780.14	0.094
780.32	0.094
780.50	0.095
780.68	0.095
780.86	0.095
781.04	0.095
781.22	0.095
781.40	0.096
781.58	0.096
781.75	0.097
781.93	0.097
782.11	0.098
782.29	0.099
782.47	0.099
782.65	0.100
782.83	0.100
783.01	0.100
783.19	0.101
783.37	0.100
783.55	0.100
783.72	0.100
783.90	0.100
784.08	0.100
784.26	0.099
784.44	0.099
784.62	0.098
784.80	0.099
784.98	0.098
785.16	0.098
785.33	0.098
785.51	0.098
785.69	0.098
785.87	0.098
786.05	0.097
786.23	0.097
786.41	0.096
786.59	0.096
786.77	0.096
786.94	0.096
787.12	0.096
787.30	0.095
787.48	0.095
787.66	0.096
787.84	0.096
788.02	0.096
788.19	0.097
788.37	0.097
788.55	0.097
788.73	0.097
788.91	0.097
789.09	0.097
789.27	0.097
789.44	0.097
789.62	0.097
789.80	0.097
789.98	0.097
790.16	0.097
790.34	0.098
790.51	0.098
790.69	0.098
790.87	0.098
791.05	0.098
791.23	0.098
791.41	0.098
791.58	0.099
791.76	0.099
791.94	0.099
792.12	0.098
792.30	0.099
792.48	0.099
792.65	0.099
792.83	0.098
793.01	0.099
793.19	0.099
793.37	0.099
793.54	0.099
793.72	0.099
793.90	0.099
794.08	0.100
794.26	0.100
794.43	0.101
794.61	0.101
794.79	0.102
794.97	0.102
795.15	0.102
795.32	0.102
795.50	0.103
795.68	0.103
795.86	0.102
796.04	0.102
796.21	0.102
796.39	0.102
796.57	0.102
796.75	0.102
796.92	0.101
797.10	0.102
797.28	0.101
797.46	0.101
797.64	0.100
797.81	0.101
797.99	0.100
798.17	0.100
798.35	0.100
798.52	0.100
798.70	0.099
798.88	0.099
799.06	0.099
799.23	0.099
799.41	0.099
799.59	0.099
799.77	0.099
799.94	0.099
800.12	0.099
800.30	0.099
800.48	0.099
800.65	0.098
800.83	0.098
801.01	0.099
801.19	0.099
801.36	0.099
801.54	0.099
801.72	0.099
801.90	0.099
802.07	0.099
802.25	0.099
802.43	0.098
802.60	0.099
802.78	0.099
802.96	0.098
803.14	0.098
803.31	0.098
803.49	0.098
803.67	0.098
803.84	0.098
804.02	0.097
804.20	0.098
804.38	0.098
804.55	0.097
804.73	0.098
804.91	0.098
805.08	0.098
805.26	0.098
805.44	0.098
805.61	0.099
805.79	0.100
805.97	0.100
806.15	0.099
806.32	0.100
806.50	0.099
806.68	0.099
806.85	0.099
807.03	0.099
807.21	0.099
807.38	0.099
807.56	0.099
807.74	0.099
807.91	0.100
808.09	0.099
808.27	0.099
808.44	0.099
808.62	0.099
808.80	0.099
808.97	0.099
809.15	0.100
809.33	0.099
809.50	0.099
809.68	0.099
809.86	0.098
810.03	0.098
810.21	0.098
810.39	0.098
810.56	0.098
810.74	0.097
810.91	0.097
811.09	0.096
811.27	0.096
811.44	0.096
811.62	0.095
811.80	0.095
811.97	0.094
812.15	0.095
812.33	0.095
812.50	0.095
812.68	0.095
812.85	0.095
813.03	0.095
813.21	0.096
813.38	0.096
813.56	0.096
813.74	0.096
813.91	0.096
814.09	0.097
814.26	0.096
814.44	0.096
814.62	0.096
814.79	0.096
814.97	0.096
815.14	0.096
815.32	0.096
815.50	0.096
815.67	0.096
815.85	0.096
816.02	0.096
816.20	0.097
816.38	0.097
816.55	0.097
816.73	0.097
816.90	0.096
817.08	0.096
817.26	0.096
817.43	0.096
817.61	0.096
817.78	0.095
817.96	0.096
818.13	0.095
818.31	0.096
818.49	0.095
818.66	0.096
818.84	0.096
819.01	0.096
819.19	0.096
819.36	0.097
819.54	0.097
819.71	0.097
819.89	0.096
820.07	0.097
820.24	0.096
820.42	0.096
820.59	0.095
820.77	0.095
820.94	0.096
821.12	0.096
821.29	0.095
821.47	0.095
821.64	0.095
821.82	0.095
822.00	0.094
822.17	0.094
822.35	0.094
822.52	0.093
822.70	0.093
822.87	0.093
823.05	0.092
823.22	0.092
823.40	0.091
823.57	0.091
823.75	0.090
823.92	0.090
824.10	0.090
824.27	0.089
824.45	0.089
824.62	0.088
824.80	0.088
824.97	0.089
825.15	0.089
825.32	0.089
825.50	0.089
825.67	0.089
825.85	0.089
826.02	0.089
826.20	0.089
826.37	0.089
826.55	0.090
826.72	0.090
826.90	0.089
827.07	0.089
827.25	0.089
827.42	0.088
827.60	0.089
827.77	0.088
827.95	0.088
828.12	0.089
828.30	0.089
828.47	0.088
828.65	0.088
828.82	0.088
829.00	0.088
829.17	0.088
829.34	0.087
829.52	0.087
829.69	0.088
829.87	0.088
830.04	0.087
830.22	0.088
830.39	0.088
830.57	0.088
830.74	0.088
830.92	0.088
831.09	0.088
831.26	0.089
831.44	0.089
831.61	0.089
831.79	0.090
831.96	0.090
832.14	0.088
832.31	0.088
832.49	0.088
832.66	0.087
832.83	0.088
833.01	0.086
833.18	0.086
833.36	0.084
833.53	0.082
833.70	0.080
833.88	0.080
834.05	0.079
834.23	0.077
834.40	0.075
834.58	0.073
834.75	0.072
834.92	0.071
835.10	0.070
835.27	0.069
835.45	0.069
835.62	0.069
835.79	0.069
835.97	0.067
836.14	0.067
836.32	0.067
836.49	0.068
836.66	0.066
836.84	0.066
837.01	0.065
837.18	0.067
837.36	0.067
837.53	0.067
837.71	0.066
837.88	0.069
838.05	0.069
838.23	0.070
838.40	0.070
838.58	0.071
838.75	0.070
838.92	0.071
839.10	0.070
839.27	0.071
839.44	0.072
839.62	0.073
839.79	0.073
839.96	0.077
840.14	0.078
840.31	0.077
840.48	0.078
840.66	0.081
840.83	0.081
841.01	0.082
841.18	0.083
841.35	0.082
841.53	0.080
841.70	0.080
841.87	0.078
842.05	0.077
842.22	0.078
842.39	0.079
842.57	0.078
842.74	0.078
842.91	0.080
843.09	0.080
843.26	0.082
843.43	0.084
843.60	0.086
843.78	0.086
843.95	0.085
844.12	0.085
844.30	0.086
844.47	0.085
844.64	0.087
844.82	0.084
844.99	0.085
845.16	0.082
845.34	0.080
845.51	0.080
845.68	0.080
845.85	0.081
846.03	0.081
846.20	0.080
846.37	0.080
846.55	0.080
846.72	0.083
846.89	0.080
847.06	0.081
847.24	0.083
847.41	0.078
847.58	0.077
847.76	0.077
847.93	0.077
848.10	0.075
848.27	0.075
848.45	0.074
848.62	0.073
848.79	0.072
848.97	0.070
849.14	0.068
849.31	0.070
849.48	0.071
849.66	0.073
849.83	0.073
850.00	0.072
850.17	0.070
850.35	0.068
850.52	0.067
850.69	0.070
850.86	0.070
851.04	0.073
851.21	0.072
851.38	0.070
851.55	0.068
851.72	0.066
851.90	0.071
852.07	0.072
852.24	0.073
852.41	0.072
852.59	0.072
852.76	0.074
852.93	0.071
853.10	0.073
853.28	0.077
853.45	0.076
853.62	0.078
853.79	0.080
853.96	0.080
854.14	0.080
854.31	0.082
854.48	0.081
854.65	0.081
854.82	0.084
855.00	0.083
855.17	0.080
855.34	0.084
855.51	0.084
855.68	0.078
855.86	0.083
856.03	0.083
856.20	0.083
856.37	0.082
856.54	0.083
856.72	0.083
856.89	0.083
857.06	0.084
857.23	0.082
857.40	0.079
857.57	0.082
857.75	0.082
857.92	0.084
858.09	0.083
858.26	0.085
858.43	0.082
858.60	0.081
858.78	0.083
858.95	0.082
859.12	0.084
859.29	0.082
859.46	0.082
859.63	0.085
859.81	0.085
859.98	0.085
860.15	0.087
860.32	0.093
860.49	0.089
860.66	0.089
860.83	0.088
861.01	0.085
861.18	0.088
861.35	0.087
861.52	0.082
861.69	0.079
861.86	0.078
862.03	0.076
862.21	0.076
862.38	0.076
862.55	0.075
862.72	0.076
862.89	0.081
863.06	0.082
863.23	0.083
863.40	0.080
863.58	0.078
863.75	0.076
863.92	0.073
864.09	0.069
864.26	0.070
864.43	0.069
864.60	0.075
864.77	0.071
864.94	0.072
865.11	0.072
865.29	0.076
865.46	0.079
865.63	0.085
865.80	0.085
865.97	0.087
866.14	0.089
866.31	0.090
866.48	0.086
866.65	0.089
866.82	0.088
866.99	0.087
867.16	0.085
867.34	0.083
867.51	0.083
867.68	0.083
867.85	0.081
868.02	0.078
868.19	0.079
868.36	0.076
868.53	0.073
868.70	0.074
868.87	0.069
869.04	0.075
869.21	0.080
869.38	0.077
869.55	0.074
869.72	0.075
869.89	0.083
870.06	0.081
870.24	0.086
870.41	0.080
870.58	0.077
870.75	0.085
870.92	0.084
871.09	0.082
871.26	0.086
871.43	0.094
871.60	0.098
871.77	0.094
871.94	0.096
872.11	0.095
872.28	0.094
872.45	0.094
872.62	0.094
872.79	0.088
872.96	0.085
873.13	0.081
873.30	0.080
873.47	0.077
873.64	0.071
873.81	0.067
873.98	0.071
874.15	0.081
874.32	0.080
874.49	0.080
874.66	0.083
874.83	0.085
875.00	0.082
875.17	0.077
875.34	0.072
875.51	0.074
875.68	0.079
875.85	0.074
876.02	0.070
876.19	0.071
876.36	0.070
876.53	0.066
876.70	0.066
876.87	0.067
877.04	0.071
877.21	0.072
877.38	0.066
877.55	0.066
877.72	0.066
877.89	0.064
878.06	0.061
878.23	0.057
878.39	0.055
878.56	0.057
878.73	0.062
878.90	0.059
879.07	0.056
879.24	0.059
879.41	0.060
879.58	0.063
879.75	0.062
879.92	0.066
880.09	0.068
880.26	0.067
880.43	0.060
880.60	0.057
880.77	0.066
880.94	0.074
881.11	0.078
881.27	0.077
881.44	0.077
881.61	0.072
881.78	0.072
881.95	0.073
882.12	0.076
882.29	0.077
882.46	0.074
882.63	0.076
882.80	0.079
882.97	0.086
883.14	0.081
883.30	0.078
883.47	0.087
883.64	0.087
883.81	0.091
883.98	0.104
884.15	0.105
884.32	0.115
884.49	0.107
884.66	0.097
884.82	0.098
884.99	0.102
885.16	0.109
885.33	0.109
885.50	0.117
885.67	0.113
885.84	0.115
886.01	0.110
886.17	0.103
886.34	0.101
886.51	0.110
886.68	0.100
886.85	0.105
887.02	0.104
887.19	0.101
887.36	0.094
887.52	0.093
887.69	0.096
887.86	0.107
888.03	0.111
888.20	0.118
888.37	0.111
888.54	0.115
888.70	0.107
888.87	0.107
889.04	0.115
889.21	0.109
889.38	0.122
889.55	0.101
889.71	0.169
889.88	0.133
890.05	-0.011
890.22	0.198
890.39	0.002
>>>>>End Processed Spectral Data<<<<<
