SpectraSuite Data File
++++++++++++++++++++++++++++++++++++
Date: Mon Jun 15 05:33:16 PDT 2015
User: introlabs
Dark Spectrum Present: Yes
Reference Spectrum Present: Yes
Number of Sampled Component Spectra: 1
Spectrometers: USB4H08886
Integration Time (usec): 99009 (USB4H08886)
Spectra Averaged: 20 (USB4H08886)
Boxcar Smoothing: 5 (USB4H08886)
Correct for Electrical Dark: Yes (USB4H08886)
Strobe/Lamp Enabled: No (USB4H08886)
Correct for Detector Non-linearity: Yes (USB4H08886)
Correct for Stray Light: Yes (USB4H08886)
Number of Pixels in Processed Spectrum: 3648
>>>>>Begin Processed Spectral Data<<<<<
178.14	-0.000
178.36	-0.000
178.57	-0.000
178.79	-0.000
179.01	-0.000
179.22	0.276
179.44	0.217
179.65	0.232
179.87	0.225
180.08	0.305
180.30	0.130
180.52	0.135
180.73	0.057
180.95	-0.000
181.16	-0.184
181.38	-0.090
181.59	-0.079
181.81	-0.058
182.03	-0.033
182.24	-0.024
182.46	-0.030
182.67	-0.028
182.89	-0.030
183.10	-0.030
183.32	-0.022
183.54	-0.014
183.75	-0.015
183.97	-0.009
184.18	-0.013
184.40	-0.018
184.61	-0.026
184.83	-0.022
185.04	-0.019
185.26	-0.014
185.48	-0.009
185.69	-0.013
185.91	-0.022
186.12	-0.024
186.34	-0.031
186.55	-0.034
186.77	-0.032
186.98	-0.024
187.20	-0.022
187.42	-0.024
187.63	-0.028
187.85	-0.041
188.06	-0.035
188.28	-0.038
188.49	-0.026
188.71	-0.025
188.92	-0.020
189.14	-0.020
189.36	-0.022
189.57	-0.023
189.79	-0.031
190.00	-0.030
190.22	-0.022
190.43	-0.030
190.65	-0.025
190.86	-0.030
191.08	-0.030
191.29	-0.034
191.51	-0.031
191.72	-0.028
191.94	-0.016
192.16	-0.007
192.37	-0.003
192.59	-0.004
192.80	0.002
193.02	0.003
193.23	-0.004
193.45	0.002
193.66	0.005
193.88	-0.008
194.09	-0.014
194.31	-0.029
194.52	-0.031
194.74	-0.034
194.95	-0.034
195.17	-0.034
195.38	-0.025
195.60	-0.024
195.81	-0.030
196.03	-0.031
196.25	-0.025
196.46	-0.023
196.68	-0.019
196.89	-0.020
197.11	-0.024
197.32	-0.023
197.54	-0.024
197.75	-0.036
197.97	-0.036
198.18	-0.037
198.40	-0.034
198.61	-0.040
198.83	-0.039
199.04	-0.043
199.26	-0.041
199.47	-0.037
199.69	-0.041
199.90	-0.040
200.12	-0.034
200.33	-0.030
200.55	-0.024
200.76	-0.027
200.98	-0.022
201.19	-0.016
201.41	-0.009
201.62	-0.014
201.84	-0.011
202.05	-0.006
202.27	-0.003
202.48	-0.008
202.70	-0.003
202.91	-0.007
203.13	-0.013
203.34	-0.012
203.56	-0.017
203.77	-0.029
203.99	-0.023
204.20	-0.026
204.42	-0.028
204.63	-0.031
204.85	-0.031
205.06	-0.038
205.28	-0.031
205.49	-0.031
205.71	-0.031
205.92	-0.028
206.14	-0.022
206.35	-0.026
206.56	-0.022
206.78	-0.020
206.99	-0.015
207.21	-0.016
207.42	-0.013
207.64	-0.017
207.85	-0.008
208.07	-0.005
208.28	-0.014
208.50	-0.012
208.71	-0.017
208.93	-0.021
209.14	-0.025
209.36	-0.030
209.57	-0.025
209.79	-0.029
210.00	-0.029
210.22	-0.026
210.43	-0.026
210.64	-0.018
210.86	-0.015
211.07	-0.016
211.29	-0.012
211.50	-0.011
211.72	-0.007
211.93	-0.010
212.15	-0.010
212.36	-0.015
212.58	-0.015
212.79	-0.022
213.01	-0.023
213.22	-0.026
213.43	-0.026
213.65	-0.031
213.86	-0.033
214.08	-0.034
214.29	-0.034
214.51	-0.031
214.72	-0.027
214.94	-0.033
215.15	-0.028
215.36	-0.031
215.58	-0.028
215.79	-0.018
216.01	-0.018
216.22	-0.009
216.44	-0.013
216.65	-0.011
216.87	-0.011
217.08	-0.014
217.29	-0.013
217.51	-0.015
217.72	-0.010
217.94	-0.014
218.15	-0.016
218.37	-0.013
218.58	-0.018
218.80	-0.015
219.01	-0.018
219.22	-0.015
219.44	-0.012
219.65	-0.011
219.87	-0.014
220.08	-0.019
220.30	-0.015
220.51	-0.014
220.72	-0.016
220.94	-0.013
221.15	-0.017
221.37	-0.016
221.58	-0.018
221.79	-0.018
222.01	-0.016
222.22	-0.014
222.44	-0.012
222.65	-0.016
222.87	-0.019
223.08	-0.019
223.29	-0.022
223.51	-0.023
223.72	-0.028
223.94	-0.030
224.15	-0.032
224.36	-0.034
224.58	-0.033
224.79	-0.030
225.01	-0.034
225.22	-0.032
225.44	-0.039
225.65	-0.041
225.86	-0.040
226.08	-0.037
226.29	-0.037
226.51	-0.038
226.72	-0.036
226.93	-0.038
227.15	-0.041
227.36	-0.036
227.58	-0.034
227.79	-0.026
228.00	-0.026
228.22	-0.027
228.43	-0.025
228.65	-0.022
228.86	-0.023
229.07	-0.024
229.29	-0.021
229.50	-0.020
229.72	-0.019
229.93	-0.022
230.14	-0.027
230.36	-0.026
230.57	-0.024
230.78	-0.025
231.00	-0.028
231.21	-0.027
231.43	-0.031
231.64	-0.034
231.85	-0.031
232.07	-0.032
232.28	-0.029
232.50	-0.026
232.71	-0.027
232.92	-0.027
233.14	-0.025
233.35	-0.025
233.56	-0.026
233.78	-0.024
233.99	-0.026
234.21	-0.028
234.42	-0.028
234.63	-0.028
234.85	-0.028
235.06	-0.028
235.27	-0.030
235.49	-0.029
235.70	-0.030
235.91	-0.029
236.13	-0.029
236.34	-0.027
236.56	-0.027
236.77	-0.027
236.98	-0.028
237.20	-0.029
237.41	-0.028
237.62	-0.028
237.84	-0.028
238.05	-0.028
238.26	-0.029
238.48	-0.029
238.69	-0.029
238.91	-0.030
239.12	-0.031
239.33	-0.030
239.55	-0.029
239.76	-0.029
239.97	-0.029
240.19	-0.029
240.40	-0.029
240.61	-0.028
240.83	-0.028
241.04	-0.029
241.25	-0.028
241.47	-0.028
241.68	-0.028
241.89	-0.029
242.11	-0.029
242.32	-0.029
242.53	-0.029
242.75	-0.029
242.96	-0.029
243.17	-0.029
243.39	-0.027
243.60	-0.028
243.81	-0.028
244.03	-0.028
244.24	-0.028
244.45	-0.028
244.67	-0.027
244.88	-0.027
245.09	-0.027
245.31	-0.026
245.52	-0.026
245.73	-0.026
245.95	-0.026
246.16	-0.026
246.37	-0.026
246.59	-0.025
246.80	-0.026
247.01	-0.026
247.23	-0.025
247.44	-0.026
247.65	-0.026
247.87	-0.026
248.08	-0.026
248.29	-0.026
248.51	-0.025
248.72	-0.026
248.93	-0.026
249.15	-0.026
249.36	-0.025
249.57	-0.025
249.78	-0.025
250.00	-0.025
250.21	-0.024
250.42	-0.024
250.64	-0.024
250.85	-0.024
251.06	-0.024
251.28	-0.024
251.49	-0.023
251.70	-0.023
251.92	-0.023
252.13	-0.023
252.34	-0.023
252.55	-0.023
252.77	-0.023
252.98	-0.023
253.19	-0.023
253.41	-0.023
253.62	-0.023
253.83	-0.023
254.05	-0.024
254.26	-0.023
254.47	-0.024
254.68	-0.024
254.90	-0.024
255.11	-0.024
255.32	-0.024
255.54	-0.024
255.75	-0.024
255.96	-0.024
256.17	-0.024
256.39	-0.024
256.60	-0.024
256.81	-0.024
257.03	-0.024
257.24	-0.024
257.45	-0.024
257.66	-0.024
257.88	-0.024
258.09	-0.024
258.30	-0.024
258.51	-0.024
258.73	-0.024
258.94	-0.024
259.15	-0.024
259.37	-0.024
259.58	-0.024
259.79	-0.024
260.00	-0.024
260.22	-0.024
260.43	-0.024
260.64	-0.024
260.85	-0.024
261.07	-0.023
261.28	-0.024
261.49	-0.024
261.71	-0.024
261.92	-0.024
262.13	-0.023
262.34	-0.023
262.56	-0.023
262.77	-0.024
262.98	-0.024
263.19	-0.024
263.41	-0.024
263.62	-0.023
263.83	-0.023
264.04	-0.023
264.26	-0.023
264.47	-0.024
264.68	-0.024
264.89	-0.024
265.11	-0.023
265.32	-0.024
265.53	-0.024
265.74	-0.024
265.96	-0.024
266.17	-0.024
266.38	-0.023
266.59	-0.023
266.81	-0.023
267.02	-0.023
267.23	-0.023
267.44	-0.023
267.65	-0.023
267.87	-0.023
268.08	-0.023
268.29	-0.023
268.50	-0.023
268.72	-0.023
268.93	-0.024
269.14	-0.024
269.35	-0.024
269.57	-0.024
269.78	-0.024
269.99	-0.024
270.20	-0.024
270.41	-0.024
270.63	-0.024
270.84	-0.024
271.05	-0.024
271.26	-0.024
271.48	-0.024
271.69	-0.024
271.90	-0.023
272.11	-0.023
272.32	-0.023
272.54	-0.023
272.75	-0.023
272.96	-0.023
273.17	-0.023
273.39	-0.023
273.60	-0.023
273.81	-0.023
274.02	-0.024
274.23	-0.024
274.45	-0.024
274.66	-0.024
274.87	-0.024
275.08	-0.024
275.29	-0.024
275.51	-0.024
275.72	-0.024
275.93	-0.024
276.14	-0.024
276.35	-0.024
276.57	-0.024
276.78	-0.023
276.99	-0.024
277.20	-0.024
277.41	-0.024
277.63	-0.024
277.84	-0.024
278.05	-0.024
278.26	-0.024
278.47	-0.024
278.69	-0.024
278.90	-0.024
279.11	-0.024
279.32	-0.024
279.53	-0.023
279.74	-0.023
279.96	-0.023
280.17	-0.023
280.38	-0.023
280.59	-0.023
280.80	-0.023
281.02	-0.023
281.23	-0.023
281.44	-0.023
281.65	-0.023
281.86	-0.023
282.07	-0.023
282.29	-0.023
282.50	-0.023
282.71	-0.023
282.92	-0.023
283.13	-0.023
283.35	-0.023
283.56	-0.023
283.77	-0.023
283.98	-0.023
284.19	-0.023
284.40	-0.023
284.62	-0.023
284.83	-0.023
285.04	-0.023
285.25	-0.023
285.46	-0.022
285.67	-0.022
285.88	-0.022
286.10	-0.022
286.31	-0.022
286.52	-0.021
286.73	-0.021
286.94	-0.021
287.15	-0.021
287.37	-0.021
287.58	-0.021
287.79	-0.021
288.00	-0.020
288.21	-0.020
288.42	-0.020
288.63	-0.020
288.85	-0.020
289.06	-0.020
289.27	-0.020
289.48	-0.020
289.69	-0.020
289.90	-0.020
290.11	-0.020
290.33	-0.020
290.54	-0.020
290.75	-0.020
290.96	-0.020
291.17	-0.020
291.38	-0.020
291.59	-0.020
291.81	-0.020
292.02	-0.020
292.23	-0.020
292.44	-0.020
292.65	-0.020
292.86	-0.020
293.07	-0.020
293.28	-0.020
293.50	-0.020
293.71	-0.020
293.92	-0.019
294.13	-0.019
294.34	-0.019
294.55	-0.019
294.76	-0.019
294.97	-0.020
295.19	-0.020
295.40	-0.019
295.61	-0.019
295.82	-0.019
296.03	-0.019
296.24	-0.019
296.45	-0.019
296.66	-0.019
296.87	-0.019
297.09	-0.019
297.30	-0.019
297.51	-0.019
297.72	-0.019
297.93	-0.019
298.14	-0.019
298.35	-0.019
298.56	-0.019
298.77	-0.019
298.99	-0.019
299.20	-0.019
299.41	-0.019
299.62	-0.019
299.83	-0.019
300.04	-0.019
300.25	-0.019
300.46	-0.019
300.67	-0.019
300.88	-0.019
301.10	-0.019
301.31	-0.019
301.52	-0.019
301.73	-0.019
301.94	-0.019
302.15	-0.019
302.36	-0.019
302.57	-0.019
302.78	-0.019
302.99	-0.019
303.20	-0.019
303.41	-0.019
303.63	-0.019
303.84	-0.019
304.05	-0.019
304.26	-0.019
304.47	-0.019
304.68	-0.019
304.89	-0.019
305.10	-0.019
305.31	-0.019
305.52	-0.019
305.73	-0.018
305.94	-0.018
306.15	-0.018
306.37	-0.018
306.58	-0.018
306.79	-0.018
307.00	-0.018
307.21	-0.018
307.42	-0.018
307.63	-0.018
307.84	-0.018
308.05	-0.018
308.26	-0.018
308.47	-0.018
308.68	-0.018
308.89	-0.018
309.10	-0.018
309.31	-0.018
309.52	-0.018
309.73	-0.018
309.95	-0.018
310.16	-0.018
310.37	-0.018
310.58	-0.018
310.79	-0.018
311.00	-0.018
311.21	-0.018
311.42	-0.019
311.63	-0.018
311.84	-0.018
312.05	-0.018
312.26	-0.018
312.47	-0.018
312.68	-0.018
312.89	-0.018
313.10	-0.018
313.31	-0.018
313.52	-0.018
313.73	-0.018
313.94	-0.018
314.15	-0.018
314.36	-0.018
314.57	-0.018
314.78	-0.018
314.99	-0.018
315.21	-0.018
315.42	-0.018
315.63	-0.018
315.84	-0.018
316.05	-0.018
316.26	-0.018
316.47	-0.018
316.68	-0.018
316.89	-0.018
317.10	-0.018
317.31	-0.018
317.52	-0.018
317.73	-0.018
317.94	-0.018
318.15	-0.018
318.36	-0.018
318.57	-0.018
318.78	-0.018
318.99	-0.018
319.20	-0.018
319.41	-0.018
319.62	-0.018
319.83	-0.018
320.04	-0.018
320.25	-0.018
320.46	-0.018
320.67	-0.018
320.88	-0.018
321.09	-0.018
321.30	-0.018
321.51	-0.018
321.72	-0.018
321.93	-0.018
322.14	-0.018
322.35	-0.018
322.56	-0.018
322.77	-0.018
322.98	-0.018
323.19	-0.018
323.40	-0.018
323.61	-0.019
323.82	-0.019
324.03	-0.018
324.24	-0.019
324.45	-0.019
324.66	-0.019
324.87	-0.018
325.08	-0.018
325.29	-0.018
325.50	-0.018
325.71	-0.018
325.92	-0.018
326.13	-0.018
326.34	-0.018
326.55	-0.018
326.76	-0.018
326.97	-0.018
327.18	-0.018
327.39	-0.018
327.60	-0.018
327.80	-0.018
328.01	-0.017
328.22	-0.017
328.43	-0.017
328.64	-0.018
328.85	-0.018
329.06	-0.018
329.27	-0.018
329.48	-0.018
329.69	-0.018
329.90	-0.018
330.11	-0.018
330.32	-0.018
330.53	-0.018
330.74	-0.018
330.95	-0.018
331.16	-0.018
331.37	-0.018
331.58	-0.018
331.79	-0.018
332.00	-0.018
332.21	-0.018
332.42	-0.018
332.63	-0.018
332.83	-0.018
333.04	-0.018
333.25	-0.018
333.46	-0.018
333.67	-0.018
333.88	-0.018
334.09	-0.018
334.30	-0.018
334.51	-0.018
334.72	-0.018
334.93	-0.018
335.14	-0.018
335.35	-0.018
335.56	-0.018
335.77	-0.018
335.98	-0.018
336.18	-0.018
336.39	-0.018
336.60	-0.018
336.81	-0.018
337.02	-0.018
337.23	-0.018
337.44	-0.018
337.65	-0.018
337.86	-0.018
338.07	-0.018
338.28	-0.018
338.49	-0.018
338.70	-0.018
338.91	-0.018
339.11	-0.018
339.32	-0.018
339.53	-0.018
339.74	-0.018
339.95	-0.018
340.16	-0.018
340.37	-0.018
340.58	-0.018
340.79	-0.018
341.00	-0.018
341.21	-0.018
341.41	-0.018
341.62	-0.018
341.83	-0.018
342.04	-0.018
342.25	-0.018
342.46	-0.018
342.67	-0.018
342.88	-0.018
343.09	-0.018
343.30	-0.018
343.50	-0.018
343.71	-0.018
343.92	-0.018
344.13	-0.018
344.34	-0.018
344.55	-0.018
344.76	-0.018
344.97	-0.018
345.18	-0.018
345.38	-0.017
345.59	-0.017
345.80	-0.017
346.01	-0.017
346.22	-0.017
346.43	-0.017
346.64	-0.017
346.85	-0.017
347.06	-0.017
347.26	-0.017
347.47	-0.017
347.68	-0.017
347.89	-0.017
348.10	-0.017
348.31	-0.017
348.52	-0.016
348.73	-0.016
348.93	-0.016
349.14	-0.016
349.35	-0.016
349.56	-0.015
349.77	-0.015
349.98	-0.015
350.19	-0.015
350.39	-0.015
350.60	-0.014
350.81	-0.014
351.02	-0.014
351.23	-0.014
351.44	-0.014
351.65	-0.014
351.86	-0.014
352.06	-0.014
352.27	-0.013
352.48	-0.013
352.69	-0.013
352.90	-0.013
353.11	-0.012
353.31	-0.012
353.52	-0.012
353.73	-0.012
353.94	-0.012
354.15	-0.012
354.36	-0.012
354.57	-0.012
354.77	-0.012
354.98	-0.011
355.19	-0.011
355.40	-0.011
355.61	-0.011
355.82	-0.011
356.02	-0.010
356.23	-0.010
356.44	-0.010
356.65	-0.010
356.86	-0.010
357.07	-0.010
357.27	-0.009
357.48	-0.009
357.69	-0.009
357.90	-0.009
358.11	-0.009
358.32	-0.009
358.52	-0.009
358.73	-0.009
358.94	-0.008
359.15	-0.008
359.36	-0.008
359.56	-0.008
359.77	-0.008
359.98	-0.008
360.19	-0.008
360.40	-0.008
360.61	-0.008
360.81	-0.007
361.02	-0.007
361.23	-0.007
361.44	-0.006
361.65	-0.006
361.85	-0.005
362.06	-0.006
362.27	-0.006
362.48	-0.005
362.69	-0.005
362.89	-0.005
363.10	-0.005
363.31	-0.005
363.52	-0.004
363.73	-0.004
363.93	-0.004
364.14	-0.004
364.35	-0.003
364.56	-0.003
364.77	-0.003
364.97	-0.003
365.18	-0.002
365.39	-0.002
365.60	-0.002
365.81	-0.002
366.01	-0.001
366.22	-0.001
366.43	-0.001
366.64	-0.001
366.84	-0.001
367.05	-0.000
367.26	-0.000
367.47	-0.000
367.68	-0.000
367.88	-0.000
368.09	-0.000
368.30	-0.000
368.51	-0.000
368.71	-0.000
368.92	-0.000
369.13	-0.000
369.34	-0.001
369.55	-0.001
369.75	-0.001
369.96	-0.001
370.17	-0.001
370.38	-0.001
370.58	-0.001
370.79	-0.002
371.00	-0.002
371.21	-0.002
371.41	-0.002
371.62	-0.003
371.83	-0.003
372.04	-0.003
372.24	-0.003
372.45	-0.003
372.66	-0.003
372.87	-0.003
373.07	-0.003
373.28	-0.003
373.49	-0.003
373.70	-0.003
373.90	-0.003
374.11	-0.003
374.32	-0.003
374.53	-0.003
374.73	-0.003
374.94	-0.003
375.15	-0.003
375.36	-0.003
375.56	-0.003
375.77	-0.003
375.98	-0.003
376.19	-0.003
376.39	-0.002
376.60	-0.002
376.81	-0.002
377.02	-0.002
377.22	-0.002
377.43	-0.001
377.64	-0.001
377.84	-0.001
378.05	-0.001
378.26	-0.001
378.47	-0.001
378.67	-0.000
378.88	-0.000
379.09	-0.000
379.30	-0.000
379.50	-0.000
379.71	-0.000
379.92	-0.000
380.12	-0.000
380.33	-0.000
380.54	-0.000
380.75	-0.000
380.95	-0.000
381.16	-0.001
381.37	-0.001
381.57	-0.001
381.78	-0.001
381.99	-0.001
382.20	-0.001
382.40	-0.002
382.61	-0.002
382.82	-0.002
383.02	-0.002
383.23	-0.003
383.44	-0.003
383.64	-0.003
383.85	-0.003
384.06	-0.003
384.27	-0.004
384.47	-0.004
384.68	-0.004
384.89	-0.004
385.09	-0.004
385.30	-0.004
385.51	-0.004
385.71	-0.004
385.92	-0.004
386.13	-0.003
386.33	-0.004
386.54	-0.003
386.75	-0.003
386.95	-0.003
387.16	-0.003
387.37	-0.003
387.58	-0.003
387.78	-0.003
387.99	-0.003
388.20	-0.002
388.40	-0.003
388.61	-0.002
388.82	-0.002
389.02	-0.002
389.23	-0.002
389.44	-0.002
389.64	-0.002
389.85	-0.002
390.06	-0.002
390.26	-0.002
390.47	-0.002
390.68	-0.001
390.88	-0.001
391.09	-0.001
391.30	-0.001
391.50	-0.001
391.71	-0.001
391.92	-0.000
392.12	-0.000
392.33	-0.000
392.53	-0.000
392.74	-0.000
392.95	-0.000
393.15	-0.000
393.36	-0.000
393.57	-0.000
393.77	-0.000
393.98	-0.000
394.19	-0.000
394.39	-0.000
394.60	-0.000
394.81	-0.001
395.01	-0.001
395.22	-0.001
395.43	-0.001
395.63	-0.001
395.84	-0.001
396.04	-0.001
396.25	-0.001
396.46	-0.001
396.66	-0.001
396.87	-0.001
397.08	-0.001
397.28	-0.000
397.49	-0.000
397.69	-0.000
397.90	-0.000
398.11	-0.000
398.31	-0.000
398.52	-0.000
398.73	-0.000
398.93	-0.000
399.14	-0.000
399.34	-0.000
399.55	-0.000
399.76	-0.000
399.96	-0.000
400.17	-0.000
400.37	-0.000
400.58	-0.000
400.79	-0.000
400.99	-0.000
401.20	-0.000
401.41	-0.001
401.61	-0.001
401.82	-0.002
402.02	-0.002
402.23	-0.002
402.44	-0.002
402.64	-0.003
402.85	-0.003
403.05	-0.003
403.26	-0.003
403.47	-0.003
403.67	-0.003
403.88	-0.002
404.08	-0.002
404.29	-0.002
404.50	-0.002
404.70	-0.002
404.91	-0.001
405.11	-0.001
405.32	-0.001
405.52	-0.001
405.73	-0.001
405.94	-0.001
406.14	-0.001
406.35	-0.001
406.55	-0.001
406.76	-0.002
406.97	-0.002
407.17	-0.002
407.38	-0.002
407.58	-0.002
407.79	-0.002
407.99	-0.003
408.20	-0.003
408.41	-0.003
408.61	-0.003
408.82	-0.004
409.02	-0.003
409.23	-0.003
409.43	-0.003
409.64	-0.004
409.84	-0.004
410.05	-0.004
410.26	-0.004
410.46	-0.004
410.67	-0.004
410.87	-0.004
411.08	-0.004
411.28	-0.004
411.49	-0.004
411.69	-0.004
411.90	-0.004
412.11	-0.004
412.31	-0.004
412.52	-0.004
412.72	-0.004
412.93	-0.004
413.13	-0.004
413.34	-0.004
413.54	-0.004
413.75	-0.005
413.95	-0.005
414.16	-0.005
414.37	-0.005
414.57	-0.005
414.78	-0.005
414.98	-0.005
415.19	-0.006
415.39	-0.007
415.60	-0.007
415.80	-0.007
416.01	-0.008
416.21	-0.008
416.42	-0.009
416.62	-0.010
416.83	-0.010
417.03	-0.011
417.24	-0.011
417.44	-0.011
417.65	-0.011
417.86	-0.012
418.06	-0.012
418.27	-0.011
418.47	-0.011
418.68	-0.011
418.88	-0.011
419.09	-0.010
419.29	-0.009
419.50	-0.008
419.70	-0.007
419.91	-0.006
420.11	-0.006
420.32	-0.004
420.52	-0.004
420.73	-0.003
420.93	-0.002
421.14	-0.001
421.34	-0.001
421.55	-0.001
421.75	-0.000
421.96	-0.000
422.16	-0.000
422.37	-0.000
422.57	-0.000
422.78	-0.000
422.98	-0.000
423.19	-0.000
423.39	-0.000
423.60	-0.001
423.80	-0.001
424.01	-0.001
424.21	-0.002
424.42	-0.003
424.62	-0.003
424.83	-0.004
425.03	-0.005
425.23	-0.006
425.44	-0.007
425.64	-0.008
425.85	-0.008
426.05	-0.009
426.26	-0.010
426.46	-0.010
426.67	-0.011
426.87	-0.011
427.08	-0.011
427.28	-0.010
427.49	-0.009
427.69	-0.008
427.90	-0.007
428.10	-0.007
428.31	-0.006
428.51	-0.004
428.71	-0.003
428.92	-0.002
429.12	-0.001
429.33	-0.000
429.53	-0.000
429.74	-0.000
429.94	-0.000
430.15	-0.000
430.35	-0.000
430.56	-0.000
430.76	-0.000
430.96	-0.000
431.17	-0.000
431.37	-0.000
431.58	-0.000
431.78	-0.000
431.99	-0.001
432.19	-0.001
432.40	-0.001
432.60	-0.002
432.80	-0.003
433.01	-0.004
433.21	-0.004
433.42	-0.005
433.62	-0.007
433.83	-0.007
434.03	-0.007
434.23	-0.008
434.44	-0.008
434.64	-0.008
434.85	-0.008
435.05	-0.008
435.26	-0.008
435.46	-0.008
435.66	-0.007
435.87	-0.006
436.07	-0.006
436.28	-0.006
436.48	-0.005
436.69	-0.005
436.89	-0.005
437.09	-0.005
437.30	-0.004
437.50	-0.005
437.71	-0.004
437.91	-0.005
438.11	-0.005
438.32	-0.006
438.52	-0.006
438.73	-0.007
438.93	-0.008
439.13	-0.009
439.34	-0.009
439.54	-0.010
439.75	-0.010
439.95	-0.010
440.15	-0.010
440.36	-0.011
440.56	-0.011
440.77	-0.011
440.97	-0.011
441.17	-0.011
441.38	-0.010
441.58	-0.010
441.79	-0.010
441.99	-0.010
442.19	-0.009
442.40	-0.009
442.60	-0.009
442.81	-0.008
443.01	-0.008
443.21	-0.007
443.42	-0.007
443.62	-0.007
443.82	-0.007
444.03	-0.006
444.23	-0.007
444.44	-0.007
444.64	-0.007
444.84	-0.007
445.05	-0.006
445.25	-0.007
445.45	-0.006
445.66	-0.006
445.86	-0.006
446.06	-0.007
446.27	-0.007
446.47	-0.007
446.68	-0.007
446.88	-0.008
447.08	-0.008
447.29	-0.009
447.49	-0.009
447.69	-0.010
447.90	-0.010
448.10	-0.010
448.30	-0.011
448.51	-0.011
448.71	-0.011
448.91	-0.012
449.12	-0.012
449.32	-0.012
449.52	-0.013
449.73	-0.013
449.93	-0.013
450.14	-0.014
450.34	-0.014
450.54	-0.015
450.75	-0.015
450.95	-0.015
451.15	-0.015
451.36	-0.015
451.56	-0.016
451.76	-0.016
451.97	-0.016
452.17	-0.016
452.37	-0.016
452.58	-0.016
452.78	-0.016
452.98	-0.016
453.19	-0.016
453.39	-0.016
453.59	-0.016
453.79	-0.016
454.00	-0.016
454.20	-0.016
454.40	-0.016
454.61	-0.016
454.81	-0.016
455.01	-0.016
455.22	-0.016
455.42	-0.016
455.62	-0.016
455.83	-0.015
456.03	-0.016
456.23	-0.016
456.44	-0.016
456.64	-0.015
456.84	-0.016
457.04	-0.016
457.25	-0.016
457.45	-0.016
457.65	-0.016
457.86	-0.016
458.06	-0.016
458.26	-0.016
458.47	-0.016
458.67	-0.016
458.87	-0.016
459.07	-0.016
459.28	-0.016
459.48	-0.016
459.68	-0.016
459.89	-0.016
460.09	-0.016
460.29	-0.016
460.49	-0.016
460.70	-0.016
460.90	-0.016
461.10	-0.016
461.31	-0.016
461.51	-0.016
461.71	-0.016
461.91	-0.016
462.12	-0.016
462.32	-0.016
462.52	-0.016
462.72	-0.016
462.93	-0.016
463.13	-0.016
463.33	-0.016
463.53	-0.016
463.74	-0.016
463.94	-0.016
464.14	-0.016
464.35	-0.016
464.55	-0.016
464.75	-0.016
464.95	-0.016
465.16	-0.016
465.36	-0.016
465.56	-0.016
465.76	-0.016
465.97	-0.016
466.17	-0.016
466.37	-0.016
466.57	-0.016
466.78	-0.016
466.98	-0.016
467.18	-0.016
467.38	-0.016
467.59	-0.016
467.79	-0.016
467.99	-0.016
468.19	-0.016
468.39	-0.016
468.60	-0.016
468.80	-0.016
469.00	-0.016
469.20	-0.016
469.41	-0.016
469.61	-0.016
469.81	-0.016
470.01	-0.016
470.22	-0.016
470.42	-0.016
470.62	-0.016
470.82	-0.016
471.02	-0.016
471.23	-0.016
471.43	-0.016
471.63	-0.016
471.83	-0.016
472.04	-0.016
472.24	-0.016
472.44	-0.016
472.64	-0.016
472.84	-0.015
473.05	-0.014
473.25	-0.012
473.45	-0.011
473.65	-0.010
473.85	-0.008
474.06	-0.007
474.26	-0.005
474.46	-0.004
474.66	-0.003
474.86	-0.002
475.07	-0.001
475.27	-0.001
475.47	-0.000
475.67	-0.000
475.87	-0.000
476.08	-0.000
476.28	-0.000
476.48	-0.000
476.68	-0.000
476.88	-0.000
477.09	-0.000
477.29	-0.000
477.49	-0.000
477.69	-0.000
477.89	-0.000
478.09	-0.000
478.30	-0.000
478.50	-0.000
478.70	-0.000
478.90	-0.000
479.10	-0.000
479.31	-0.000
479.51	-0.000
479.71	-0.000
479.91	-0.000
480.11	-0.000
480.31	-0.000
480.52	-0.000
480.72	-0.000
480.92	-0.000
481.12	-0.000
481.32	-0.000
481.52	-0.000
481.72	-0.000
481.93	-0.000
482.13	-0.000
482.33	-0.000
482.53	-0.000
482.73	-0.000
482.93	-0.000
483.14	-0.000
483.34	-0.000
483.54	-0.000
483.74	-0.000
483.94	-0.000
484.14	-0.000
484.34	-0.000
484.55	-0.000
484.75	-0.000
484.95	-0.000
485.15	-0.000
485.35	-0.000
485.55	-0.000
485.75	-0.000
485.96	-0.000
486.16	-0.000
486.36	-0.000
486.56	-0.000
486.76	-0.000
486.96	-0.000
487.16	-0.000
487.36	-0.000
487.57	-0.000
487.77	-0.000
487.97	-0.000
488.17	-0.000
488.37	-0.000
488.57	-0.000
488.77	-0.000
488.97	-0.000
489.18	-0.000
489.38	-0.000
489.58	-0.000
489.78	-0.000
489.98	-0.000
490.18	-0.000
490.38	-0.000
490.58	-0.000
490.78	-0.000
490.98	-0.000
491.19	-0.000
491.39	-0.000
491.59	-0.000
491.79	-0.000
491.99	-0.000
492.19	-0.000
492.39	-0.000
492.59	-0.000
492.79	-0.000
492.99	-0.000
493.20	-0.000
493.40	-0.000
493.60	-0.000
493.80	-0.000
494.00	-0.000
494.20	-0.000
494.40	-0.000
494.60	-0.000
494.80	-0.000
495.00	-0.000
495.20	-0.000
495.40	-0.000
495.61	-0.000
495.81	-0.000
496.01	-0.000
496.21	-0.000
496.41	-0.000
496.61	-0.000
496.81	-0.000
497.01	-0.000
497.21	-0.000
497.41	-0.000
497.61	-0.000
497.81	-0.000
498.01	-0.000
498.21	-0.000
498.41	-0.000
498.61	-0.000
498.82	-0.000
499.02	-0.000
499.22	-0.000
499.42	-0.000
499.62	-0.000
499.82	-0.000
500.02	-0.000
500.22	-0.000
500.42	-0.000
500.62	-0.000
500.82	-0.000
501.02	-0.000
501.22	-0.000
501.42	-0.000
501.62	-0.000
501.82	-0.000
502.02	-0.000
502.22	-0.000
502.42	-0.000
502.62	-0.000
502.82	-0.000
503.02	-0.000
503.22	-0.000
503.42	-0.000
503.63	-0.000
503.83	-0.000
504.03	-0.000
504.23	-0.000
504.43	-0.000
504.63	-0.000
504.83	-0.000
505.03	-0.000
505.23	-0.000
505.43	-0.000
505.63	-0.000
505.83	-0.000
506.03	-0.000
506.23	-0.000
506.43	-0.000
506.63	-0.000
506.83	-0.000
507.03	-0.000
507.23	-0.000
507.43	-0.000
507.63	-0.000
507.83	-0.000
508.03	-0.000
508.23	-0.000
508.43	-0.000
508.63	-0.000
508.83	-0.000
509.03	-0.000
509.23	-0.000
509.43	-0.000
509.63	-0.000
509.83	-0.000
510.03	-0.000
510.23	-0.000
510.43	-0.000
510.63	-0.000
510.83	-0.000
511.03	-0.000
511.23	-0.000
511.43	-0.000
511.63	-0.000
511.83	-0.000
512.03	-0.000
512.22	-0.000
512.42	-0.000
512.62	-0.000
512.82	-0.000
513.02	-0.000
513.22	-0.000
513.42	-0.000
513.62	-0.000
513.82	-0.000
514.02	-0.000
514.22	-0.000
514.42	-0.000
514.62	-0.000
514.82	-0.000
515.02	-0.000
515.22	-0.000
515.42	-0.000
515.62	-0.000
515.82	-0.000
516.02	-0.000
516.22	-0.000
516.42	-0.000
516.62	-0.000
516.82	-0.000
517.01	-0.000
517.21	-0.000
517.41	-0.000
517.61	-0.000
517.81	-0.000
518.01	-0.000
518.21	-0.000
518.41	-0.000
518.61	-0.000
518.81	-0.000
519.01	-0.000
519.21	-0.000
519.41	-0.000
519.61	-0.000
519.81	-0.000
520.00	-0.000
520.20	-0.000
520.40	-0.000
520.60	-0.000
520.80	-0.000
521.00	-0.000
521.20	-0.000
521.40	-0.000
521.60	-0.000
521.80	-0.000
522.00	-0.000
522.20	-0.000
522.39	-0.000
522.59	-0.001
522.79	-0.001
522.99	-0.001
523.19	-0.001
523.39	-0.001
523.59	-0.001
523.79	-0.001
523.99	-0.001
524.19	-0.001
524.38	-0.001
524.58	-0.002
524.78	-0.002
524.98	-0.002
525.18	-0.002
525.38	-0.002
525.58	-0.003
525.78	-0.003
525.98	-0.003
526.18	-0.003
526.37	-0.003
526.57	-0.003
526.77	-0.003
526.97	-0.003
527.17	-0.003
527.37	-0.003
527.57	-0.003
527.77	-0.003
527.96	-0.002
528.16	-0.002
528.36	-0.003
528.56	-0.003
528.76	-0.002
528.96	-0.003
529.16	-0.003
529.36	-0.003
529.55	-0.003
529.75	-0.003
529.95	-0.003
530.15	-0.003
530.35	-0.003
530.55	-0.003
530.75	-0.003
530.94	-0.003
531.14	-0.003
531.34	-0.003
531.54	-0.003
531.74	-0.003
531.94	-0.003
532.13	-0.003
532.33	-0.002
532.53	-0.002
532.73	-0.002
532.93	-0.002
533.13	-0.001
533.33	-0.001
533.52	-0.001
533.72	-0.001
533.92	-0.000
534.12	-0.000
534.32	-0.000
534.52	-0.000
534.71	-0.000
534.91	-0.000
535.11	-0.000
535.31	-0.000
535.51	-0.000
535.71	-0.000
535.90	-0.000
536.10	-0.000
536.30	-0.000
536.50	-0.000
536.70	-0.000
536.89	-0.000
537.09	-0.000
537.29	-0.000
537.49	-0.000
537.69	-0.000
537.89	-0.000
538.08	-0.000
538.28	-0.000
538.48	-0.000
538.68	-0.000
538.88	-0.000
539.07	-0.000
539.27	-0.000
539.47	-0.000
539.67	-0.000
539.87	-0.000
540.06	-0.000
540.26	-0.000
540.46	-0.000
540.66	-0.000
540.86	-0.000
541.05	-0.000
541.25	-0.000
541.45	-0.000
541.65	-0.000
541.84	-0.000
542.04	-0.000
542.24	-0.000
542.44	-0.000
542.64	-0.000
542.83	-0.000
543.03	-0.000
543.23	-0.000
543.43	-0.000
543.62	-0.000
543.82	-0.000
544.02	-0.000
544.22	-0.000
544.42	-0.000
544.61	-0.000
544.81	-0.000
545.01	-0.000
545.21	-0.000
545.40	-0.000
545.60	-0.000
545.80	-0.000
546.00	-0.000
546.19	-0.000
546.39	-0.000
546.59	-0.000
546.79	-0.000
546.98	-0.000
547.18	-0.000
547.38	-0.000
547.58	-0.000
547.77	-0.000
547.97	-0.000
548.17	-0.000
548.37	-0.000
548.56	-0.000
548.76	-0.000
548.96	-0.001
549.16	-0.001
549.35	-0.001
549.55	-0.002
549.75	-0.003
549.95	-0.003
550.14	-0.004
550.34	-0.004
550.54	-0.005
550.73	-0.005
550.93	-0.005
551.13	-0.005
551.33	-0.005
551.52	-0.005
551.72	-0.005
551.92	-0.005
552.12	-0.004
552.31	-0.004
552.51	-0.003
552.71	-0.002
552.90	-0.002
553.10	-0.002
553.30	-0.001
553.50	-0.001
553.69	-0.001
553.89	-0.000
554.09	-0.000
554.28	-0.000
554.48	-0.000
554.68	-0.001
554.87	-0.001
555.07	-0.002
555.27	-0.002
555.47	-0.003
555.66	-0.004
555.86	-0.006
556.06	-0.007
556.25	-0.008
556.45	-0.009
556.65	-0.011
556.84	-0.012
557.04	-0.013
557.24	-0.014
557.43	-0.015
557.63	-0.015
557.83	-0.015
558.02	-0.015
558.22	-0.016
558.42	-0.016
558.61	-0.016
558.81	-0.016
559.01	-0.016
559.21	-0.016
559.40	-0.015
559.60	-0.015
559.80	-0.014
559.99	-0.014
560.19	-0.012
560.39	-0.011
560.58	-0.010
560.78	-0.008
560.97	-0.007
561.17	-0.005
561.37	-0.004
561.56	-0.003
561.76	-0.002
561.96	-0.001
562.15	-0.001
562.35	-0.000
562.55	-0.000
562.74	-0.000
562.94	-0.001
563.14	-0.001
563.33	-0.002
563.53	-0.003
563.73	-0.004
563.92	-0.005
564.12	-0.006
564.31	-0.007
564.51	-0.008
564.71	-0.009
564.90	-0.010
565.10	-0.011
565.30	-0.012
565.49	-0.013
565.69	-0.013
565.89	-0.013
566.08	-0.013
566.28	-0.012
566.47	-0.011
566.67	-0.010
566.87	-0.009
567.06	-0.007
567.26	-0.006
567.46	-0.005
567.65	-0.004
567.85	-0.003
568.04	-0.002
568.24	-0.001
568.44	-0.001
568.63	-0.000
568.83	-0.000
569.02	-0.000
569.22	-0.000
569.42	-0.000
569.61	-0.000
569.81	-0.000
570.00	-0.000
570.20	-0.000
570.40	-0.000
570.59	-0.000
570.79	-0.000
570.98	-0.000
571.18	-0.000
571.38	-0.000
571.57	-0.000
571.77	-0.000
571.96	-0.000
572.16	-0.000
572.35	-0.000
572.55	-0.000
572.75	-0.000
572.94	-0.000
573.14	-0.000
573.33	-0.000
573.53	-0.000
573.73	-0.000
573.92	-0.000
574.12	-0.000
574.31	-0.000
574.51	-0.000
574.70	-0.000
574.90	-0.000
575.09	-0.000
575.29	-0.000
575.49	-0.000
575.68	-0.000
575.88	-0.000
576.07	-0.000
576.27	-0.000
576.46	-0.000
576.66	-0.000
576.86	-0.000
577.05	-0.000
577.25	-0.000
577.44	-0.000
577.64	-0.000
577.83	-0.000
578.03	-0.000
578.22	-0.000
578.42	-0.000
578.61	-0.000
578.81	-0.000
579.00	-0.000
579.20	-0.000
579.40	-0.000
579.59	-0.000
579.79	-0.000
579.98	-0.000
580.18	-0.000
580.37	-0.000
580.57	-0.000
580.76	-0.000
580.96	-0.000
581.15	-0.000
581.35	-0.000
581.54	-0.000
581.74	-0.000
581.93	-0.000
582.13	-0.000
582.32	-0.000
582.52	-0.000
582.71	-0.000
582.91	-0.000
583.10	-0.000
583.30	-0.000
583.49	-0.000
583.69	-0.000
583.88	-0.000
584.08	-0.000
584.27	-0.000
584.47	-0.000
584.66	-0.000
584.86	-0.000
585.05	-0.000
585.25	-0.000
585.44	-0.000
585.64	-0.000
585.83	-0.000
586.03	-0.000
586.22	-0.000
586.42	-0.000
586.61	-0.000
586.81	-0.000
587.00	-0.000
587.20	-0.000
587.39	-0.000
587.59	-0.000
587.78	-0.000
587.98	-0.000
588.17	-0.000
588.37	-0.000
588.56	-0.000
588.76	-0.000
588.95	-0.000
589.15	-0.000
589.34	-0.000
589.54	-0.000
589.73	-0.000
589.92	-0.000
590.12	-0.000
590.31	-0.000
590.51	-0.000
590.70	-0.000
590.90	-0.000
591.09	-0.000
591.29	-0.000
591.48	-0.000
591.68	-0.000
591.87	-0.000
592.06	-0.000
592.26	-0.000
592.45	-0.000
592.65	-0.000
592.84	-0.000
593.04	-0.000
593.23	-0.000
593.43	-0.000
593.62	-0.000
593.81	-0.000
594.01	-0.000
594.20	-0.000
594.40	-0.000
594.59	-0.000
594.79	-0.000
594.98	-0.000
595.17	-0.000
595.37	-0.000
595.56	-0.000
595.76	-0.000
595.95	-0.000
596.14	-0.000
596.34	-0.000
596.53	-0.000
596.73	-0.000
596.92	-0.000
597.12	-0.000
597.31	-0.000
597.50	-0.000
597.70	-0.000
597.89	-0.000
598.09	-0.000
598.28	-0.000
598.47	-0.000
598.67	-0.000
598.86	-0.000
599.06	-0.000
599.25	-0.000
599.44	-0.000
599.64	-0.000
599.83	-0.000
600.03	-0.000
600.22	-0.000
600.41	-0.000
600.61	-0.000
600.80	-0.000
601.00	-0.000
601.19	-0.000
601.38	-0.000
601.58	-0.000
601.77	-0.000
601.96	-0.000
602.16	-0.000
602.35	-0.000
602.55	-0.000
602.74	-0.000
602.93	-0.000
603.13	-0.000
603.32	-0.000
603.51	-0.000
603.71	-0.000
603.90	-0.000
604.09	-0.000
604.29	-0.000
604.48	-0.000
604.68	-0.000
604.87	-0.000
605.06	-0.000
605.26	-0.000
605.45	-0.000
605.64	-0.000
605.84	-0.000
606.03	-0.000
606.22	-0.000
606.42	-0.000
606.61	-0.000
606.80	-0.000
607.00	-0.000
607.19	-0.000
607.38	-0.000
607.58	-0.000
607.77	-0.000
607.96	-0.000
608.16	-0.000
608.35	-0.000
608.54	-0.000
608.74	-0.000
608.93	-0.000
609.12	-0.000
609.32	-0.000
609.51	-0.000
609.70	-0.000
609.90	-0.000
610.09	-0.000
610.28	-0.000
610.48	-0.000
610.67	-0.000
610.86	-0.000
611.06	-0.000
611.25	-0.000
611.44	-0.000
611.64	-0.000
611.83	-0.000
612.02	-0.000
612.21	-0.000
612.41	-0.000
612.60	-0.000
612.79	-0.000
612.99	-0.000
613.18	-0.000
613.37	-0.000
613.57	-0.000
613.76	-0.000
613.95	-0.000
614.14	-0.000
614.34	-0.000
614.53	-0.000
614.72	-0.000
614.92	-0.000
615.11	-0.000
615.30	-0.000
615.49	-0.000
615.69	-0.000
615.88	-0.000
616.07	-0.001
616.26	-0.001
616.46	-0.003
616.65	-0.004
616.84	-0.006
617.04	-0.008
617.23	-0.010
617.42	-0.012
617.61	-0.015
617.81	-0.017
618.00	-0.021
618.19	-0.024
618.38	-0.027
618.58	-0.030
618.77	-0.033
618.96	-0.035
619.15	-0.038
619.35	-0.040
619.54	-0.043
619.73	-0.044
619.92	-0.046
620.12	-0.047
620.31	-0.048
620.50	-0.048
620.69	-0.048
620.89	-0.048
621.08	-0.047
621.27	-0.046
621.46	-0.045
621.66	-0.043
621.85	-0.041
622.04	-0.040
622.23	-0.038
622.43	-0.037
622.62	-0.035
622.81	-0.034
623.00	-0.031
623.19	-0.031
623.39	-0.029
623.58	-0.028
623.77	-0.026
623.96	-0.026
624.16	-0.024
624.35	-0.024
624.54	-0.022
624.73	-0.021
624.92	-0.020
625.12	-0.019
625.31	-0.018
625.50	-0.018
625.69	-0.017
625.88	-0.017
626.08	-0.016
626.27	-0.016
626.46	-0.015
626.65	-0.015
626.84	-0.015
627.04	-0.015
627.23	-0.015
627.42	-0.015
627.61	-0.015
627.80	-0.015
628.00	-0.015
628.19	-0.015
628.38	-0.015
628.57	-0.015
628.76	-0.015
628.96	-0.014
629.15	-0.014
629.34	-0.014
629.53	-0.014
629.72	-0.014
629.91	-0.014
630.11	-0.014
630.30	-0.014
630.49	-0.014
630.68	-0.014
630.87	-0.014
631.06	-0.014
631.26	-0.015
631.45	-0.015
631.64	-0.015
631.83	-0.015
632.02	-0.014
632.21	-0.015
632.41	-0.015
632.60	-0.015
632.79	-0.015
632.98	-0.015
633.17	-0.015
633.36	-0.014
633.55	-0.014
633.75	-0.014
633.94	-0.014
634.13	-0.014
634.32	-0.014
634.51	-0.014
634.70	-0.014
634.89	-0.015
635.09	-0.015
635.28	-0.015
635.47	-0.015
635.66	-0.015
635.85	-0.015
636.04	-0.015
636.23	-0.015
636.43	-0.015
636.62	-0.015
636.81	-0.015
637.00	-0.015
637.19	-0.015
637.38	-0.015
637.57	-0.015
637.76	-0.015
637.95	-0.015
638.15	-0.015
638.34	-0.015
638.53	-0.015
638.72	-0.015
638.91	-0.015
639.10	-0.015
639.29	-0.015
639.48	-0.015
639.67	-0.015
639.87	-0.015
640.06	-0.015
640.25	-0.015
640.44	-0.015
640.63	-0.015
640.82	-0.015
641.01	-0.015
641.20	-0.015
641.39	-0.015
641.58	-0.015
641.78	-0.015
641.97	-0.015
642.16	-0.015
642.35	-0.015
642.54	-0.015
642.73	-0.015
642.92	-0.015
643.11	-0.015
643.30	-0.014
643.49	-0.014
643.68	-0.014
643.87	-0.014
644.06	-0.015
644.25	-0.015
644.45	-0.015
644.64	-0.015
644.83	-0.015
645.02	-0.015
645.21	-0.015
645.40	-0.015
645.59	-0.015
645.78	-0.015
645.97	-0.015
646.16	-0.015
646.35	-0.015
646.54	-0.015
646.73	-0.015
646.92	-0.015
647.11	-0.015
647.30	-0.015
647.49	-0.014
647.68	-0.015
647.88	-0.015
648.07	-0.015
648.26	-0.015
648.45	-0.015
648.64	-0.015
648.83	-0.015
649.02	-0.015
649.21	-0.015
649.40	-0.015
649.59	-0.015
649.78	-0.015
649.97	-0.015
650.16	-0.014
650.35	-0.014
650.54	-0.014
650.73	-0.014
650.92	-0.014
651.11	-0.014
651.30	-0.014
651.49	-0.015
651.68	-0.015
651.87	-0.015
652.06	-0.015
652.25	-0.015
652.44	-0.015
652.63	-0.015
652.82	-0.015
653.01	-0.015
653.20	-0.014
653.39	-0.012
653.58	-0.010
653.77	-0.009
653.96	-0.008
654.15	-0.006
654.34	-0.005
654.53	-0.004
654.72	-0.003
654.91	-0.002
655.10	-0.000
655.29	-0.000
655.48	-0.000
655.67	-0.000
655.86	-0.000
656.05	-0.000
656.24	-0.000
656.43	-0.000
656.62	-0.000
656.81	-0.000
657.00	-0.000
657.19	-0.000
657.38	-0.000
657.57	-0.000
657.76	-0.002
657.95	-0.006
658.14	-0.009
658.33	-0.011
658.51	-0.013
658.70	-0.014
658.89	-0.016
659.08	-0.017
659.27	-0.019
659.46	-0.021
659.65	-0.022
659.84	-0.022
660.03	-0.019
660.22	-0.016
660.41	-0.014
660.60	-0.014
660.79	-0.015
660.98	-0.014
661.17	-0.015
661.36	-0.015
661.55	-0.015
661.74	-0.015
661.92	-0.015
662.11	-0.015
662.30	-0.015
662.49	-0.015
662.68	-0.015
662.87	-0.015
663.06	-0.015
663.25	-0.015
663.44	-0.015
663.63	-0.015
663.82	-0.015
664.01	-0.015
664.20	-0.015
664.38	-0.015
664.57	-0.015
664.76	-0.015
664.95	-0.015
665.14	-0.015
665.33	-0.015
665.52	-0.015
665.71	-0.015
665.90	-0.015
666.09	-0.015
666.28	-0.015
666.46	-0.015
666.65	-0.015
666.84	-0.015
667.03	-0.015
667.22	-0.015
667.41	-0.015
667.60	-0.015
667.79	-0.015
667.98	-0.015
668.16	-0.015
668.35	-0.015
668.54	-0.015
668.73	-0.015
668.92	-0.015
669.11	-0.015
669.30	-0.015
669.49	-0.015
669.67	-0.015
669.86	-0.015
670.05	-0.015
670.24	-0.015
670.43	-0.015
670.62	-0.015
670.81	-0.015
671.00	-0.015
671.18	-0.015
671.37	-0.015
671.56	-0.015
671.75	-0.015
671.94	-0.015
672.13	-0.015
672.32	-0.015
672.50	-0.015
672.69	-0.015
672.88	-0.015
673.07	-0.015
673.26	-0.015
673.45	-0.015
673.63	-0.015
673.82	-0.015
674.01	-0.015
674.20	-0.015
674.39	-0.015
674.58	-0.015
674.76	-0.015
674.95	-0.015
675.14	-0.015
675.33	-0.015
675.52	-0.015
675.71	-0.015
675.89	-0.015
676.08	-0.015
676.27	-0.015
676.46	-0.015
676.65	-0.015
676.84	-0.015
677.02	-0.015
677.21	-0.015
677.40	-0.015
677.59	-0.015
677.78	-0.015
677.96	-0.015
678.15	-0.015
678.34	-0.015
678.53	-0.015
678.72	-0.015
678.90	-0.015
679.09	-0.015
679.28	-0.015
679.47	-0.015
679.66	-0.015
679.84	-0.015
680.03	-0.015
680.22	-0.015
680.41	-0.015
680.60	-0.015
680.78	-0.015
680.97	-0.015
681.16	-0.015
681.35	-0.015
681.53	-0.015
681.72	-0.015
681.91	-0.015
682.10	-0.015
682.29	-0.015
682.47	-0.015
682.66	-0.015
682.85	-0.015
683.04	-0.015
683.22	-0.015
683.41	-0.015
683.60	-0.015
683.79	-0.015
683.97	-0.015
684.16	-0.015
684.35	-0.015
684.54	-0.015
684.72	-0.014
684.91	-0.014
685.10	-0.014
685.29	-0.014
685.47	-0.014
685.66	-0.014
685.85	-0.014
686.04	-0.014
686.22	-0.014
686.41	-0.015
686.60	-0.015
686.79	-0.015
686.97	-0.015
687.16	-0.014
687.35	-0.014
687.54	-0.015
687.72	-0.014
687.91	-0.014
688.10	-0.014
688.29	-0.014
688.47	-0.014
688.66	-0.015
688.85	-0.015
689.03	-0.015
689.22	-0.015
689.41	-0.015
689.60	-0.015
689.78	-0.015
689.97	-0.015
690.16	-0.015
690.34	-0.015
690.53	-0.015
690.72	-0.015
690.91	-0.015
691.09	-0.015
691.28	-0.015
691.47	-0.015
691.65	-0.015
691.84	-0.015
692.03	-0.015
692.21	-0.015
692.40	-0.015
692.59	-0.015
692.77	-0.015
692.96	-0.015
693.15	-0.014
693.34	-0.014
693.52	-0.014
693.71	-0.014
693.90	-0.014
694.08	-0.014
694.27	-0.014
694.46	-0.014
694.64	-0.014
694.83	-0.014
695.02	-0.014
695.20	-0.015
695.39	-0.015
695.58	-0.015
695.76	-0.015
695.95	-0.015
696.14	-0.015
696.32	-0.015
696.51	-0.015
696.70	-0.015
696.88	-0.015
697.07	-0.015
697.26	-0.015
697.44	-0.015
697.63	-0.015
697.81	-0.015
698.00	-0.015
698.19	-0.015
698.37	-0.015
698.56	-0.015
698.75	-0.015
698.93	-0.015
699.12	-0.015
699.31	-0.015
699.49	-0.015
699.68	-0.015
699.87	-0.015
700.05	-0.015
700.24	-0.015
700.42	-0.015
700.61	-0.015
700.80	-0.015
700.98	-0.015
701.17	-0.015
701.36	-0.015
701.54	-0.015
701.73	-0.015
701.91	-0.015
702.10	-0.015
702.29	-0.015
702.47	-0.015
702.66	-0.015
702.84	-0.015
703.03	-0.015
703.22	-0.015
703.40	-0.015
703.59	-0.015
703.77	-0.015
703.96	-0.015
704.15	-0.015
704.33	-0.015
704.52	-0.015
704.70	-0.015
704.89	-0.015
705.08	-0.015
705.26	-0.015
705.45	-0.015
705.63	-0.015
705.82	-0.015
706.00	-0.015
706.19	-0.015
706.38	-0.015
706.56	-0.015
706.75	-0.015
706.93	-0.015
707.12	-0.015
707.30	-0.015
707.49	-0.015
707.68	-0.015
707.86	-0.015
708.05	-0.014
708.23	-0.015
708.42	-0.015
708.60	-0.015
708.79	-0.014
708.98	-0.014
709.16	-0.014
709.35	-0.014
709.53	-0.014
709.72	-0.014
709.90	-0.014
710.09	-0.014
710.27	-0.014
710.46	-0.014
710.64	-0.014
710.83	-0.015
711.02	-0.015
711.20	-0.015
711.39	-0.015
711.57	-0.015
711.76	-0.015
711.94	-0.015
712.13	-0.015
712.31	-0.015
712.50	-0.015
712.68	-0.015
712.87	-0.015
713.05	-0.015
713.24	-0.015
713.42	-0.015
713.61	-0.015
713.79	-0.015
713.98	-0.015
714.16	-0.015
714.35	-0.015
714.54	-0.015
714.72	-0.015
714.91	-0.015
715.09	-0.015
715.28	-0.015
715.46	-0.015
715.65	-0.015
715.83	-0.015
716.02	-0.015
716.20	-0.015
716.39	-0.015
716.57	-0.015
716.76	-0.015
716.94	-0.015
717.12	-0.015
717.31	-0.015
717.49	-0.015
717.68	-0.015
717.86	-0.015
718.05	-0.015
718.23	-0.015
718.42	-0.015
718.60	-0.015
718.79	-0.015
718.97	-0.015
719.16	-0.015
719.34	-0.015
719.53	-0.015
719.71	-0.015
719.90	-0.015
720.08	-0.015
720.27	-0.015
720.45	-0.015
720.63	-0.015
720.82	-0.015
721.00	-0.015
721.19	-0.015
721.37	-0.015
721.56	-0.015
721.74	-0.015
721.93	-0.015
722.11	-0.015
722.30	-0.015
722.48	-0.015
722.66	-0.015
722.85	-0.015
723.03	-0.015
723.22	-0.015
723.40	-0.015
723.59	-0.015
723.77	-0.015
723.95	-0.015
724.14	-0.015
724.32	-0.015
724.51	-0.015
724.69	-0.015
724.88	-0.015
725.06	-0.015
725.24	-0.015
725.43	-0.015
725.61	-0.015
725.80	-0.015
725.98	-0.015
726.16	-0.015
726.35	-0.015
726.53	-0.015
726.72	-0.015
726.90	-0.015
727.09	-0.015
727.27	-0.015
727.45	-0.015
727.64	-0.015
727.82	-0.015
728.01	-0.015
728.19	-0.015
728.37	-0.016
728.56	-0.016
728.74	-0.016
728.92	-0.015
729.11	-0.015
729.29	-0.015
729.48	-0.015
729.66	-0.015
729.84	-0.015
730.03	-0.015
730.21	-0.015
730.40	-0.015
730.58	-0.015
730.76	-0.015
730.95	-0.015
731.13	-0.015
731.31	-0.015
731.50	-0.015
731.68	-0.015
731.86	-0.015
732.05	-0.015
732.23	-0.015
732.42	-0.015
732.60	-0.015
732.78	-0.015
732.97	-0.015
733.15	-0.015
733.33	-0.015
733.52	-0.015
733.70	-0.015
733.88	-0.015
734.07	-0.016
734.25	-0.016
734.43	-0.016
734.62	-0.016
734.80	-0.016
734.98	-0.016
735.17	-0.016
735.35	-0.016
735.53	-0.016
735.72	-0.016
735.90	-0.015
736.08	-0.016
736.27	-0.016
736.45	-0.016
736.63	-0.015
736.82	-0.015
737.00	-0.015
737.18	-0.015
737.37	-0.015
737.55	-0.015
737.73	-0.015
737.92	-0.015
738.10	-0.014
738.28	-0.015
738.46	-0.015
738.65	-0.015
738.83	-0.015
739.01	-0.015
739.20	-0.015
739.38	-0.016
739.56	-0.016
739.75	-0.016
739.93	-0.016
740.11	-0.016
740.29	-0.015
740.48	-0.016
740.66	-0.016
740.84	-0.016
741.03	-0.016
741.21	-0.016
741.39	-0.016
741.57	-0.016
741.76	-0.016
741.94	-0.016
742.12	-0.017
742.31	-0.017
742.49	-0.017
742.67	-0.016
742.85	-0.017
743.04	-0.016
743.22	-0.017
743.40	-0.017
743.58	-0.017
743.77	-0.017
743.95	-0.017
744.13	-0.017
744.31	-0.017
744.50	-0.017
744.68	-0.017
744.86	-0.016
745.04	-0.017
745.23	-0.016
745.41	-0.016
745.59	-0.016
745.77	-0.015
745.96	-0.015
746.14	-0.015
746.32	-0.015
746.50	-0.015
746.69	-0.015
746.87	-0.016
747.05	-0.015
747.23	-0.016
747.42	-0.016
747.60	-0.016
747.78	-0.016
747.96	-0.016
748.14	-0.016
748.33	-0.016
748.51	-0.016
748.69	-0.016
748.87	-0.016
749.06	-0.016
749.24	-0.015
749.42	-0.016
749.60	-0.015
749.78	-0.016
749.97	-0.016
750.15	-0.016
750.33	-0.016
750.51	-0.016
750.69	-0.016
750.88	-0.016
751.06	-0.016
751.24	-0.016
751.42	-0.015
751.60	-0.015
751.79	-0.015
751.97	-0.015
752.15	-0.015
752.33	-0.015
752.51	-0.015
752.69	-0.015
752.88	-0.015
753.06	-0.015
753.24	-0.016
753.42	-0.015
753.60	-0.016
753.78	-0.016
753.97	-0.016
754.15	-0.016
754.33	-0.016
754.51	-0.016
754.69	-0.016
754.87	-0.016
755.06	-0.015
755.24	-0.016
755.42	-0.015
755.60	-0.015
755.78	-0.014
755.96	-0.014
756.15	-0.014
756.33	-0.014
756.51	-0.014
756.69	-0.015
756.87	-0.014
757.05	-0.015
757.23	-0.015
757.42	-0.015
757.60	-0.016
757.78	-0.016
757.96	-0.016
758.14	-0.016
758.32	-0.016
758.50	-0.017
758.69	-0.016
758.87	-0.017
759.05	-0.016
759.23	-0.016
759.41	-0.015
759.59	-0.016
759.77	-0.016
759.95	-0.016
760.13	-0.016
760.32	-0.016
760.50	-0.016
760.68	-0.016
760.86	-0.016
761.04	-0.016
761.22	-0.016
761.40	-0.016
761.58	-0.016
761.76	-0.016
761.95	-0.016
762.13	-0.016
762.31	-0.016
762.49	-0.016
762.67	-0.015
762.85	-0.015
763.03	-0.016
763.21	-0.016
763.39	-0.016
763.57	-0.015
763.75	-0.016
763.94	-0.016
764.12	-0.016
764.30	-0.016
764.48	-0.016
764.66	-0.016
764.84	-0.016
765.02	-0.015
765.20	-0.015
765.38	-0.016
765.56	-0.015
765.74	-0.015
765.92	-0.015
766.10	-0.015
766.28	-0.015
766.46	-0.015
766.65	-0.015
766.83	-0.015
767.01	-0.015
767.19	-0.015
767.37	-0.015
767.55	-0.015
767.73	-0.015
767.91	-0.015
768.09	-0.015
768.27	-0.015
768.45	-0.015
768.63	-0.015
768.81	-0.015
768.99	-0.015
769.17	-0.015
769.35	-0.015
769.53	-0.015
769.71	-0.015
769.89	-0.015
770.07	-0.015
770.25	-0.015
770.43	-0.015
770.61	-0.015
770.79	-0.015
770.97	-0.016
771.15	-0.016
771.33	-0.016
771.51	-0.015
771.69	-0.015
771.87	-0.016
772.05	-0.016
772.24	-0.016
772.42	-0.016
772.60	-0.016
772.78	-0.016
772.96	-0.016
773.14	-0.016
773.32	-0.016
773.49	-0.016
773.67	-0.016
773.85	-0.017
774.03	-0.017
774.21	-0.017
774.39	-0.017
774.57	-0.017
774.75	-0.017
774.93	-0.017
775.11	-0.016
775.29	-0.016
775.47	-0.016
775.65	-0.016
775.83	-0.016
776.01	-0.015
776.19	-0.016
776.37	-0.015
776.55	-0.015
776.73	-0.015
776.91	-0.015
777.09	-0.014
777.27	-0.014
777.45	-0.014
777.63	-0.015
777.81	-0.015
777.99	-0.014
778.17	-0.015
778.35	-0.015
778.53	-0.016
778.71	-0.016
778.89	-0.016
779.07	-0.016
779.24	-0.016
779.42	-0.016
779.60	-0.015
779.78	-0.015
779.96	-0.015
780.14	-0.015
780.32	-0.015
780.50	-0.015
780.68	-0.015
780.86	-0.015
781.04	-0.015
781.22	-0.015
781.40	-0.015
781.58	-0.015
781.75	-0.015
781.93	-0.015
782.11	-0.015
782.29	-0.015
782.47	-0.015
782.65	-0.015
782.83	-0.015
783.01	-0.015
783.19	-0.015
783.37	-0.015
783.55	-0.015
783.72	-0.015
783.90	-0.015
784.08	-0.015
784.26	-0.015
784.44	-0.015
784.62	-0.015
784.80	-0.015
784.98	-0.016
785.16	-0.016
785.33	-0.016
785.51	-0.016
785.69	-0.016
785.87	-0.016
786.05	-0.016
786.23	-0.016
786.41	-0.016
786.59	-0.016
786.77	-0.016
786.94	-0.016
787.12	-0.016
787.30	-0.016
787.48	-0.016
787.66	-0.016
787.84	-0.016
788.02	-0.016
788.19	-0.016
788.37	-0.016
788.55	-0.016
788.73	-0.016
788.91	-0.017
789.09	-0.017
789.27	-0.017
789.44	-0.016
789.62	-0.016
789.80	-0.016
789.98	-0.016
790.16	-0.016
790.34	-0.016
790.51	-0.016
790.69	-0.016
790.87	-0.016
791.05	-0.016
791.23	-0.016
791.41	-0.016
791.58	-0.015
791.76	-0.015
791.94	-0.015
792.12	-0.015
792.30	-0.015
792.48	-0.015
792.65	-0.015
792.83	-0.015
793.01	-0.015
793.19	-0.015
793.37	-0.015
793.54	-0.015
793.72	-0.015
793.90	-0.015
794.08	-0.015
794.26	-0.015
794.43	-0.016
794.61	-0.016
794.79	-0.016
794.97	-0.016
795.15	-0.016
795.32	-0.016
795.50	-0.016
795.68	-0.016
795.86	-0.015
796.04	-0.015
796.21	-0.016
796.39	-0.015
796.57	-0.015
796.75	-0.015
796.92	-0.015
797.10	-0.015
797.28	-0.015
797.46	-0.015
797.64	-0.015
797.81	-0.015
797.99	-0.015
798.17	-0.015
798.35	-0.014
798.52	-0.014
798.70	-0.014
798.88	-0.014
799.06	-0.014
799.23	-0.014
799.41	-0.014
799.59	-0.014
799.77	-0.014
799.94	-0.014
800.12	-0.014
800.30	-0.015
800.48	-0.015
800.65	-0.015
800.83	-0.015
801.01	-0.015
801.19	-0.016
801.36	-0.015
801.54	-0.015
801.72	-0.015
801.90	-0.015
802.07	-0.015
802.25	-0.015
802.43	-0.015
802.60	-0.015
802.78	-0.015
802.96	-0.015
803.14	-0.015
803.31	-0.015
803.49	-0.015
803.67	-0.015
803.84	-0.015
804.02	-0.015
804.20	-0.015
804.38	-0.015
804.55	-0.015
804.73	-0.015
804.91	-0.015
805.08	-0.014
805.26	-0.014
805.44	-0.014
805.61	-0.014
805.79	-0.014
805.97	-0.014
806.15	-0.014
806.32	-0.014
806.50	-0.014
806.68	-0.014
806.85	-0.014
807.03	-0.015
807.21	-0.015
807.38	-0.015
807.56	-0.015
807.74	-0.015
807.91	-0.016
808.09	-0.015
808.27	-0.016
808.44	-0.016
808.62	-0.016
808.80	-0.016
808.97	-0.016
809.15	-0.016
809.33	-0.016
809.50	-0.016
809.68	-0.016
809.86	-0.015
810.03	-0.015
810.21	-0.015
810.39	-0.016
810.56	-0.015
810.74	-0.015
810.91	-0.015
811.09	-0.015
811.27	-0.015
811.44	-0.015
811.62	-0.015
811.80	-0.015
811.97	-0.015
812.15	-0.015
812.33	-0.015
812.50	-0.015
812.68	-0.015
812.85	-0.015
813.03	-0.015
813.21	-0.016
813.38	-0.015
813.56	-0.015
813.74	-0.015
813.91	-0.015
814.09	-0.015
814.26	-0.016
814.44	-0.016
814.62	-0.015
814.79	-0.016
814.97	-0.016
815.14	-0.015
815.32	-0.015
815.50	-0.016
815.67	-0.015
815.85	-0.015
816.02	-0.015
816.20	-0.015
816.38	-0.015
816.55	-0.015
816.73	-0.015
816.90	-0.015
817.08	-0.015
817.26	-0.015
817.43	-0.015
817.61	-0.016
817.78	-0.016
817.96	-0.016
818.13	-0.016
818.31	-0.016
818.49	-0.016
818.66	-0.016
818.84	-0.016
819.01	-0.016
819.19	-0.016
819.36	-0.016
819.54	-0.015
819.71	-0.015
819.89	-0.015
820.07	-0.015
820.24	-0.015
820.42	-0.015
820.59	-0.015
820.77	-0.015
820.94	-0.015
821.12	-0.015
821.29	-0.016
821.47	-0.016
821.64	-0.015
821.82	-0.016
822.00	-0.016
822.17	-0.016
822.35	-0.016
822.52	-0.016
822.70	-0.016
822.87	-0.016
823.05	-0.016
823.22	-0.016
823.40	-0.016
823.57	-0.017
823.75	-0.017
823.92	-0.017
824.10	-0.016
824.27	-0.016
824.45	-0.016
824.62	-0.016
824.80	-0.016
824.97	-0.017
825.15	-0.016
825.32	-0.016
825.50	-0.016
825.67	-0.016
825.85	-0.015
826.02	-0.015
826.20	-0.015
826.37	-0.015
826.55	-0.015
826.72	-0.015
826.90	-0.015
827.07	-0.015
827.25	-0.015
827.42	-0.015
827.60	-0.014
827.77	-0.014
827.95	-0.014
828.12	-0.014
828.30	-0.015
828.47	-0.015
828.65	-0.015
828.82	-0.015
829.00	-0.015
829.17	-0.016
829.34	-0.016
829.52	-0.016
829.69	-0.016
829.87	-0.016
830.04	-0.016
830.22	-0.016
830.39	-0.015
830.57	-0.015
830.74	-0.015
830.92	-0.015
831.09	-0.015
831.26	-0.014
831.44	-0.014
831.61	-0.015
831.79	-0.014
831.96	-0.015
832.14	-0.015
832.31	-0.015
832.49	-0.015
832.66	-0.015
832.83	-0.016
833.01	-0.016
833.18	-0.016
833.36	-0.016
833.53	-0.017
833.70	-0.016
833.88	-0.016
834.05	-0.017
834.23	-0.017
834.40	-0.017
834.58	-0.017
834.75	-0.017
834.92	-0.019
835.10	-0.019
835.27	-0.019
835.45	-0.018
835.62	-0.018
835.79	-0.018
835.97	-0.019
836.14	-0.017
836.32	-0.018
836.49	-0.017
836.66	-0.017
836.84	-0.017
837.01	-0.017
837.18	-0.017
837.36	-0.017
837.53	-0.017
837.71	-0.017
837.88	-0.015
838.05	-0.016
838.23	-0.016
838.40	-0.015
838.58	-0.015
838.75	-0.015
838.92	-0.015
839.10	-0.014
839.27	-0.016
839.44	-0.016
839.62	-0.016
839.79	-0.016
839.96	-0.017
840.14	-0.016
840.31	-0.016
840.48	-0.016
840.66	-0.015
840.83	-0.016
841.01	-0.015
841.18	-0.013
841.35	-0.014
841.53	-0.014
841.70	-0.014
841.87	-0.014
842.05	-0.015
842.22	-0.015
842.39	-0.015
842.57	-0.016
842.74	-0.016
842.91	-0.015
843.09	-0.016
843.26	-0.015
843.43	-0.015
843.60	-0.016
843.78	-0.015
843.95	-0.014
844.12	-0.017
844.30	-0.016
844.47	-0.015
844.64	-0.016
844.82	-0.016
844.99	-0.017
845.16	-0.019
845.34	-0.018
845.51	-0.017
845.68	-0.018
845.85	-0.018
846.03	-0.017
846.20	-0.018
846.37	-0.019
846.55	-0.017
846.72	-0.017
846.89	-0.017
847.06	-0.017
847.24	-0.019
847.41	-0.019
847.58	-0.018
847.76	-0.018
847.93	-0.018
848.10	-0.019
848.27	-0.020
848.45	-0.020
848.62	-0.021
848.79	-0.020
848.97	-0.017
849.14	-0.016
849.31	-0.016
849.48	-0.016
849.66	-0.016
849.83	-0.015
850.00	-0.015
850.17	-0.016
850.35	-0.017
850.52	-0.017
850.69	-0.019
850.86	-0.021
851.04	-0.021
851.21	-0.022
851.38	-0.023
851.55	-0.023
851.72	-0.022
851.90	-0.019
852.07	-0.019
852.24	-0.019
852.41	-0.018
852.59	-0.015
852.76	-0.014
852.93	-0.014
853.10	-0.016
853.28	-0.015
853.45	-0.014
853.62	-0.014
853.79	-0.016
853.96	-0.016
854.14	-0.017
854.31	-0.018
854.48	-0.019
854.65	-0.020
854.82	-0.019
855.00	-0.016
855.17	-0.015
855.34	-0.017
855.51	-0.016
855.68	-0.016
855.86	-0.016
856.03	-0.013
856.20	-0.013
856.37	-0.014
856.54	-0.015
856.72	-0.018
856.89	-0.019
857.06	-0.020
857.23	-0.018
857.40	-0.019
857.57	-0.020
857.75	-0.020
857.92	-0.021
858.09	-0.022
858.26	-0.020
858.43	-0.020
858.60	-0.021
858.78	-0.020
858.95	-0.022
859.12	-0.023
859.29	-0.024
859.46	-0.021
859.63	-0.022
859.81	-0.021
859.98	-0.020
860.15	-0.019
860.32	-0.020
860.49	-0.016
860.66	-0.017
860.83	-0.016
861.01	-0.016
861.18	-0.014
861.35	-0.015
861.52	-0.016
861.69	-0.016
861.86	-0.017
862.03	-0.019
862.21	-0.018
862.38	-0.019
862.55	-0.021
862.72	-0.023
862.89	-0.023
863.06	-0.025
863.23	-0.024
863.40	-0.020
863.58	-0.019
863.75	-0.019
863.92	-0.020
864.09	-0.019
864.26	-0.018
864.43	-0.015
864.60	-0.014
864.77	-0.016
864.94	-0.017
865.11	-0.016
865.29	-0.020
865.46	-0.020
865.63	-0.021
865.80	-0.017
865.97	-0.018
866.14	-0.019
866.31	-0.016
866.48	-0.013
866.65	-0.012
866.82	-0.011
866.99	-0.011
867.16	-0.012
867.34	-0.010
867.51	-0.010
867.68	-0.010
867.85	-0.007
868.02	-0.009
868.19	-0.015
868.36	-0.017
868.53	-0.017
868.70	-0.018
868.87	-0.019
869.04	-0.018
869.21	-0.019
869.38	-0.018
869.55	-0.019
869.72	-0.022
869.89	-0.020
870.06	-0.018
870.24	-0.020
870.41	-0.017
870.58	-0.019
870.75	-0.017
870.92	-0.015
871.09	-0.020
871.26	-0.020
871.43	-0.019
871.60	-0.017
871.77	-0.013
871.94	-0.013
872.11	-0.014
872.28	-0.018
872.45	-0.017
872.62	-0.017
872.79	-0.017
872.96	-0.012
873.13	-0.012
873.30	-0.013
873.47	-0.012
873.64	-0.014
873.81	-0.015
873.98	-0.015
874.15	-0.013
874.32	-0.010
874.49	-0.015
874.66	-0.018
874.83	-0.017
875.00	-0.016
875.17	-0.018
875.34	-0.022
875.51	-0.021
875.68	-0.022
875.85	-0.018
876.02	-0.016
876.19	-0.019
876.36	-0.014
876.53	-0.014
876.70	-0.015
876.87	-0.017
877.04	-0.017
877.21	-0.012
877.38	-0.019
877.55	-0.012
877.72	-0.010
877.89	-0.010
878.06	-0.011
878.23	-0.014
878.39	-0.010
878.56	-0.012
878.73	-0.009
878.90	-0.012
879.07	-0.015
879.24	-0.010
879.41	-0.008
879.58	-0.017
879.75	-0.016
879.92	-0.013
880.09	-0.012
880.26	-0.016
880.43	-0.013
880.60	-0.013
880.77	-0.013
880.94	-0.017
881.11	-0.017
881.27	-0.029
881.44	-0.025
881.61	-0.025
881.78	-0.025
881.95	-0.029
882.12	-0.027
882.29	-0.032
882.46	-0.035
882.63	-0.030
882.80	-0.026
882.97	-0.022
883.14	-0.014
883.30	-0.009
883.47	-0.007
883.64	-0.009
883.81	-0.004
883.98	-0.002
884.15	0.001
884.32	0.006
884.49	-0.003
884.66	-0.002
884.82	-0.009
884.99	-0.015
885.16	-0.022
885.33	-0.023
885.50	-0.021
885.67	-0.030
885.84	-0.032
886.01	-0.038
886.17	-0.046
886.34	-0.039
886.51	-0.042
886.68	-0.043
886.85	-0.039
887.02	-0.037
887.19	-0.041
887.36	-0.042
887.52	-0.034
887.69	-0.037
887.86	-0.032
888.03	-0.026
888.20	-0.026
888.37	-0.036
888.54	-0.036
888.70	-0.039
888.87	-0.034
889.04	-0.041
889.21	-0.037
889.38	-0.041
889.55	-0.031
889.71	-0.003
889.88	-0.062
890.05	0.031
890.22	-0.061
890.39	0.043
>>>>>End Processed Spectral Data<<<<<
