SpectraSuite Data File
++++++++++++++++++++++++++++++++++++
Date: Mon Jun 15 09:24:28 PDT 2015
User: introlabs
Dark Spectrum Present: Yes
Reference Spectrum Present: Yes
Number of Sampled Component Spectra: 1
Spectrometers: USB4H08886
Integration Time (usec): 44366 (USB4H08886)
Spectra Averaged: 20 (USB4H08886)
Boxcar Smoothing: 5 (USB4H08886)
Correct for Electrical Dark: Yes (USB4H08886)
Strobe/Lamp Enabled: No (USB4H08886)
Correct for Detector Non-linearity: Yes (USB4H08886)
Correct for Stray Light: Yes (USB4H08886)
Number of Pixels in Processed Spectrum: 3648
>>>>>Begin Processed Spectral Data<<<<<
178.14	-0.000
178.36	-0.000
178.57	-0.000
178.79	0.541
179.01	-0.993
179.22	-0.000
179.44	-0.121
179.65	-0.000
179.87	-0.000
180.08	-0.000
180.30	-0.000
180.52	0.964
180.73	0.313
180.95	0.146
181.16	0.067
181.38	0.021
181.59	0.020
181.81	0.001
182.03	0.009
182.24	0.013
182.46	0.013
182.67	0.011
182.89	0.026
183.10	0.033
183.32	0.035
183.54	0.030
183.75	0.031
183.97	0.033
184.18	0.024
184.40	0.015
184.61	0.018
184.83	0.017
185.04	0.007
185.26	0.000
185.48	0.002
185.69	0.003
185.91	0.010
186.12	0.005
186.34	0.005
186.55	-0.000
186.77	0.008
186.98	-0.007
187.20	-0.013
187.42	-0.002
187.63	-0.001
187.85	-0.005
188.06	-0.005
188.28	-0.006
188.49	-0.002
188.71	0.001
188.92	-0.001
189.14	-0.007
189.36	0.005
189.57	0.007
189.79	0.001
190.00	-0.005
190.22	-0.009
190.43	-0.009
190.65	-0.016
190.86	-0.008
191.08	-0.009
191.29	-0.002
191.51	0.003
191.72	-0.007
191.94	-0.003
192.16	-0.002
192.37	-0.001
192.59	0.008
192.80	0.004
193.02	0.006
193.23	0.006
193.45	0.002
193.66	-0.002
193.88	-0.006
194.09	0.003
194.31	-0.004
194.52	-0.009
194.74	-0.007
194.95	-0.017
195.17	-0.018
195.38	-0.022
195.60	-0.033
195.81	-0.029
196.03	-0.021
196.25	-0.016
196.46	-0.023
196.68	-0.019
196.89	-0.016
197.11	-0.015
197.32	-0.012
197.54	-0.013
197.75	-0.000
197.97	0.002
198.18	-0.003
198.40	-0.001
198.61	-0.011
198.83	-0.012
199.04	-0.010
199.26	-0.015
199.47	-0.016
199.69	-0.011
199.90	0.001
200.12	-0.008
200.33	-0.007
200.55	-0.005
200.76	-0.009
200.98	-0.005
201.19	-0.006
201.41	-0.010
201.62	0.002
201.84	0.006
202.05	0.005
202.27	0.003
202.48	0.001
202.70	0.001
202.91	0.002
203.13	0.003
203.34	-0.001
203.56	-0.002
203.77	0.003
203.99	-0.010
204.20	-0.008
204.42	-0.009
204.63	-0.011
204.85	-0.009
205.06	-0.008
205.28	-0.007
205.49	-0.010
205.71	-0.001
205.92	0.001
206.14	0.000
206.35	0.006
206.56	0.008
206.78	0.000
206.99	0.001
207.21	0.003
207.42	0.006
207.64	0.006
207.85	0.014
208.07	0.017
208.28	0.023
208.50	0.027
208.71	0.031
208.93	0.026
209.14	0.030
209.36	0.025
209.57	0.027
209.79	0.024
210.00	0.024
210.22	0.024
210.43	0.018
210.64	0.013
210.86	0.008
211.07	0.003
211.29	-0.000
211.50	-0.003
211.72	-0.008
211.93	-0.011
212.15	-0.008
212.36	-0.013
212.58	-0.017
212.79	-0.020
213.01	-0.026
213.22	-0.025
213.43	-0.021
213.65	-0.014
213.86	-0.012
214.08	-0.003
214.29	-0.003
214.51	-0.006
214.72	-0.003
214.94	-0.003
215.15	0.004
215.36	0.007
215.58	0.006
215.79	0.002
216.01	0.002
216.22	0.005
216.44	0.000
216.65	-0.004
216.87	-0.001
217.08	-0.001
217.29	0.008
217.51	0.007
217.72	0.012
217.94	0.017
218.15	0.023
218.37	0.015
218.58	0.011
218.80	0.015
219.01	0.015
219.22	0.009
219.44	0.013
219.65	0.005
219.87	0.006
220.08	0.001
220.30	-0.006
220.51	-0.007
220.72	-0.000
220.94	-0.004
221.15	-0.007
221.37	-0.010
221.58	-0.010
221.79	-0.008
222.01	-0.012
222.22	-0.021
222.44	-0.024
222.65	-0.024
222.87	-0.027
223.08	-0.030
223.29	-0.028
223.51	-0.030
223.72	-0.027
223.94	-0.027
224.15	-0.033
224.36	-0.030
224.58	-0.029
224.79	-0.026
225.01	-0.030
225.22	-0.032
225.44	-0.032
225.65	-0.029
225.86	-0.026
226.08	-0.025
226.29	-0.028
226.51	-0.027
226.72	-0.026
226.93	-0.023
227.15	-0.026
227.36	-0.023
227.58	-0.024
227.79	-0.018
228.00	-0.018
228.22	-0.028
228.43	-0.030
228.65	-0.029
228.86	-0.030
229.07	-0.034
229.29	-0.034
229.50	-0.034
229.72	-0.033
229.93	-0.034
230.14	-0.040
230.36	-0.046
230.57	-0.042
230.78	-0.047
231.00	-0.048
231.21	-0.052
231.43	-0.050
231.64	-0.051
231.85	-0.051
232.07	-0.051
232.28	-0.054
232.50	-0.056
232.71	-0.054
232.92	-0.054
233.14	-0.052
233.35	-0.051
233.56	-0.049
233.78	-0.050
233.99	-0.051
234.21	-0.054
234.42	-0.054
234.63	-0.054
234.85	-0.053
235.06	-0.054
235.27	-0.052
235.49	-0.050
235.70	-0.052
235.91	-0.053
236.13	-0.052
236.34	-0.053
236.56	-0.052
236.77	-0.052
236.98	-0.051
237.20	-0.052
237.41	-0.051
237.62	-0.052
237.84	-0.052
238.05	-0.052
238.26	-0.053
238.48	-0.052
238.69	-0.050
238.91	-0.051
239.12	-0.050
239.33	-0.049
239.55	-0.049
239.76	-0.048
239.97	-0.047
240.19	-0.046
240.40	-0.045
240.61	-0.044
240.83	-0.043
241.04	-0.043
241.25	-0.043
241.47	-0.041
241.68	-0.040
241.89	-0.039
242.11	-0.039
242.32	-0.039
242.53	-0.038
242.75	-0.037
242.96	-0.037
243.17	-0.036
243.39	-0.035
243.60	-0.035
243.81	-0.034
244.03	-0.035
244.24	-0.034
244.45	-0.033
244.67	-0.032
244.88	-0.031
245.09	-0.031
245.31	-0.030
245.52	-0.030
245.73	-0.030
245.95	-0.029
246.16	-0.029
246.37	-0.028
246.59	-0.027
246.80	-0.027
247.01	-0.027
247.23	-0.028
247.44	-0.028
247.65	-0.027
247.87	-0.026
248.08	-0.026
248.29	-0.026
248.51	-0.026
248.72	-0.026
248.93	-0.025
249.15	-0.025
249.36	-0.025
249.57	-0.024
249.78	-0.024
250.00	-0.024
250.21	-0.023
250.42	-0.023
250.64	-0.023
250.85	-0.023
251.06	-0.023
251.28	-0.022
251.49	-0.022
251.70	-0.022
251.92	-0.021
252.13	-0.020
252.34	-0.020
252.55	-0.020
252.77	-0.021
252.98	-0.020
253.19	-0.020
253.41	-0.019
253.62	-0.019
253.83	-0.019
254.05	-0.019
254.26	-0.019
254.47	-0.019
254.68	-0.019
254.90	-0.019
255.11	-0.019
255.32	-0.018
255.54	-0.018
255.75	-0.018
255.96	-0.018
256.17	-0.018
256.39	-0.018
256.60	-0.018
256.81	-0.018
257.03	-0.018
257.24	-0.018
257.45	-0.018
257.66	-0.018
257.88	-0.018
258.09	-0.018
258.30	-0.018
258.51	-0.018
258.73	-0.018
258.94	-0.018
259.15	-0.019
259.37	-0.019
259.58	-0.019
259.79	-0.019
260.00	-0.019
260.22	-0.019
260.43	-0.019
260.64	-0.019
260.85	-0.020
261.07	-0.020
261.28	-0.020
261.49	-0.020
261.71	-0.020
261.92	-0.020
262.13	-0.021
262.34	-0.020
262.56	-0.020
262.77	-0.020
262.98	-0.021
263.19	-0.021
263.41	-0.021
263.62	-0.021
263.83	-0.021
264.04	-0.022
264.26	-0.022
264.47	-0.021
264.68	-0.022
264.89	-0.022
265.11	-0.022
265.32	-0.022
265.53	-0.022
265.74	-0.022
265.96	-0.023
266.17	-0.023
266.38	-0.023
266.59	-0.023
266.81	-0.023
267.02	-0.024
267.23	-0.025
267.44	-0.025
267.65	-0.026
267.87	-0.026
268.08	-0.026
268.29	-0.026
268.50	-0.026
268.72	-0.026
268.93	-0.026
269.14	-0.026
269.35	-0.026
269.57	-0.026
269.78	-0.026
269.99	-0.026
270.20	-0.026
270.41	-0.027
270.63	-0.027
270.84	-0.027
271.05	-0.028
271.26	-0.028
271.48	-0.028
271.69	-0.029
271.90	-0.029
272.11	-0.029
272.32	-0.030
272.54	-0.030
272.75	-0.030
272.96	-0.030
273.17	-0.030
273.39	-0.030
273.60	-0.030
273.81	-0.030
274.02	-0.031
274.23	-0.031
274.45	-0.031
274.66	-0.031
274.87	-0.031
275.08	-0.031
275.29	-0.032
275.51	-0.032
275.72	-0.032
275.93	-0.031
276.14	-0.031
276.35	-0.031
276.57	-0.031
276.78	-0.031
276.99	-0.031
277.20	-0.031
277.41	-0.031
277.63	-0.030
277.84	-0.030
278.05	-0.030
278.26	-0.030
278.47	-0.030
278.69	-0.030
278.90	-0.029
279.11	-0.029
279.32	-0.029
279.53	-0.028
279.74	-0.028
279.96	-0.028
280.17	-0.028
280.38	-0.028
280.59	-0.028
280.80	-0.028
281.02	-0.027
281.23	-0.028
281.44	-0.027
281.65	-0.027
281.86	-0.027
282.07	-0.027
282.29	-0.026
282.50	-0.026
282.71	-0.026
282.92	-0.026
283.13	-0.026
283.35	-0.026
283.56	-0.026
283.77	-0.026
283.98	-0.025
284.19	-0.025
284.40	-0.025
284.62	-0.025
284.83	-0.024
285.04	-0.024
285.25	-0.023
285.46	-0.022
285.67	-0.022
285.88	-0.021
286.10	-0.021
286.31	-0.020
286.52	-0.019
286.73	-0.018
286.94	-0.018
287.15	-0.017
287.37	-0.016
287.58	-0.016
287.79	-0.015
288.00	-0.015
288.21	-0.014
288.42	-0.013
288.63	-0.013
288.85	-0.012
289.06	-0.012
289.27	-0.011
289.48	-0.011
289.69	-0.011
289.90	-0.010
290.11	-0.010
290.33	-0.009
290.54	-0.009
290.75	-0.008
290.96	-0.008
291.17	-0.008
291.38	-0.007
291.59	-0.007
291.81	-0.007
292.02	-0.006
292.23	-0.006
292.44	-0.006
292.65	-0.006
292.86	-0.005
293.07	-0.005
293.28	-0.005
293.50	-0.005
293.71	-0.004
293.92	-0.004
294.13	-0.004
294.34	-0.004
294.55	-0.003
294.76	-0.003
294.97	-0.003
295.19	-0.003
295.40	-0.003
295.61	-0.003
295.82	-0.003
296.03	-0.003
296.24	-0.003
296.45	-0.003
296.66	-0.003
296.87	-0.003
297.09	-0.003
297.30	-0.003
297.51	-0.002
297.72	-0.002
297.93	-0.002
298.14	-0.002
298.35	-0.002
298.56	-0.002
298.77	-0.002
298.99	-0.002
299.20	-0.002
299.41	-0.002
299.62	-0.002
299.83	-0.002
300.04	-0.002
300.25	-0.002
300.46	-0.002
300.67	-0.001
300.88	-0.001
301.10	-0.001
301.31	-0.001
301.52	-0.001
301.73	-0.001
301.94	-0.001
302.15	-0.001
302.36	-0.001
302.57	-0.001
302.78	-0.001
302.99	-0.001
303.20	-0.001
303.41	-0.001
303.63	-0.001
303.84	-0.001
304.05	-0.001
304.26	-0.001
304.47	-0.001
304.68	-0.001
304.89	-0.001
305.10	-0.001
305.31	-0.001
305.52	-0.001
305.73	-0.001
305.94	-0.001
306.15	-0.000
306.37	-0.000
306.58	-0.000
306.79	-0.000
307.00	-0.000
307.21	-0.000
307.42	0.000
307.63	0.000
307.84	0.000
308.05	0.000
308.26	0.000
308.47	0.000
308.68	0.000
308.89	0.000
309.10	0.000
309.31	0.000
309.52	0.000
309.73	0.000
309.95	0.000
310.16	0.000
310.37	0.000
310.58	0.000
310.79	0.000
311.00	0.000
311.21	0.000
311.42	0.000
311.63	0.000
311.84	0.000
312.05	0.000
312.26	0.001
312.47	0.001
312.68	0.001
312.89	0.001
313.10	0.001
313.31	0.001
313.52	0.001
313.73	0.001
313.94	0.001
314.15	0.001
314.36	0.001
314.57	0.001
314.78	0.001
314.99	0.001
315.21	0.001
315.42	0.001
315.63	0.001
315.84	0.001
316.05	0.001
316.26	0.001
316.47	0.001
316.68	0.001
316.89	0.001
317.10	0.001
317.31	0.002
317.52	0.001
317.73	0.002
317.94	0.002
318.15	0.002
318.36	0.002
318.57	0.002
318.78	0.002
318.99	0.002
319.20	0.002
319.41	0.002
319.62	0.002
319.83	0.002
320.04	0.002
320.25	0.002
320.46	0.002
320.67	0.002
320.88	0.002
321.09	0.002
321.30	0.002
321.51	0.002
321.72	0.002
321.93	0.002
322.14	0.002
322.35	0.002
322.56	0.002
322.77	0.002
322.98	0.002
323.19	0.002
323.40	0.002
323.61	0.002
323.82	0.002
324.03	0.003
324.24	0.003
324.45	0.003
324.66	0.002
324.87	0.002
325.08	0.002
325.29	0.002
325.50	0.002
325.71	0.002
325.92	0.002
326.13	0.002
326.34	0.002
326.55	0.002
326.76	0.002
326.97	0.002
327.18	0.002
327.39	0.002
327.60	0.002
327.80	0.002
328.01	0.002
328.22	0.002
328.43	0.002
328.64	0.002
328.85	0.002
329.06	0.002
329.27	0.002
329.48	0.002
329.69	0.002
329.90	0.003
330.11	0.003
330.32	0.002
330.53	0.002
330.74	0.002
330.95	0.002
331.16	0.002
331.37	0.002
331.58	0.003
331.79	0.003
332.00	0.003
332.21	0.003
332.42	0.002
332.63	0.003
332.83	0.003
333.04	0.002
333.25	0.003
333.46	0.003
333.67	0.002
333.88	0.002
334.09	0.002
334.30	0.002
334.51	0.002
334.72	0.002
334.93	0.002
335.14	0.002
335.35	0.002
335.56	0.002
335.77	0.002
335.98	0.002
336.18	0.002
336.39	0.002
336.60	0.002
336.81	0.002
337.02	0.002
337.23	0.002
337.44	0.002
337.65	0.002
337.86	0.002
338.07	0.002
338.28	0.002
338.49	0.002
338.70	0.001
338.91	0.001
339.11	0.001
339.32	0.001
339.53	0.001
339.74	0.001
339.95	0.001
340.16	0.001
340.37	0.001
340.58	0.001
340.79	0.001
341.00	0.001
341.21	0.001
341.41	0.001
341.62	0.001
341.83	0.000
342.04	0.000
342.25	0.000
342.46	0.000
342.67	0.000
342.88	0.000
343.09	0.000
343.30	0.000
343.50	0.000
343.71	0.000
343.92	0.000
344.13	0.000
344.34	0.000
344.55	0.000
344.76	0.000
344.97	0.000
345.18	0.000
345.38	0.000
345.59	-0.000
345.80	-0.000
346.01	-0.000
346.22	-0.000
346.43	-0.000
346.64	-0.000
346.85	-0.000
347.06	-0.000
347.26	-0.000
347.47	-0.000
347.68	-0.000
347.89	-0.000
348.10	-0.000
348.31	-0.000
348.52	-0.000
348.73	-0.001
348.93	-0.001
349.14	-0.001
349.35	-0.001
349.56	-0.001
349.77	-0.001
349.98	-0.001
350.19	-0.001
350.39	-0.001
350.60	-0.001
350.81	-0.001
351.02	-0.001
351.23	-0.001
351.44	-0.001
351.65	-0.001
351.86	-0.001
352.06	-0.001
352.27	-0.001
352.48	-0.001
352.69	-0.001
352.90	-0.001
353.11	-0.001
353.31	-0.000
353.52	-0.001
353.73	-0.001
353.94	-0.001
354.15	-0.001
354.36	-0.001
354.57	-0.001
354.77	-0.001
354.98	-0.001
355.19	-0.001
355.40	-0.001
355.61	-0.001
355.82	-0.001
356.02	-0.001
356.23	-0.001
356.44	-0.001
356.65	-0.001
356.86	-0.001
357.07	-0.001
357.27	-0.001
357.48	-0.000
357.69	-0.001
357.90	-0.001
358.11	-0.001
358.32	-0.001
358.52	-0.001
358.73	-0.001
358.94	-0.001
359.15	-0.001
359.36	-0.001
359.56	-0.001
359.77	-0.001
359.98	-0.001
360.19	-0.001
360.40	-0.001
360.61	-0.001
360.81	-0.001
361.02	-0.001
361.23	-0.001
361.44	-0.001
361.65	-0.001
361.85	-0.001
362.06	-0.001
362.27	-0.001
362.48	-0.001
362.69	-0.001
362.89	-0.001
363.10	-0.001
363.31	-0.001
363.52	-0.001
363.73	-0.001
363.93	-0.001
364.14	-0.001
364.35	-0.001
364.56	-0.001
364.77	-0.001
364.97	-0.001
365.18	-0.001
365.39	-0.001
365.60	-0.001
365.81	-0.001
366.01	-0.001
366.22	-0.001
366.43	-0.001
366.64	-0.002
366.84	-0.001
367.05	-0.001
367.26	-0.001
367.47	-0.001
367.68	-0.001
367.88	-0.001
368.09	-0.001
368.30	-0.001
368.51	-0.001
368.71	-0.001
368.92	-0.001
369.13	-0.001
369.34	-0.001
369.55	-0.001
369.75	-0.001
369.96	-0.001
370.17	-0.001
370.38	-0.001
370.58	-0.001
370.79	-0.001
371.00	-0.001
371.21	-0.001
371.41	-0.001
371.62	-0.001
371.83	-0.001
372.04	-0.001
372.24	-0.001
372.45	-0.001
372.66	-0.001
372.87	-0.001
373.07	-0.001
373.28	-0.001
373.49	-0.001
373.70	-0.001
373.90	-0.001
374.11	-0.001
374.32	-0.001
374.53	-0.001
374.73	-0.001
374.94	-0.001
375.15	-0.001
375.36	-0.001
375.56	-0.001
375.77	-0.001
375.98	-0.001
376.19	-0.001
376.39	-0.001
376.60	-0.001
376.81	-0.002
377.02	-0.002
377.22	-0.002
377.43	-0.002
377.64	-0.002
377.84	-0.002
378.05	-0.002
378.26	-0.002
378.47	-0.002
378.67	-0.002
378.88	-0.002
379.09	-0.001
379.30	-0.002
379.50	-0.002
379.71	-0.002
379.92	-0.001
380.12	-0.002
380.33	-0.002
380.54	-0.001
380.75	-0.001
380.95	-0.002
381.16	-0.002
381.37	-0.002
381.57	-0.002
381.78	-0.002
381.99	-0.002
382.20	-0.002
382.40	-0.001
382.61	-0.001
382.82	-0.002
383.02	-0.002
383.23	-0.002
383.44	-0.001
383.64	-0.001
383.85	-0.001
384.06	-0.001
384.27	-0.001
384.47	-0.001
384.68	-0.001
384.89	-0.001
385.09	-0.002
385.30	-0.002
385.51	-0.002
385.71	-0.002
385.92	-0.002
386.13	-0.002
386.33	-0.002
386.54	-0.002
386.75	-0.002
386.95	-0.002
387.16	-0.002
387.37	-0.002
387.58	-0.002
387.78	-0.002
387.99	-0.002
388.20	-0.002
388.40	-0.002
388.61	-0.002
388.82	-0.002
389.02	-0.002
389.23	-0.002
389.44	-0.002
389.64	-0.002
389.85	-0.002
390.06	-0.002
390.26	-0.002
390.47	-0.002
390.68	-0.002
390.88	-0.002
391.09	-0.002
391.30	-0.002
391.50	-0.002
391.71	-0.002
391.92	-0.002
392.12	-0.002
392.33	-0.002
392.53	-0.002
392.74	-0.002
392.95	-0.002
393.15	-0.002
393.36	-0.002
393.57	-0.002
393.77	-0.002
393.98	-0.002
394.19	-0.001
394.39	-0.001
394.60	-0.001
394.81	-0.002
395.01	-0.002
395.22	-0.002
395.43	-0.002
395.63	-0.002
395.84	-0.002
396.04	-0.002
396.25	-0.002
396.46	-0.003
396.66	-0.003
396.87	-0.003
397.08	-0.003
397.28	-0.003
397.49	-0.002
397.69	-0.002
397.90	-0.002
398.11	-0.002
398.31	-0.002
398.52	-0.002
398.73	-0.002
398.93	-0.002
399.14	-0.002
399.34	-0.002
399.55	-0.002
399.76	-0.002
399.96	-0.002
400.17	-0.002
400.37	-0.002
400.58	-0.002
400.79	-0.002
400.99	-0.002
401.20	-0.002
401.41	-0.002
401.61	-0.002
401.82	-0.002
402.02	-0.001
402.23	-0.002
402.44	-0.002
402.64	-0.002
402.85	-0.002
403.05	-0.002
403.26	-0.002
403.47	-0.002
403.67	-0.002
403.88	-0.002
404.08	-0.002
404.29	-0.003
404.50	-0.002
404.70	-0.002
404.91	-0.002
405.11	-0.002
405.32	-0.003
405.52	-0.003
405.73	-0.003
405.94	-0.003
406.14	-0.003
406.35	-0.003
406.55	-0.003
406.76	-0.003
406.97	-0.003
407.17	-0.003
407.38	-0.003
407.58	-0.003
407.79	-0.003
407.99	-0.002
408.20	-0.002
408.41	-0.002
408.61	-0.002
408.82	-0.002
409.02	-0.002
409.23	-0.002
409.43	-0.002
409.64	-0.002
409.84	-0.002
410.05	-0.002
410.26	-0.002
410.46	-0.002
410.67	-0.002
410.87	-0.002
411.08	-0.003
411.28	-0.002
411.49	-0.002
411.69	-0.003
411.90	-0.003
412.11	-0.003
412.31	-0.003
412.52	-0.003
412.72	-0.003
412.93	-0.003
413.13	-0.003
413.34	-0.003
413.54	-0.003
413.75	-0.002
413.95	-0.002
414.16	-0.002
414.37	-0.002
414.57	-0.002
414.78	-0.002
414.98	-0.002
415.19	-0.002
415.39	-0.002
415.60	-0.002
415.80	-0.003
416.01	-0.003
416.21	-0.003
416.42	-0.003
416.62	-0.003
416.83	-0.003
417.03	-0.003
417.24	-0.003
417.44	-0.003
417.65	-0.003
417.86	-0.003
418.06	-0.003
418.27	-0.003
418.47	-0.003
418.68	-0.003
418.88	-0.003
419.09	-0.003
419.29	-0.003
419.50	-0.003
419.70	-0.003
419.91	-0.003
420.11	-0.003
420.32	-0.003
420.52	-0.003
420.73	-0.003
420.93	-0.003
421.14	-0.003
421.34	-0.003
421.55	-0.003
421.75	-0.003
421.96	-0.003
422.16	-0.003
422.37	-0.003
422.57	-0.003
422.78	-0.003
422.98	-0.003
423.19	-0.003
423.39	-0.003
423.60	-0.003
423.80	-0.003
424.01	-0.003
424.21	-0.003
424.42	-0.003
424.62	-0.003
424.83	-0.002
425.03	-0.003
425.23	-0.003
425.44	-0.003
425.64	-0.003
425.85	-0.003
426.05	-0.003
426.26	-0.003
426.46	-0.003
426.67	-0.003
426.87	-0.003
427.08	-0.003
427.28	-0.003
427.49	-0.003
427.69	-0.003
427.90	-0.003
428.10	-0.003
428.31	-0.003
428.51	-0.003
428.71	-0.003
428.92	-0.003
429.12	-0.003
429.33	-0.003
429.53	-0.003
429.74	-0.003
429.94	-0.003
430.15	-0.003
430.35	-0.003
430.56	-0.003
430.76	-0.003
430.96	-0.003
431.17	-0.003
431.37	-0.003
431.58	-0.003
431.78	-0.003
431.99	-0.003
432.19	-0.002
432.40	-0.002
432.60	-0.003
432.80	-0.003
433.01	-0.003
433.21	-0.003
433.42	-0.003
433.62	-0.003
433.83	-0.003
434.03	-0.003
434.23	-0.003
434.44	-0.003
434.64	-0.003
434.85	-0.003
435.05	-0.003
435.26	-0.003
435.46	-0.003
435.66	-0.003
435.87	-0.003
436.07	-0.003
436.28	-0.003
436.48	-0.003
436.69	-0.003
436.89	-0.003
437.09	-0.003
437.30	-0.003
437.50	-0.003
437.71	-0.003
437.91	-0.003
438.11	-0.003
438.32	-0.003
438.52	-0.003
438.73	-0.003
438.93	-0.003
439.13	-0.003
439.34	-0.003
439.54	-0.003
439.75	-0.003
439.95	-0.003
440.15	-0.003
440.36	-0.003
440.56	-0.003
440.77	-0.003
440.97	-0.003
441.17	-0.003
441.38	-0.003
441.58	-0.003
441.79	-0.003
441.99	-0.003
442.19	-0.003
442.40	-0.003
442.60	-0.003
442.81	-0.003
443.01	-0.003
443.21	-0.003
443.42	-0.003
443.62	-0.003
443.82	-0.003
444.03	-0.003
444.23	-0.003
444.44	-0.003
444.64	-0.003
444.84	-0.003
445.05	-0.003
445.25	-0.003
445.45	-0.003
445.66	-0.003
445.86	-0.003
446.06	-0.003
446.27	-0.003
446.47	-0.003
446.68	-0.003
446.88	-0.003
447.08	-0.003
447.29	-0.003
447.49	-0.003
447.69	-0.003
447.90	-0.004
448.10	-0.003
448.30	-0.003
448.51	-0.003
448.71	-0.003
448.91	-0.003
449.12	-0.003
449.32	-0.003
449.52	-0.003
449.73	-0.003
449.93	-0.003
450.14	-0.003
450.34	-0.003
450.54	-0.003
450.75	-0.003
450.95	-0.003
451.15	-0.003
451.36	-0.003
451.56	-0.003
451.76	-0.003
451.97	-0.003
452.17	-0.003
452.37	-0.003
452.58	-0.003
452.78	-0.003
452.98	-0.003
453.19	-0.003
453.39	-0.003
453.59	-0.003
453.79	-0.003
454.00	-0.003
454.20	-0.003
454.40	-0.003
454.61	-0.003
454.81	-0.003
455.01	-0.003
455.22	-0.003
455.42	-0.003
455.62	-0.003
455.83	-0.003
456.03	-0.003
456.23	-0.003
456.44	-0.003
456.64	-0.003
456.84	-0.003
457.04	-0.003
457.25	-0.003
457.45	-0.003
457.65	-0.003
457.86	-0.003
458.06	-0.003
458.26	-0.003
458.47	-0.003
458.67	-0.003
458.87	-0.003
459.07	-0.003
459.28	-0.003
459.48	-0.003
459.68	-0.003
459.89	-0.003
460.09	-0.003
460.29	-0.003
460.49	-0.003
460.70	-0.003
460.90	-0.003
461.10	-0.003
461.31	-0.003
461.51	-0.003
461.71	-0.003
461.91	-0.003
462.12	-0.003
462.32	-0.003
462.52	-0.003
462.72	-0.003
462.93	-0.003
463.13	-0.003
463.33	-0.003
463.53	-0.003
463.74	-0.003
463.94	-0.004
464.14	-0.004
464.35	-0.004
464.55	-0.004
464.75	-0.004
464.95	-0.004
465.16	-0.004
465.36	-0.004
465.56	-0.004
465.76	-0.004
465.97	-0.003
466.17	-0.003
466.37	-0.004
466.57	-0.003
466.78	-0.003
466.98	-0.003
467.18	-0.003
467.38	-0.003
467.59	-0.003
467.79	-0.003
467.99	-0.003
468.19	-0.003
468.39	-0.003
468.60	-0.003
468.80	-0.003
469.00	-0.003
469.20	-0.003
469.41	-0.003
469.61	-0.003
469.81	-0.003
470.01	-0.003
470.22	-0.003
470.42	-0.003
470.62	-0.003
470.82	-0.003
471.02	-0.003
471.23	-0.003
471.43	-0.003
471.63	-0.003
471.83	-0.003
472.04	-0.003
472.24	-0.003
472.44	-0.004
472.64	-0.004
472.84	-0.004
473.05	-0.004
473.25	-0.004
473.45	-0.004
473.65	-0.004
473.85	-0.004
474.06	-0.004
474.26	-0.004
474.46	-0.004
474.66	-0.004
474.86	-0.004
475.07	-0.004
475.27	-0.003
475.47	-0.003
475.67	-0.003
475.87	-0.003
476.08	-0.003
476.28	-0.003
476.48	-0.003
476.68	-0.003
476.88	-0.003
477.09	-0.003
477.29	-0.003
477.49	-0.003
477.69	-0.003
477.89	-0.003
478.09	-0.003
478.30	-0.003
478.50	-0.003
478.70	-0.004
478.90	-0.004
479.10	-0.004
479.31	-0.004
479.51	-0.004
479.71	-0.004
479.91	-0.004
480.11	-0.004
480.31	-0.004
480.52	-0.004
480.72	-0.004
480.92	-0.003
481.12	-0.004
481.32	-0.004
481.52	-0.003
481.72	-0.004
481.93	-0.004
482.13	-0.004
482.33	-0.004
482.53	-0.004
482.73	-0.004
482.93	-0.004
483.14	-0.004
483.34	-0.004
483.54	-0.004
483.74	-0.004
483.94	-0.004
484.14	-0.004
484.34	-0.004
484.55	-0.004
484.75	-0.004
484.95	-0.004
485.15	-0.004
485.35	-0.004
485.55	-0.004
485.75	-0.003
485.96	-0.004
486.16	-0.003
486.36	-0.004
486.56	-0.003
486.76	-0.003
486.96	-0.003
487.16	-0.003
487.36	-0.003
487.57	-0.003
487.77	-0.003
487.97	-0.003
488.17	-0.003
488.37	-0.003
488.57	-0.002
488.77	-0.002
488.97	-0.002
489.18	-0.002
489.38	-0.002
489.58	-0.002
489.78	-0.002
489.98	-0.002
490.18	-0.002
490.38	-0.002
490.58	-0.002
490.78	-0.003
490.98	-0.003
491.19	-0.003
491.39	-0.003
491.59	-0.003
491.79	-0.003
491.99	-0.003
492.19	-0.003
492.39	-0.003
492.59	-0.003
492.79	-0.003
492.99	-0.003
493.20	-0.003
493.40	-0.003
493.60	-0.003
493.80	-0.003
494.00	-0.003
494.20	-0.003
494.40	-0.003
494.60	-0.003
494.80	-0.003
495.00	-0.003
495.20	-0.003
495.40	-0.003
495.61	-0.003
495.81	-0.003
496.01	-0.003
496.21	-0.003
496.41	-0.003
496.61	-0.003
496.81	-0.002
497.01	-0.002
497.21	-0.002
497.41	-0.002
497.61	-0.002
497.81	-0.002
498.01	-0.002
498.21	-0.002
498.41	-0.002
498.61	-0.002
498.82	-0.002
499.02	-0.002
499.22	-0.002
499.42	-0.002
499.62	-0.002
499.82	-0.002
500.02	-0.002
500.22	-0.002
500.42	-0.003
500.62	-0.003
500.82	-0.003
501.02	-0.003
501.22	-0.003
501.42	-0.003
501.62	-0.003
501.82	-0.003
502.02	-0.003
502.22	-0.003
502.42	-0.003
502.62	-0.003
502.82	-0.003
503.02	-0.003
503.22	-0.003
503.42	-0.002
503.63	-0.002
503.83	-0.002
504.03	-0.002
504.23	-0.002
504.43	-0.002
504.63	-0.002
504.83	-0.002
505.03	-0.002
505.23	-0.002
505.43	-0.002
505.63	-0.002
505.83	-0.002
506.03	-0.002
506.23	-0.002
506.43	-0.002
506.63	-0.002
506.83	-0.002
507.03	-0.002
507.23	-0.002
507.43	-0.002
507.63	-0.002
507.83	-0.002
508.03	-0.002
508.23	-0.002
508.43	-0.002
508.63	-0.002
508.83	-0.002
509.03	-0.002
509.23	-0.002
509.43	-0.002
509.63	-0.002
509.83	-0.002
510.03	-0.002
510.23	-0.002
510.43	-0.002
510.63	-0.002
510.83	-0.002
511.03	-0.002
511.23	-0.002
511.43	-0.002
511.63	-0.002
511.83	-0.002
512.03	-0.002
512.22	-0.002
512.42	-0.002
512.62	-0.002
512.82	-0.002
513.02	-0.002
513.22	-0.002
513.42	-0.002
513.62	-0.002
513.82	-0.002
514.02	-0.002
514.22	-0.002
514.42	-0.002
514.62	-0.002
514.82	-0.002
515.02	-0.002
515.22	-0.002
515.42	-0.002
515.62	-0.002
515.82	-0.002
516.02	-0.002
516.22	-0.002
516.42	-0.002
516.62	-0.002
516.82	-0.002
517.01	-0.002
517.21	-0.002
517.41	-0.002
517.61	-0.002
517.81	-0.002
518.01	-0.002
518.21	-0.002
518.41	-0.002
518.61	-0.002
518.81	-0.002
519.01	-0.002
519.21	-0.002
519.41	-0.002
519.61	-0.002
519.81	-0.002
520.00	-0.002
520.20	-0.002
520.40	-0.002
520.60	-0.002
520.80	-0.001
521.00	-0.001
521.20	-0.002
521.40	-0.002
521.60	-0.002
521.80	-0.002
522.00	-0.002
522.20	-0.002
522.39	-0.002
522.59	-0.002
522.79	-0.002
522.99	-0.002
523.19	-0.002
523.39	-0.002
523.59	-0.002
523.79	-0.002
523.99	-0.002
524.19	-0.002
524.38	-0.002
524.58	-0.002
524.78	-0.002
524.98	-0.002
525.18	-0.002
525.38	-0.002
525.58	-0.002
525.78	-0.002
525.98	-0.002
526.18	-0.002
526.37	-0.002
526.57	-0.002
526.77	-0.002
526.97	-0.002
527.17	-0.002
527.37	-0.002
527.57	-0.002
527.77	-0.002
527.96	-0.002
528.16	-0.002
528.36	-0.002
528.56	-0.002
528.76	-0.002
528.96	-0.002
529.16	-0.002
529.36	-0.002
529.55	-0.002
529.75	-0.002
529.95	-0.002
530.15	-0.002
530.35	-0.002
530.55	-0.001
530.75	-0.001
530.94	-0.001
531.14	-0.001
531.34	-0.001
531.54	-0.001
531.74	-0.001
531.94	-0.001
532.13	-0.002
532.33	-0.002
532.53	-0.002
532.73	-0.002
532.93	-0.002
533.13	-0.002
533.33	-0.002
533.52	-0.002
533.72	-0.002
533.92	-0.002
534.12	-0.002
534.32	-0.002
534.52	-0.002
534.71	-0.002
534.91	-0.002
535.11	-0.002
535.31	-0.002
535.51	-0.002
535.71	-0.002
535.90	-0.002
536.10	-0.002
536.30	-0.002
536.50	-0.002
536.70	-0.001
536.89	-0.002
537.09	-0.001
537.29	-0.002
537.49	-0.002
537.69	-0.002
537.89	-0.002
538.08	-0.002
538.28	-0.002
538.48	-0.002
538.68	-0.001
538.88	-0.002
539.07	-0.002
539.27	-0.002
539.47	-0.001
539.67	-0.001
539.87	-0.001
540.06	-0.001
540.26	-0.001
540.46	-0.001
540.66	-0.001
540.86	-0.001
541.05	-0.001
541.25	-0.001
541.45	-0.001
541.65	-0.001
541.84	-0.001
542.04	-0.001
542.24	-0.001
542.44	-0.001
542.64	-0.002
542.83	-0.002
543.03	-0.002
543.23	-0.002
543.43	-0.002
543.62	-0.002
543.82	-0.002
544.02	-0.002
544.22	-0.002
544.42	-0.002
544.61	-0.002
544.81	-0.002
545.01	-0.002
545.21	-0.002
545.40	-0.002
545.60	-0.001
545.80	-0.001
546.00	-0.001
546.19	-0.001
546.39	-0.001
546.59	-0.001
546.79	-0.001
546.98	-0.001
547.18	-0.001
547.38	-0.001
547.58	-0.001
547.77	-0.001
547.97	-0.001
548.17	-0.001
548.37	-0.001
548.56	-0.001
548.76	-0.001
548.96	-0.001
549.16	-0.001
549.35	-0.001
549.55	-0.001
549.75	-0.001
549.95	-0.001
550.14	-0.001
550.34	-0.001
550.54	-0.001
550.73	-0.001
550.93	-0.001
551.13	-0.001
551.33	-0.001
551.52	-0.001
551.72	-0.001
551.92	-0.001
552.12	-0.002
552.31	-0.002
552.51	-0.002
552.71	-0.002
552.90	-0.002
553.10	-0.002
553.30	-0.002
553.50	-0.001
553.69	-0.001
553.89	-0.001
554.09	-0.001
554.28	-0.001
554.48	-0.001
554.68	-0.001
554.87	-0.001
555.07	-0.001
555.27	-0.001
555.47	-0.001
555.66	-0.001
555.86	-0.001
556.06	-0.001
556.25	-0.001
556.45	-0.001
556.65	-0.001
556.84	-0.000
557.04	-0.000
557.24	-0.000
557.43	-0.000
557.63	-0.000
557.83	-0.000
558.02	-0.001
558.22	-0.001
558.42	-0.001
558.61	-0.001
558.81	-0.001
559.01	-0.001
559.21	-0.001
559.40	-0.001
559.60	-0.001
559.80	-0.001
559.99	-0.001
560.19	-0.002
560.39	-0.002
560.58	-0.002
560.78	-0.002
560.97	-0.002
561.17	-0.002
561.37	-0.001
561.56	-0.001
561.76	-0.001
561.96	-0.001
562.15	-0.001
562.35	-0.001
562.55	-0.001
562.74	-0.001
562.94	-0.001
563.14	-0.000
563.33	-0.001
563.53	-0.001
563.73	-0.001
563.92	-0.001
564.12	-0.001
564.31	-0.001
564.51	-0.001
564.71	-0.001
564.90	-0.001
565.10	-0.001
565.30	-0.001
565.49	-0.001
565.69	-0.001
565.89	-0.001
566.08	-0.001
566.28	-0.001
566.47	-0.001
566.67	-0.001
566.87	-0.001
567.06	-0.002
567.26	-0.002
567.46	-0.002
567.65	-0.002
567.85	-0.002
568.04	-0.002
568.24	-0.003
568.44	-0.003
568.63	-0.003
568.83	-0.003
569.02	-0.003
569.22	-0.003
569.42	-0.003
569.61	-0.003
569.81	-0.003
570.00	-0.003
570.20	-0.003
570.40	-0.003
570.59	-0.003
570.79	-0.003
570.98	-0.002
571.18	-0.002
571.38	-0.003
571.57	-0.003
571.77	-0.003
571.96	-0.002
572.16	-0.002
572.35	-0.002
572.55	-0.002
572.75	-0.002
572.94	-0.002
573.14	-0.002
573.33	-0.002
573.53	-0.002
573.73	-0.002
573.92	-0.002
574.12	-0.002
574.31	-0.002
574.51	-0.002
574.70	-0.002
574.90	-0.002
575.09	-0.001
575.29	-0.001
575.49	-0.001
575.68	-0.001
575.88	-0.001
576.07	-0.001
576.27	-0.000
576.46	-0.000
576.66	-0.000
576.86	-0.000
577.05	-0.000
577.25	-0.000
577.44	-0.000
577.64	-0.000
577.83	-0.000
578.03	-0.000
578.22	-0.000
578.42	-0.000
578.61	-0.000
578.81	-0.000
579.00	-0.000
579.20	-0.000
579.40	-0.000
579.59	-0.000
579.79	-0.000
579.98	-0.000
580.18	-0.000
580.37	-0.000
580.57	-0.000
580.76	-0.000
580.96	-0.000
581.15	-0.000
581.35	-0.000
581.54	-0.000
581.74	-0.000
581.93	-0.000
582.13	-0.000
582.32	-0.000
582.52	-0.000
582.71	-0.000
582.91	-0.000
583.10	-0.000
583.30	-0.000
583.49	-0.000
583.69	-0.000
583.88	-0.000
584.08	-0.000
584.27	-0.000
584.47	-0.000
584.66	-0.000
584.86	-0.000
585.05	-0.000
585.25	-0.000
585.44	-0.000
585.64	-0.000
585.83	-0.000
586.03	-0.000
586.22	-0.000
586.42	-0.000
586.61	-0.000
586.81	-0.000
587.00	-0.000
587.20	0.000
587.39	-0.000
587.59	-0.000
587.78	-0.000
587.98	-0.000
588.17	-0.000
588.37	-0.000
588.56	-0.000
588.76	0.000
588.95	-0.000
589.15	-0.000
589.34	-0.000
589.54	-0.000
589.73	-0.001
589.92	-0.001
590.12	-0.001
590.31	-0.001
590.51	-0.002
590.70	-0.002
590.90	-0.002
591.09	-0.002
591.29	-0.002
591.48	-0.002
591.68	-0.002
591.87	-0.002
592.06	-0.002
592.26	-0.002
592.45	-0.002
592.65	-0.001
592.84	-0.001
593.04	-0.001
593.23	-0.001
593.43	-0.001
593.62	-0.001
593.81	-0.001
594.01	-0.000
594.20	-0.000
594.40	-0.000
594.59	0.000
594.79	0.000
594.98	0.000
595.17	0.000
595.37	0.000
595.56	0.000
595.76	-0.000
595.95	-0.001
596.14	-0.001
596.34	-0.001
596.53	-0.001
596.73	-0.002
596.92	-0.002
597.12	-0.002
597.31	-0.002
597.50	-0.003
597.70	-0.002
597.89	-0.002
598.09	-0.002
598.28	-0.002
598.47	-0.002
598.67	-0.002
598.86	-0.002
599.06	-0.002
599.25	-0.002
599.44	-0.001
599.64	-0.001
599.83	-0.001
600.03	-0.001
600.22	-0.001
600.41	-0.000
600.61	-0.000
600.80	-0.000
601.00	-0.000
601.19	0.000
601.38	0.000
601.58	0.000
601.77	0.000
601.96	0.000
602.16	0.000
602.35	0.000
602.55	-0.000
602.74	-0.000
602.93	-0.001
603.13	-0.001
603.32	-0.001
603.51	-0.001
603.71	-0.002
603.90	-0.002
604.09	-0.002
604.29	-0.002
604.48	-0.002
604.68	-0.002
604.87	-0.002
605.06	-0.002
605.26	-0.002
605.45	-0.002
605.64	-0.002
605.84	-0.002
606.03	-0.002
606.22	-0.001
606.42	-0.001
606.61	-0.001
606.80	-0.001
607.00	-0.001
607.19	-0.001
607.38	-0.001
607.58	-0.000
607.77	-0.000
607.96	0.000
608.16	0.000
608.35	0.000
608.54	0.001
608.74	0.001
608.93	0.001
609.12	0.001
609.32	0.001
609.51	0.001
609.70	0.001
609.90	0.001
610.09	0.001
610.28	0.000
610.48	0.000
610.67	-0.000
610.86	-0.000
611.06	-0.000
611.25	-0.000
611.44	-0.000
611.64	-0.001
611.83	-0.001
612.02	-0.001
612.21	-0.001
612.41	-0.001
612.60	-0.001
612.79	-0.001
612.99	-0.001
613.18	-0.001
613.37	-0.001
613.57	-0.001
613.76	-0.001
613.95	-0.001
614.14	-0.000
614.34	-0.000
614.53	-0.000
614.72	-0.000
614.92	0.000
615.11	0.000
615.30	0.000
615.49	0.000
615.69	0.000
615.88	0.000
616.07	0.000
616.26	0.001
616.46	0.001
616.65	0.001
616.84	0.001
617.04	0.001
617.23	0.001
617.42	0.001
617.61	0.001
617.81	0.001
618.00	0.001
618.19	0.001
618.38	0.001
618.58	0.001
618.77	0.001
618.96	0.001
619.15	0.000
619.35	0.001
619.54	0.001
619.73	0.001
619.92	0.000
620.12	0.000
620.31	0.000
620.50	0.000
620.69	0.001
620.89	0.001
621.08	0.001
621.27	0.001
621.46	0.000
621.66	0.000
621.85	0.000
622.04	0.001
622.23	0.000
622.43	0.000
622.62	0.000
622.81	0.000
623.00	0.000
623.19	0.000
623.39	0.000
623.58	0.001
623.77	0.000
623.96	0.000
624.16	0.001
624.35	0.001
624.54	0.001
624.73	0.001
624.92	0.001
625.12	0.001
625.31	0.001
625.50	0.001
625.69	0.001
625.88	0.001
626.08	0.001
626.27	0.001
626.46	0.001
626.65	0.001
626.84	0.002
627.04	0.002
627.23	0.002
627.42	0.001
627.61	0.001
627.80	0.001
628.00	0.001
628.19	0.001
628.38	0.002
628.57	0.001
628.76	0.001
628.96	0.001
629.15	0.002
629.34	0.002
629.53	0.002
629.72	0.002
629.91	0.002
630.11	0.002
630.30	0.002
630.49	0.002
630.68	0.002
630.87	0.002
631.06	0.002
631.26	0.002
631.45	0.002
631.64	0.002
631.83	0.002
632.02	0.002
632.21	0.002
632.41	0.002
632.60	0.003
632.79	0.002
632.98	0.002
633.17	0.002
633.36	0.002
633.55	0.002
633.75	0.002
633.94	0.002
634.13	0.002
634.32	0.002
634.51	0.002
634.70	0.002
634.89	0.002
635.09	0.002
635.28	0.002
635.47	0.002
635.66	0.002
635.85	0.002
636.04	0.002
636.23	0.002
636.43	0.002
636.62	0.002
636.81	0.002
637.00	0.003
637.19	0.002
637.38	0.003
637.57	0.003
637.76	0.003
637.95	0.003
638.15	0.003
638.34	0.003
638.53	0.003
638.72	0.003
638.91	0.003
639.10	0.003
639.29	0.003
639.48	0.003
639.67	0.003
639.87	0.003
640.06	0.003
640.25	0.003
640.44	0.003
640.63	0.003
640.82	0.003
641.01	0.003
641.20	0.003
641.39	0.003
641.58	0.003
641.78	0.003
641.97	0.003
642.16	0.003
642.35	0.003
642.54	0.003
642.73	0.003
642.92	0.003
643.11	0.003
643.30	0.003
643.49	0.003
643.68	0.003
643.87	0.002
644.06	0.003
644.25	0.003
644.45	0.003
644.64	0.003
644.83	0.003
645.02	0.003
645.21	0.002
645.40	0.002
645.59	0.002
645.78	0.002
645.97	0.002
646.16	0.002
646.35	0.002
646.54	0.002
646.73	0.002
646.92	0.002
647.11	0.002
647.30	0.002
647.49	0.002
647.68	0.002
647.88	0.002
648.07	0.002
648.26	0.002
648.45	0.002
648.64	0.002
648.83	0.001
649.02	0.002
649.21	0.002
649.40	0.002
649.59	0.002
649.78	0.002
649.97	0.002
650.16	0.002
650.35	0.002
650.54	0.003
650.73	0.003
650.92	0.003
651.11	0.003
651.30	0.003
651.49	0.003
651.68	0.003
651.87	0.003
652.06	0.003
652.25	0.003
652.44	0.003
652.63	0.001
652.82	-0.000
653.01	-0.001
653.20	-0.002
653.39	-0.002
653.58	-0.003
653.77	-0.003
653.96	-0.003
654.15	-0.003
654.34	-0.004
654.53	-0.003
654.72	-0.003
654.91	-0.002
655.10	-0.002
655.29	-0.001
655.48	-0.001
655.67	-0.001
655.86	-0.000
656.05	-0.000
656.24	-0.000
656.43	-0.000
656.62	-0.000
656.81	0.000
657.00	0.001
657.19	0.002
657.38	0.003
657.57	0.004
657.76	0.004
657.95	0.005
658.14	0.005
658.33	0.006
658.51	0.006
658.70	0.007
658.89	0.007
659.08	0.006
659.27	0.005
659.46	0.004
659.65	0.004
659.84	0.004
660.03	0.003
660.22	0.003
660.41	0.003
660.60	0.003
660.79	0.003
660.98	0.003
661.17	0.003
661.36	0.003
661.55	0.003
661.74	0.003
661.92	0.003
662.11	0.003
662.30	0.003
662.49	0.003
662.68	0.003
662.87	0.002
663.06	0.003
663.25	0.003
663.44	0.003
663.63	0.003
663.82	0.003
664.01	0.003
664.20	0.003
664.38	0.003
664.57	0.003
664.76	0.003
664.95	0.003
665.14	0.003
665.33	0.003
665.52	0.003
665.71	0.003
665.90	0.003
666.09	0.003
666.28	0.003
666.46	0.003
666.65	0.003
666.84	0.003
667.03	0.003
667.22	0.003
667.41	0.003
667.60	0.003
667.79	0.003
667.98	0.003
668.16	0.003
668.35	0.003
668.54	0.003
668.73	0.003
668.92	0.003
669.11	0.003
669.30	0.003
669.49	0.002
669.67	0.002
669.86	0.002
670.05	0.002
670.24	0.002
670.43	0.002
670.62	0.002
670.81	0.002
671.00	0.002
671.18	0.002
671.37	0.002
671.56	0.002
671.75	0.002
671.94	0.002
672.13	0.002
672.32	0.002
672.50	0.002
672.69	0.002
672.88	0.002
673.07	0.003
673.26	0.003
673.45	0.003
673.63	0.003
673.82	0.003
674.01	0.003
674.20	0.004
674.39	0.004
674.58	0.004
674.76	0.003
674.95	0.003
675.14	0.003
675.33	0.003
675.52	0.003
675.71	0.003
675.89	0.003
676.08	0.003
676.27	0.003
676.46	0.003
676.65	0.003
676.84	0.003
677.02	0.003
677.21	0.003
677.40	0.003
677.59	0.003
677.78	0.003
677.96	0.003
678.15	0.003
678.34	0.003
678.53	0.003
678.72	0.003
678.90	0.003
679.09	0.003
679.28	0.003
679.47	0.003
679.66	0.003
679.84	0.003
680.03	0.002
680.22	0.002
680.41	0.002
680.60	0.003
680.78	0.003
680.97	0.003
681.16	0.003
681.35	0.003
681.53	0.003
681.72	0.003
681.91	0.002
682.10	0.002
682.29	0.002
682.47	0.002
682.66	0.002
682.85	0.002
683.04	0.002
683.22	0.002
683.41	0.002
683.60	0.002
683.79	0.002
683.97	0.002
684.16	0.002
684.35	0.002
684.54	0.002
684.72	0.002
684.91	0.002
685.10	0.002
685.29	0.002
685.47	0.002
685.66	0.002
685.85	0.002
686.04	0.002
686.22	0.003
686.41	0.003
686.60	0.003
686.79	0.003
686.97	0.003
687.16	0.003
687.35	0.003
687.54	0.003
687.72	0.003
687.91	0.003
688.10	0.003
688.29	0.003
688.47	0.003
688.66	0.003
688.85	0.003
689.03	0.003
689.22	0.003
689.41	0.003
689.60	0.003
689.78	0.002
689.97	0.002
690.16	0.002
690.34	0.002
690.53	0.002
690.72	0.003
690.91	0.003
691.09	0.003
691.28	0.003
691.47	0.003
691.65	0.003
691.84	0.003
692.03	0.003
692.21	0.003
692.40	0.003
692.59	0.003
692.77	0.003
692.96	0.003
693.15	0.003
693.34	0.003
693.52	0.003
693.71	0.003
693.90	0.003
694.08	0.003
694.27	0.003
694.46	0.003
694.64	0.003
694.83	0.003
695.02	0.003
695.20	0.003
695.39	0.003
695.58	0.003
695.76	0.003
695.95	0.003
696.14	0.003
696.32	0.003
696.51	0.003
696.70	0.003
696.88	0.003
697.07	0.003
697.26	0.003
697.44	0.003
697.63	0.003
697.81	0.003
698.00	0.003
698.19	0.004
698.37	0.004
698.56	0.004
698.75	0.004
698.93	0.004
699.12	0.004
699.31	0.004
699.49	0.004
699.68	0.004
699.87	0.004
700.05	0.004
700.24	0.004
700.42	0.004
700.61	0.004
700.80	0.003
700.98	0.003
701.17	0.003
701.36	0.003
701.54	0.003
701.73	0.003
701.91	0.003
702.10	0.004
702.29	0.004
702.47	0.004
702.66	0.004
702.84	0.004
703.03	0.004
703.22	0.004
703.40	0.004
703.59	0.004
703.77	0.004
703.96	0.004
704.15	0.004
704.33	0.004
704.52	0.004
704.70	0.004
704.89	0.004
705.08	0.004
705.26	0.004
705.45	0.003
705.63	0.003
705.82	0.003
706.00	0.003
706.19	0.003
706.38	0.003
706.56	0.003
706.75	0.003
706.93	0.003
707.12	0.003
707.30	0.002
707.49	0.002
707.68	0.003
707.86	0.002
708.05	0.002
708.23	0.002
708.42	0.003
708.60	0.003
708.79	0.003
708.98	0.003
709.16	0.003
709.35	0.003
709.53	0.003
709.72	0.003
709.90	0.003
710.09	0.003
710.27	0.003
710.46	0.003
710.64	0.003
710.83	0.003
711.02	0.004
711.20	0.004
711.39	0.003
711.57	0.003
711.76	0.003
711.94	0.003
712.13	0.003
712.31	0.003
712.50	0.003
712.68	0.003
712.87	0.003
713.05	0.003
713.24	0.003
713.42	0.003
713.61	0.003
713.79	0.004
713.98	0.004
714.16	0.003
714.35	0.003
714.54	0.003
714.72	0.003
714.91	0.003
715.09	0.003
715.28	0.003
715.46	0.003
715.65	0.003
715.83	0.003
716.02	0.003
716.20	0.003
716.39	0.003
716.57	0.003
716.76	0.003
716.94	0.003
717.12	0.003
717.31	0.003
717.49	0.003
717.68	0.003
717.86	0.003
718.05	0.003
718.23	0.003
718.42	0.003
718.60	0.003
718.79	0.003
718.97	0.003
719.16	0.003
719.34	0.003
719.53	0.003
719.71	0.002
719.90	0.003
720.08	0.003
720.27	0.003
720.45	0.003
720.63	0.003
720.82	0.003
721.00	0.003
721.19	0.003
721.37	0.003
721.56	0.003
721.74	0.003
721.93	0.003
722.11	0.003
722.30	0.003
722.48	0.003
722.66	0.003
722.85	0.004
723.03	0.003
723.22	0.003
723.40	0.003
723.59	0.003
723.77	0.003
723.95	0.003
724.14	0.003
724.32	0.003
724.51	0.003
724.69	0.003
724.88	0.002
725.06	0.002
725.24	0.002
725.43	0.002
725.61	0.002
725.80	0.002
725.98	0.002
726.16	0.002
726.35	0.002
726.53	0.002
726.72	0.002
726.90	0.002
727.09	0.002
727.27	0.002
727.45	0.002
727.64	0.002
727.82	0.002
728.01	0.002
728.19	0.003
728.37	0.002
728.56	0.002
728.74	0.002
728.92	0.003
729.11	0.003
729.29	0.003
729.48	0.003
729.66	0.002
729.84	0.002
730.03	0.002
730.21	0.002
730.40	0.002
730.58	0.002
730.76	0.002
730.95	0.002
731.13	0.002
731.31	0.001
731.50	0.002
731.68	0.002
731.86	0.002
732.05	0.002
732.23	0.002
732.42	0.002
732.60	0.002
732.78	0.002
732.97	0.002
733.15	0.002
733.33	0.002
733.52	0.001
733.70	0.001
733.88	0.001
734.07	0.001
734.25	0.001
734.43	0.001
734.62	0.000
734.80	0.000
734.98	-0.000
735.17	-0.000
735.35	-0.000
735.53	-0.000
735.72	-0.000
735.90	-0.000
736.08	0.000
736.27	-0.000
736.45	-0.001
736.63	-0.001
736.82	-0.000
737.00	-0.000
737.18	0.000
737.37	0.000
737.55	-0.000
737.73	-0.000
737.92	-0.001
738.10	-0.001
738.28	-0.000
738.46	-0.000
738.65	-0.000
738.83	-0.000
739.01	-0.000
739.20	-0.001
739.38	-0.001
739.56	-0.000
739.75	-0.000
739.93	-0.000
740.11	0.000
740.29	-0.000
740.48	0.000
740.66	0.000
740.84	0.000
741.03	0.000
741.21	0.001
741.39	0.002
741.57	0.001
741.76	0.001
741.94	0.001
742.12	0.000
742.31	0.001
742.49	0.001
742.67	0.001
742.85	0.001
743.04	0.000
743.22	-0.000
743.40	-0.000
743.58	-0.000
743.77	-0.000
743.95	-0.000
744.13	-0.000
744.31	-0.000
744.50	-0.001
744.68	-0.001
744.86	-0.000
745.04	-0.000
745.23	-0.000
745.41	-0.001
745.59	-0.000
745.77	0.000
745.96	0.000
746.14	0.001
746.32	0.001
746.50	0.001
746.69	0.001
746.87	0.001
747.05	0.000
747.23	-0.000
747.42	0.001
747.60	0.001
747.78	0.001
747.96	0.001
748.14	0.001
748.33	0.001
748.51	0.001
748.69	0.001
748.87	0.001
749.06	0.002
749.24	0.003
749.42	0.002
749.60	0.002
749.78	0.001
749.97	0.001
750.15	0.001
750.33	0.001
750.51	0.001
750.69	0.001
750.88	0.000
751.06	0.000
751.24	0.000
751.42	0.001
751.60	0.000
751.79	0.001
751.97	0.001
752.15	0.001
752.33	0.000
752.51	-0.000
752.69	0.000
752.88	0.000
753.06	0.000
753.24	0.000
753.42	0.000
753.60	0.001
753.78	0.000
753.97	0.001
754.15	0.001
754.33	0.001
754.51	0.001
754.69	0.001
754.87	0.001
755.06	0.001
755.24	0.001
755.42	0.001
755.60	0.001
755.78	0.001
755.96	0.001
756.15	0.001
756.33	0.001
756.51	0.001
756.69	0.002
756.87	0.001
757.05	0.001
757.23	0.000
757.42	0.000
757.60	0.000
757.78	-0.000
757.96	-0.000
758.14	-0.000
758.32	0.000
758.50	0.000
758.69	-0.000
758.87	0.000
759.05	0.001
759.23	0.001
759.41	0.001
759.59	0.002
759.77	0.002
759.95	0.002
760.13	0.002
760.32	0.002
760.50	0.003
760.68	0.003
760.86	0.003
761.04	0.003
761.22	0.003
761.40	0.003
761.58	0.003
761.76	0.003
761.95	0.003
762.13	0.003
762.31	0.003
762.49	0.003
762.67	0.003
762.85	0.003
763.03	0.003
763.21	0.002
763.39	0.002
763.57	0.002
763.75	0.002
763.94	0.002
764.12	0.002
764.30	0.002
764.48	0.002
764.66	0.001
764.84	0.001
765.02	0.001
765.20	0.001
765.38	0.001
765.56	0.001
765.74	0.000
765.92	0.000
766.10	0.001
766.28	0.001
766.46	0.002
766.65	0.002
766.83	0.002
767.01	0.002
767.19	0.002
767.37	0.003
767.55	0.003
767.73	0.003
767.91	0.004
768.09	0.003
768.27	0.003
768.45	0.003
768.63	0.003
768.81	0.002
768.99	0.002
769.17	0.003
769.35	0.003
769.53	0.002
769.71	0.002
769.89	0.003
770.07	0.003
770.25	0.003
770.43	0.003
770.61	0.004
770.79	0.004
770.97	0.004
771.15	0.004
771.33	0.004
771.51	0.004
771.69	0.004
771.87	0.004
772.05	0.004
772.24	0.004
772.42	0.003
772.60	0.003
772.78	0.003
772.96	0.003
773.14	0.003
773.32	0.003
773.49	0.003
773.67	0.003
773.85	0.003
774.03	0.004
774.21	0.004
774.39	0.003
774.57	0.004
774.75	0.004
774.93	0.003
775.11	0.004
775.29	0.004
775.47	0.004
775.65	0.003
775.83	0.003
776.01	0.003
776.19	0.003
776.37	0.003
776.55	0.004
776.73	0.003
776.91	0.003
777.09	0.003
777.27	0.003
777.45	0.002
777.63	0.003
777.81	0.003
777.99	0.003
778.17	0.003
778.35	0.003
778.53	0.003
778.71	0.002
778.89	0.003
779.07	0.003
779.24	0.003
779.42	0.003
779.60	0.003
779.78	0.003
779.96	0.003
780.14	0.003
780.32	0.003
780.50	0.003
780.68	0.003
780.86	0.003
781.04	0.003
781.22	0.003
781.40	0.003
781.58	0.003
781.75	0.003
781.93	0.004
782.11	0.004
782.29	0.004
782.47	0.004
782.65	0.005
782.83	0.005
783.01	0.005
783.19	0.005
783.37	0.005
783.55	0.005
783.72	0.005
783.90	0.005
784.08	0.005
784.26	0.005
784.44	0.005
784.62	0.005
784.80	0.005
784.98	0.005
785.16	0.005
785.33	0.005
785.51	0.005
785.69	0.005
785.87	0.005
786.05	0.004
786.23	0.004
786.41	0.004
786.59	0.004
786.77	0.004
786.94	0.004
787.12	0.004
787.30	0.004
787.48	0.004
787.66	0.004
787.84	0.004
788.02	0.005
788.19	0.005
788.37	0.005
788.55	0.005
788.73	0.004
788.91	0.004
789.09	0.004
789.27	0.004
789.44	0.004
789.62	0.004
789.80	0.004
789.98	0.003
790.16	0.003
790.34	0.003
790.51	0.004
790.69	0.004
790.87	0.004
791.05	0.004
791.23	0.004
791.41	0.004
791.58	0.004
791.76	0.005
791.94	0.005
792.12	0.005
792.30	0.005
792.48	0.004
792.65	0.005
792.83	0.004
793.01	0.004
793.19	0.004
793.37	0.004
793.54	0.004
793.72	0.004
793.90	0.004
794.08	0.004
794.26	0.004
794.43	0.005
794.61	0.005
794.79	0.005
794.97	0.005
795.15	0.005
795.32	0.006
795.50	0.006
795.68	0.006
795.86	0.006
796.04	0.005
796.21	0.005
796.39	0.005
796.57	0.005
796.75	0.005
796.92	0.005
797.10	0.005
797.28	0.005
797.46	0.004
797.64	0.004
797.81	0.004
797.99	0.004
798.17	0.004
798.35	0.005
798.52	0.004
798.70	0.005
798.88	0.005
799.06	0.005
799.23	0.004
799.41	0.005
799.59	0.005
799.77	0.005
799.94	0.005
800.12	0.006
800.30	0.005
800.48	0.005
800.65	0.005
800.83	0.005
801.01	0.005
801.19	0.006
801.36	0.005
801.54	0.006
801.72	0.006
801.90	0.006
802.07	0.005
802.25	0.006
802.43	0.006
802.60	0.006
802.78	0.006
802.96	0.006
803.14	0.005
803.31	0.005
803.49	0.005
803.67	0.005
803.84	0.005
804.02	0.005
804.20	0.005
804.38	0.005
804.55	0.004
804.73	0.004
804.91	0.005
805.08	0.005
805.26	0.005
805.44	0.006
805.61	0.006
805.79	0.006
805.97	0.006
806.15	0.006
806.32	0.006
806.50	0.006
806.68	0.006
806.85	0.005
807.03	0.005
807.21	0.005
807.38	0.005
807.56	0.004
807.74	0.004
807.91	0.004
808.09	0.004
808.27	0.004
808.44	0.004
808.62	0.004
808.80	0.004
808.97	0.004
809.15	0.004
809.33	0.004
809.50	0.005
809.68	0.005
809.86	0.005
810.03	0.005
810.21	0.005
810.39	0.005
810.56	0.005
810.74	0.005
810.91	0.005
811.09	0.004
811.27	0.004
811.44	0.004
811.62	0.003
811.80	0.003
811.97	0.003
812.15	0.003
812.33	0.004
812.50	0.004
812.68	0.004
812.85	0.004
813.03	0.004
813.21	0.004
813.38	0.004
813.56	0.005
813.74	0.004
813.91	0.004
814.09	0.004
814.26	0.004
814.44	0.004
814.62	0.003
814.79	0.003
814.97	0.004
815.14	0.004
815.32	0.004
815.50	0.004
815.67	0.004
815.85	0.005
816.02	0.005
816.20	0.005
816.38	0.006
816.55	0.006
816.73	0.006
816.90	0.006
817.08	0.005
817.26	0.006
817.43	0.005
817.61	0.005
817.78	0.005
817.96	0.004
818.13	0.004
818.31	0.004
818.49	0.005
818.66	0.004
818.84	0.004
819.01	0.004
819.19	0.004
819.36	0.004
819.54	0.004
819.71	0.004
819.89	0.004
820.07	0.004
820.24	0.004
820.42	0.004
820.59	0.004
820.77	0.004
820.94	0.004
821.12	0.005
821.29	0.004
821.47	0.004
821.64	0.004
821.82	0.005
822.00	0.005
822.17	0.004
822.35	0.004
822.52	0.004
822.70	0.005
822.87	0.005
823.05	0.004
823.22	0.004
823.40	0.004
823.57	0.004
823.75	0.004
823.92	0.004
824.10	0.004
824.27	0.004
824.45	0.004
824.62	0.003
824.80	0.003
824.97	0.004
825.15	0.003
825.32	0.003
825.50	0.004
825.67	0.004
825.85	0.004
826.02	0.004
826.20	0.005
826.37	0.005
826.55	0.005
826.72	0.005
826.90	0.005
827.07	0.006
827.25	0.005
827.42	0.005
827.60	0.005
827.77	0.005
827.95	0.004
828.12	0.005
828.30	0.005
828.47	0.005
828.65	0.005
828.82	0.006
829.00	0.006
829.17	0.007
829.34	0.008
829.52	0.008
829.69	0.008
829.87	0.008
830.04	0.007
830.22	0.007
830.39	0.007
830.57	0.008
830.74	0.007
830.92	0.006
831.09	0.006
831.26	0.005
831.44	0.005
831.61	0.006
831.79	0.007
831.96	0.007
832.14	0.006
832.31	0.006
832.49	0.005
832.66	0.005
832.83	0.006
833.01	0.005
833.18	0.006
833.36	0.004
833.53	0.003
833.70	0.002
833.88	0.002
834.05	0.001
834.23	0.001
834.40	0.001
834.58	0.001
834.75	0.001
834.92	0.001
835.10	0.001
835.27	0.001
835.45	0.001
835.62	0.001
835.79	0.001
835.97	0.001
836.14	0.001
836.32	0.000
836.49	-0.000
836.66	-0.002
836.84	-0.002
837.01	-0.004
837.18	-0.002
837.36	-0.002
837.53	-0.001
837.71	-0.001
837.88	-0.000
838.05	-0.001
838.23	0.001
838.40	0.001
838.58	0.001
838.75	0.001
838.92	0.002
839.10	0.000
839.27	-0.000
839.44	-0.001
839.62	-0.001
839.79	-0.001
839.96	0.003
840.14	0.002
840.31	0.003
840.48	0.004
840.66	0.007
840.83	0.008
841.01	0.008
841.18	0.008
841.35	0.009
841.53	0.009
841.70	0.010
841.87	0.008
842.05	0.008
842.22	0.009
842.39	0.008
842.57	0.006
842.74	0.007
842.91	0.009
843.09	0.008
843.26	0.008
843.43	0.010
843.60	0.008
843.78	0.008
843.95	0.008
844.12	0.007
844.30	0.008
844.47	0.009
844.64	0.009
844.82	0.008
844.99	0.009
845.16	0.008
845.34	0.008
845.51	0.009
845.68	0.009
845.85	0.008
846.03	0.007
846.20	0.007
846.37	0.006
846.55	0.005
846.72	0.007
846.89	0.007
847.06	0.007
847.24	0.008
847.41	0.006
847.58	0.006
847.76	0.009
847.93	0.011
848.10	0.010
848.27	0.009
848.45	0.010
848.62	0.009
848.79	0.008
848.97	0.009
849.14	0.007
849.31	0.010
849.48	0.008
849.66	0.006
849.83	0.006
850.00	0.008
850.17	0.007
850.35	0.004
850.52	0.002
850.69	0.002
850.86	0.002
851.04	0.002
851.21	0.000
851.38	0.001
851.55	-0.002
851.72	-0.003
851.90	-0.001
852.07	-0.001
852.24	0.001
852.41	0.002
852.59	0.004
852.76	0.004
852.93	0.002
853.10	0.003
853.28	0.005
853.45	0.006
853.62	0.006
853.79	0.006
853.96	0.005
854.14	0.007
854.31	0.008
854.48	0.006
854.65	0.006
854.82	0.010
855.00	0.011
855.17	0.010
855.34	0.013
855.51	0.015
855.68	0.013
855.86	0.016
856.03	0.015
856.20	0.013
856.37	0.012
856.54	0.010
856.72	0.006
856.89	0.002
857.06	0.002
857.23	0.002
857.40	0.001
857.57	-0.000
857.75	0.000
857.92	-0.001
858.09	-0.001
858.26	0.000
858.43	0.002
858.60	0.004
858.78	0.009
858.95	0.006
859.12	0.007
859.29	0.004
859.46	0.005
859.63	0.007
859.81	0.010
859.98	0.011
860.15	0.012
860.32	0.013
860.49	0.010
860.66	0.007
860.83	0.008
861.01	0.005
861.18	0.009
861.35	0.010
861.52	0.007
861.69	0.004
861.86	0.003
862.03	0.003
862.21	0.003
862.38	0.006
862.55	0.008
862.72	0.011
862.89	0.013
863.06	0.012
863.23	0.011
863.40	0.010
863.58	0.008
863.75	0.010
863.92	0.006
864.09	0.006
864.26	0.003
864.43	0.000
864.60	-0.001
864.77	-0.004
864.94	-0.001
865.11	-0.004
865.29	-0.003
865.46	0.001
865.63	0.002
865.80	0.004
865.97	0.004
866.14	0.005
866.31	0.007
866.48	0.008
866.65	0.009
866.82	0.008
866.99	0.010
867.16	0.006
867.34	0.004
867.51	0.003
867.68	0.003
867.85	0.001
868.02	0.002
868.19	-0.001
868.36	-0.001
868.53	-0.003
868.70	-0.005
868.87	-0.010
869.04	-0.004
869.21	-0.001
869.38	0.001
869.55	0.002
869.72	0.001
869.89	0.003
870.06	0.004
870.24	0.006
870.41	0.004
870.58	0.005
870.75	0.011
870.92	0.009
871.09	0.008
871.26	0.012
871.43	0.015
871.60	0.017
871.77	0.012
871.94	0.014
872.11	0.011
872.28	0.009
872.45	0.011
872.62	0.008
872.79	0.007
872.96	0.004
873.13	-0.003
873.30	-0.006
873.47	-0.008
873.64	-0.003
873.81	-0.009
873.98	-0.006
874.15	0.001
874.32	-0.002
874.49	0.005
874.66	0.000
874.83	0.001
875.00	-0.001
875.17	-0.005
875.34	-0.002
875.51	-0.003
875.68	-0.002
875.85	-0.001
876.02	-0.004
876.19	-0.003
876.36	-0.008
876.53	0.001
876.70	0.005
876.87	0.011
877.04	0.012
877.21	0.012
877.38	0.010
877.55	0.018
877.72	0.016
877.89	0.016
878.06	0.011
878.23	0.010
878.39	0.007
878.56	0.008
878.73	0.006
878.90	0.004
879.07	0.004
879.24	0.005
879.41	0.006
879.58	0.006
879.75	0.004
879.92	0.011
880.09	0.008
880.26	0.011
880.43	0.007
880.60	0.009
880.77	0.019
880.94	0.024
881.11	0.025
881.27	0.028
881.44	0.027
881.61	0.033
881.78	0.028
881.95	0.028
882.12	0.023
882.29	0.023
882.46	0.017
882.63	0.013
882.80	0.009
882.97	0.007
883.14	-0.003
883.30	-0.000
883.47	-0.004
883.64	-0.002
883.81	0.007
883.98	0.010
884.15	0.006
884.32	0.011
884.49	0.013
884.66	0.017
884.82	0.026
884.99	0.026
885.16	0.027
885.33	0.023
885.50	0.026
885.67	0.025
885.84	0.029
886.01	0.026
886.17	0.019
886.34	0.020
886.51	0.020
886.68	0.012
886.85	0.020
887.02	0.022
887.19	0.034
887.36	0.025
887.52	0.020
887.69	0.022
887.86	0.030
888.03	0.032
888.20	0.035
888.37	0.023
888.54	0.021
888.70	0.016
888.87	0.008
889.04	0.006
889.21	0.005
889.38	0.011
889.55	0.018
889.71	0.018
889.88	0.042
890.05	-0.095
890.22	0.057
890.39	0.132
>>>>>End Processed Spectral Data<<<<<
