SpectraSuite Data File
++++++++++++++++++++++++++++++++++++
Date: Mon Jun 15 09:46:06 PDT 2015
User: introlabs
Dark Spectrum Present: Yes
Reference Spectrum Present: Yes
Number of Sampled Component Spectra: 1
Spectrometers: USB4H08886
Integration Time (usec): 44366 (USB4H08886)
Spectra Averaged: 20 (USB4H08886)
Boxcar Smoothing: 5 (USB4H08886)
Correct for Electrical Dark: Yes (USB4H08886)
Strobe/Lamp Enabled: No (USB4H08886)
Correct for Detector Non-linearity: Yes (USB4H08886)
Correct for Stray Light: Yes (USB4H08886)
Number of Pixels in Processed Spectrum: 3648
>>>>>Begin Processed Spectral Data<<<<<
178.14	0.405
178.36	0.405
178.57	0.405
178.79	-0.000
179.01	-0.538
179.22	0.469
179.44	0.408
179.65	-0.270
179.87	-0.188
180.08	0.142
180.30	0.190
180.52	0.078
180.73	0.173
180.95	0.518
181.16	0.685
181.38	0.766
181.59	1.104
181.81	1.331
182.03	-0.000
182.24	-0.000
182.46	-0.000
182.67	-0.000
182.89	-0.000
183.10	4.948
183.32	-0.000
183.54	-0.000
183.75	-0.000
183.97	1.984
184.18	2.198
184.40	-0.000
184.61	-0.000
184.83	-0.000
185.04	-0.000
185.26	-0.000
185.48	-0.000
185.69	-0.000
185.91	-0.000
186.12	-0.000
186.34	-0.000
186.55	-0.000
186.77	-0.000
186.98	-0.000
187.20	2.061
187.42	-0.000
187.63	-0.000
187.85	-0.000
188.06	-0.000
188.28	-0.000
188.49	-0.000
188.71	-0.000
188.92	-0.000
189.14	-0.000
189.36	-0.000
189.57	-0.000
189.79	-0.000
190.00	2.102
190.22	1.495
190.43	1.277
190.65	1.218
190.86	1.282
191.08	1.268
191.29	1.375
191.51	1.288
191.72	1.217
191.94	1.396
192.16	1.605
192.37	1.702
192.59	1.658
192.80	2.129
193.02	1.671
193.23	1.506
193.45	1.748
193.66	1.797
193.88	-0.000
194.09	-0.000
194.31	-0.000
194.52	-0.000
194.74	-0.000
194.95	-0.000
195.17	-0.000
195.38	-0.000
195.60	-0.000
195.81	-0.000
196.03	-0.000
196.25	-0.000
196.46	-0.000
196.68	-0.000
196.89	-0.000
197.11	-0.000
197.32	-0.000
197.54	-0.000
197.75	-0.000
197.97	-0.000
198.18	-0.000
198.40	-0.000
198.61	-0.000
198.83	-0.000
199.04	-0.000
199.26	-0.000
199.47	-0.000
199.69	-0.000
199.90	-0.000
200.12	-0.000
200.33	-0.000
200.55	-0.000
200.76	-0.000
200.98	-0.000
201.19	-0.000
201.41	-0.000
201.62	-0.000
201.84	-0.000
202.05	-0.000
202.27	-0.000
202.48	-0.000
202.70	2.792
202.91	2.380
203.13	1.832
203.34	1.760
203.56	1.864
203.77	2.189
203.99	1.597
204.20	1.721
204.42	1.666
204.63	1.551
204.85	1.301
205.06	1.322
205.28	1.437
205.49	1.360
205.71	1.270
205.92	1.506
206.14	1.468
206.35	1.528
206.56	1.380
206.78	1.355
206.99	1.519
207.21	1.532
207.42	1.511
207.64	1.559
207.85	2.029
208.07	-0.000
208.28	2.368
208.50	2.069
208.71	2.893
208.93	-0.000
209.14	-0.000
209.36	-0.000
209.57	-0.000
209.79	-0.000
210.00	-0.000
210.22	-0.000
210.43	1.841
210.64	2.046
210.86	2.423
211.07	1.816
211.29	1.893
211.50	2.026
211.72	1.663
211.93	2.061
212.15	2.627
212.36	-0.000
212.58	-0.000
212.79	-0.000
213.01	-0.000
213.22	-0.000
213.43	-0.000
213.65	-0.000
213.86	-0.000
214.08	-0.000
214.29	-0.000
214.51	-0.000
214.72	-0.000
214.94	2.035
215.15	1.950
215.36	1.809
215.58	1.897
215.79	2.178
216.01	2.029
216.22	-0.000
216.44	-0.000
216.65	-0.000
216.87	-0.000
217.08	1.730
217.29	2.318
217.51	2.239
217.72	2.291
217.94	1.979
218.15	3.123
218.37	-0.000
218.58	-0.000
218.80	-0.000
219.01	2.337
219.22	-0.000
219.44	-0.000
219.65	-0.000
219.87	2.286
220.08	-0.000
220.30	-0.000
220.51	2.550
220.72	-0.000
220.94	-0.000
221.15	-0.000
221.37	-0.000
221.58	-0.000
221.79	-0.000
222.01	-0.000
222.22	-0.000
222.44	-0.000
222.65	-0.000
222.87	-0.000
223.08	-0.000
223.29	-0.000
223.51	-0.000
223.72	-0.000
223.94	-0.000
224.15	-0.000
224.36	-0.000
224.58	-0.000
224.79	-0.000
225.01	-0.000
225.22	-0.000
225.44	-0.000
225.65	-0.000
225.86	-0.000
226.08	-0.000
226.29	-0.000
226.51	2.143
226.72	2.111
226.93	2.148
227.15	2.143
227.36	3.037
227.58	-0.000
227.79	-0.000
228.00	-0.000
228.22	-0.000
228.43	-0.000
228.65	-0.000
228.86	-0.000
229.07	-0.000
229.29	-0.000
229.50	-0.000
229.72	-0.000
229.93	-0.000
230.14	-0.000
230.36	-0.000
230.57	2.873
230.78	2.363
231.00	2.382
231.21	2.931
231.43	2.277
231.64	-0.000
231.85	-0.000
232.07	2.563
232.28	-0.000
232.50	2.456
232.71	-0.000
232.92	-0.000
233.14	-0.000
233.35	-0.000
233.56	-0.000
233.78	-0.000
233.99	2.508
234.21	2.931
234.42	3.500
234.63	-0.000
234.85	-0.000
235.06	-0.000
235.27	-0.000
235.49	3.147
235.70	2.626
235.91	2.651
236.13	2.955
236.34	3.482
236.56	2.750
236.77	2.658
236.98	2.370
237.20	2.501
237.41	2.498
237.62	2.845
237.84	3.018
238.05	-0.000
238.26	2.994
238.48	3.181
238.69	2.967
238.91	2.897
239.12	3.324
239.33	-0.000
239.55	3.822
239.76	3.346
239.97	-0.000
240.19	3.989
240.40	2.962
240.61	2.675
240.83	2.443
241.04	2.548
241.25	2.878
241.47	3.064
241.68	2.895
241.89	2.726
242.11	2.644
242.32	2.540
242.53	2.799
242.75	2.740
242.96	-0.000
243.17	-0.000
243.39	-0.000
243.60	-0.000
243.81	-0.000
244.03	-0.000
244.24	-0.000
244.45	-0.000
244.67	-0.000
244.88	-0.000
245.09	-0.000
245.31	-0.000
245.52	4.096
245.73	3.339
245.95	3.700
246.16	3.053
246.37	3.049
246.59	2.808
246.80	2.911
247.01	3.076
247.23	4.051
247.44	-0.000
247.65	3.744
247.87	3.617
248.08	-0.000
248.29	-0.000
248.51	-0.000
248.72	4.871
248.93	4.205
249.15	3.155
249.36	3.442
249.57	3.009
249.78	3.041
250.00	3.203
250.21	3.292
250.42	2.872
250.64	2.832
250.85	2.890
251.06	3.018
251.28	3.515
251.49	3.626
251.70	3.084
251.92	3.118
252.13	2.798
252.34	2.776
252.55	2.644
252.77	2.697
252.98	2.657
253.19	2.617
253.41	2.603
253.62	2.580
253.83	2.577
254.05	2.564
254.26	2.612
254.47	2.753
254.68	2.840
254.90	3.396
255.11	-0.000
255.32	-0.000
255.54	-0.000
255.75	-0.000
255.96	-0.000
256.17	-0.000
256.39	-0.000
256.60	-0.000
256.81	-0.000
257.03	-0.000
257.24	-0.000
257.45	-0.000
257.66	-0.000
257.88	-0.000
258.09	-0.000
258.30	4.324
258.51	-0.000
258.73	4.690
258.94	3.891
259.15	3.628
259.37	3.541
259.58	-0.000
259.79	3.656
260.00	4.017
260.22	-0.000
260.43	-0.000
260.64	-0.000
260.85	-0.000
261.07	-0.000
261.28	3.618
261.49	3.823
261.71	3.655
261.92	3.434
262.13	3.637
262.34	3.487
262.56	3.379
262.77	3.051
262.98	3.378
263.19	3.057
263.41	3.071
263.62	3.341
263.83	3.215
264.04	3.073
264.26	3.024
264.47	2.989
264.68	3.034
264.89	3.163
265.11	3.220
265.32	2.910
265.53	3.046
265.74	3.258
265.96	3.198
266.17	3.418
266.38	3.366
266.59	3.795
266.81	3.947
267.02	3.712
267.23	3.760
267.44	-0.000
267.65	-0.000
267.87	-0.000
268.08	-0.000
268.29	-0.000
268.50	-0.000
268.72	-0.000
268.93	-0.000
269.14	-0.000
269.35	-0.000
269.57	-0.000
269.78	-0.000
269.99	-0.000
270.20	-0.000
270.41	3.314
270.63	3.056
270.84	2.978
271.05	3.178
271.26	3.293
271.48	3.380
271.69	3.794
271.90	3.383
272.11	3.151
272.32	3.098
272.54	3.063
272.75	3.122
272.96	3.421
273.17	3.503
273.39	3.281
273.60	3.104
273.81	3.019
274.02	2.949
274.23	2.991
274.45	3.120
274.66	3.107
274.87	2.999
275.08	2.996
275.29	3.002
275.51	3.132
275.72	3.238
275.93	3.189
276.14	3.209
276.35	3.123
276.57	3.050
276.78	2.960
276.99	3.072
277.20	3.154
277.41	3.261
277.63	3.203
277.84	3.015
278.05	3.016
278.26	3.150
278.47	3.292
278.69	3.419
278.90	3.878
279.11	3.939
279.32	3.651
279.53	3.832
279.74	3.510
279.96	3.370
280.17	3.601
280.38	3.438
280.59	3.239
280.80	3.199
281.02	3.248
281.23	3.249
281.44	3.359
281.65	3.426
281.86	3.166
282.07	3.306
282.29	3.342
282.50	3.421
282.71	3.735
282.92	-0.000
283.13	-0.000
283.35	-0.000
283.56	-0.000
283.77	-0.000
283.98	-0.000
284.19	-0.000
284.40	-0.000
284.62	-0.000
284.83	4.593
285.04	4.254
285.25	3.972
285.46	3.731
285.67	3.600
285.88	3.427
286.10	3.400
286.31	3.331
286.52	3.188
286.73	3.150
286.94	3.183
287.15	3.268
287.37	3.349
287.58	3.249
287.79	3.164
288.00	3.250
288.21	3.284
288.42	3.286
288.63	3.307
288.85	3.345
289.06	3.669
289.27	3.679
289.48	3.680
289.69	3.493
289.90	3.454
290.11	3.711
290.33	3.637
290.54	3.591
290.75	3.457
290.96	3.530
291.17	3.565
291.38	3.609
291.59	3.653
291.81	3.584
292.02	3.469
292.23	3.650
292.44	3.544
292.65	3.509
292.86	3.591
293.07	3.594
293.28	3.694
293.50	3.699
293.71	3.492
293.92	3.447
294.13	3.509
294.34	3.701
294.55	3.708
294.76	3.714
294.97	4.076
295.19	3.715
295.40	3.853
295.61	3.691
295.82	3.542
296.03	3.644
296.24	3.802
296.45	3.761
296.66	3.515
296.87	3.471
297.09	3.567
297.30	3.460
297.51	3.469
297.72	3.621
297.93	3.583
298.14	3.885
298.35	3.793
298.56	3.555
298.77	3.506
298.99	3.621
299.20	3.829
299.41	3.686
299.62	3.839
299.83	4.303
300.04	3.726
300.25	3.693
300.46	3.537
300.67	3.578
300.88	3.656
301.10	3.686
301.31	3.777
301.52	3.762
301.73	3.763
301.94	3.696
302.15	3.536
302.36	3.475
302.57	3.559
302.78	3.617
302.99	3.592
303.20	3.685
303.41	3.664
303.63	3.569
303.84	3.468
304.05	3.488
304.26	3.514
304.47	3.663
304.68	3.816
304.89	3.833
305.10	3.904
305.31	3.860
305.52	3.816
305.73	3.960
305.94	4.020
306.15	3.885
306.37	3.901
306.58	4.038
306.79	3.854
307.00	3.767
307.21	3.621
307.42	3.534
307.63	3.559
307.84	3.513
308.05	3.533
308.26	3.571
308.47	3.686
308.68	3.521
308.89	3.437
309.10	3.442
309.31	3.507
309.52	3.725
309.73	3.767
309.95	3.707
310.16	3.824
310.37	3.703
310.58	3.653
310.79	3.619
311.00	3.852
311.21	4.000
311.42	4.432
311.63	4.743
311.84	3.917
312.05	3.993
312.26	3.960
312.47	3.777
312.68	3.773
312.89	3.874
313.10	3.836
313.31	3.678
313.52	3.529
313.73	3.419
313.94	3.390
314.15	3.413
314.36	3.361
314.57	3.353
314.78	3.437
314.99	3.496
315.21	3.477
315.42	3.507
315.63	3.534
315.84	3.518
316.05	3.543
316.26	3.521
316.47	3.576
316.68	3.584
316.89	3.551
317.10	3.465
317.31	3.459
317.52	3.457
317.73	3.373
317.94	3.448
318.15	3.432
318.36	3.484
318.57	3.509
318.78	3.503
318.99	3.509
319.20	3.506
319.41	3.451
319.62	3.342
319.83	3.329
320.04	3.395
320.25	3.324
320.46	3.422
320.67	3.457
320.88	3.402
321.09	3.358
321.30	3.359
321.51	3.353
321.72	3.427
321.93	3.517
322.14	3.524
322.35	3.523
322.56	3.545
322.77	3.563
322.98	3.466
323.19	3.582
323.40	3.628
323.61	3.734
323.82	3.830
324.03	3.767
324.24	3.682
324.45	3.695
324.66	3.835
324.87	3.834
325.08	3.871
325.29	3.903
325.50	3.679
325.71	3.809
325.92	3.835
326.13	3.799
326.34	3.759
326.55	3.818
326.76	3.654
326.97	3.586
327.18	3.613
327.39	3.559
327.60	3.471
327.80	3.562
328.01	3.431
328.22	3.376
328.43	3.390
328.64	3.446
328.85	3.478
329.06	3.533
329.27	3.521
329.48	3.523
329.69	3.540
329.90	3.656
330.11	3.617
330.32	3.659
330.53	3.634
330.74	3.565
330.95	3.455
331.16	3.441
331.37	3.421
331.58	3.412
331.79	3.366
332.00	3.399
332.21	3.434
332.42	3.455
332.63	3.477
332.83	3.471
333.04	3.516
333.25	3.642
333.46	3.573
333.67	3.559
333.88	3.549
334.09	3.685
334.30	3.614
334.51	3.590
334.72	3.626
334.93	3.576
335.14	3.642
335.35	3.622
335.56	3.587
335.77	3.653
335.98	3.655
336.18	3.564
336.39	3.486
336.60	3.462
336.81	3.458
337.02	3.362
337.23	3.403
337.44	3.396
337.65	3.461
337.86	3.466
338.07	3.480
338.28	3.513
338.49	3.578
338.70	3.676
338.91	3.706
339.11	3.617
339.32	3.758
339.53	3.779
339.74	3.766
339.95	3.767
340.16	3.679
340.37	3.771
340.58	3.783
340.79	3.896
341.00	3.709
341.21	3.673
341.41	3.700
341.62	3.606
341.83	3.564
342.04	3.585
342.25	3.512
342.46	3.497
342.67	3.522
342.88	3.640
343.09	3.495
343.30	3.516
343.50	3.557
343.71	3.608
343.92	3.633
344.13	3.595
344.34	3.548
344.55	3.605
344.76	3.708
344.97	3.547
345.18	3.512
345.38	3.544
345.59	3.518
345.80	3.444
346.01	3.426
346.22	3.454
346.43	3.532
346.64	3.518
346.85	3.537
347.06	3.511
347.26	3.594
347.47	3.535
347.68	3.556
347.89	3.539
348.10	3.598
348.31	3.545
348.52	3.508
348.73	3.449
348.93	3.518
349.14	3.459
349.35	3.425
349.56	3.410
349.77	3.409
349.98	3.423
350.19	3.444
350.39	3.465
350.60	3.444
350.81	3.506
351.02	3.532
351.23	3.522
351.44	3.525
351.65	3.568
351.86	3.496
352.06	3.429
352.27	3.444
352.48	3.433
352.69	3.426
352.90	3.426
353.11	3.406
353.31	3.377
353.52	3.345
353.73	3.355
353.94	3.370
354.15	3.437
354.36	3.464
354.57	3.454
354.77	3.459
354.98	3.420
355.19	3.481
355.40	3.457
355.61	3.430
355.82	3.418
356.02	3.402
356.23	3.356
356.44	3.309
356.65	3.308
356.86	3.309
357.07	3.335
357.27	3.331
357.48	3.290
357.69	3.306
357.90	3.318
358.11	3.390
358.32	3.385
358.52	3.417
358.73	3.454
358.94	3.445
359.15	3.458
359.36	3.441
359.56	3.467
359.77	3.538
359.98	3.457
360.19	3.525
360.40	3.490
360.61	3.531
360.81	3.584
361.02	3.587
361.23	3.642
361.44	3.565
361.65	3.549
361.85	3.513
362.06	3.496
362.27	3.583
362.48	3.520
362.69	3.459
362.89	3.417
363.10	3.390
363.31	3.298
363.52	3.298
363.73	3.321
363.93	3.380
364.14	3.410
364.35	3.375
364.56	3.362
364.77	3.342
364.97	3.363
365.18	3.389
365.39	3.393
365.60	3.502
365.81	3.449
366.01	3.453
366.22	3.400
366.43	3.369
366.64	3.349
366.84	3.367
367.05	3.429
367.26	3.421
367.47	3.405
367.68	3.409
367.88	3.367
368.09	3.421
368.30	3.413
368.51	3.444
368.71	3.448
368.92	3.520
369.13	3.513
369.34	3.477
369.55	3.461
369.75	3.449
369.96	3.406
370.17	3.414
370.38	3.398
370.58	3.396
370.79	3.330
371.00	3.373
371.21	3.388
371.41	3.368
371.62	3.357
371.83	3.363
372.04	3.345
372.24	3.365
372.45	3.379
372.66	3.395
372.87	3.379
373.07	3.444
373.28	3.464
373.49	3.440
373.70	3.424
373.90	3.432
374.11	3.429
374.32	3.531
374.53	3.464
374.73	3.440
374.94	3.449
375.15	3.447
375.36	3.405
375.56	3.360
375.77	3.400
375.98	3.427
376.19	3.436
376.39	3.466
376.60	3.398
376.81	3.422
377.02	3.415
377.22	3.374
377.43	3.402
377.64	3.400
377.84	3.370
378.05	3.345
378.26	3.316
378.47	3.314
378.67	3.281
378.88	3.279
379.09	3.273
379.30	3.301
379.50	3.305
379.71	3.335
379.92	3.362
380.12	3.393
380.33	3.321
380.54	3.345
380.75	3.342
380.95	3.362
381.16	3.340
381.37	3.367
381.57	3.395
381.78	3.423
381.99	3.387
382.20	3.341
382.40	3.343
382.61	3.407
382.82	3.358
383.02	3.410
383.23	3.439
383.44	3.464
383.64	3.544
383.85	3.525
384.06	3.531
384.27	3.458
384.47	3.453
384.68	3.420
384.89	3.394
385.09	3.468
385.30	3.437
385.51	3.433
385.71	3.445
385.92	3.378
386.13	3.316
386.33	3.241
386.54	3.266
386.75	3.306
386.95	3.319
387.16	3.333
387.37	3.316
387.58	3.261
387.78	3.248
387.99	3.280
388.20	3.306
388.40	3.312
388.61	3.369
388.82	3.378
389.02	3.334
389.23	3.292
389.44	3.267
389.64	3.283
389.85	3.293
390.06	3.299
390.26	3.281
390.47	3.224
390.68	3.220
390.88	3.213
391.09	3.215
391.30	3.251
391.50	3.295
391.71	3.297
391.92	3.306
392.12	3.335
392.33	3.311
392.53	3.325
392.74	3.376
392.95	3.409
393.15	3.433
393.36	3.422
393.57	3.384
393.77	3.342
393.98	3.392
394.19	3.323
394.39	3.307
394.60	3.323
394.81	3.273
395.01	3.300
395.22	3.345
395.43	3.360
395.63	3.326
395.84	3.335
396.04	3.326
396.25	3.298
396.46	3.310
396.66	3.316
396.87	3.278
397.08	3.328
397.28	3.267
397.49	3.222
397.69	3.221
397.90	3.231
398.11	3.245
398.31	3.290
398.52	3.284
398.73	3.261
398.93	3.258
399.14	3.268
399.34	3.245
399.55	3.259
399.76	3.262
399.96	3.281
400.17	3.276
400.37	3.275
400.58	3.278
400.79	3.268
400.99	3.289
401.20	3.304
401.41	3.308
401.61	3.281
401.82	3.264
402.02	3.247
402.23	3.209
402.44	3.219
402.64	3.207
402.85	3.176
403.05	3.199
403.26	3.210
403.47	3.221
403.67	3.217
403.88	3.264
404.08	3.304
404.29	3.321
404.50	3.312
404.70	3.349
404.91	3.341
405.11	3.361
405.32	3.397
405.52	3.383
405.73	3.337
405.94	3.354
406.14	3.271
406.35	3.241
406.55	3.242
406.76	3.227
406.97	3.217
407.17	3.242
407.38	3.280
407.58	3.258
407.79	3.266
407.99	3.269
408.20	3.309
408.41	3.343
408.61	3.325
408.82	3.318
409.02	3.332
409.23	3.331
409.43	3.283
409.64	3.275
409.84	3.267
410.05	3.282
410.26	3.305
410.46	3.267
410.67	3.253
410.87	3.285
411.08	3.296
411.28	3.326
411.49	3.315
411.69	3.323
411.90	3.263
412.11	3.267
412.31	3.275
412.52	3.246
412.72	3.262
412.93	3.292
413.13	3.304
413.34	3.296
413.54	3.262
413.75	3.252
413.95	3.261
414.16	3.296
414.37	3.249
414.57	3.252
414.78	3.260
414.98	3.217
415.19	3.188
415.39	3.161
415.60	3.173
415.80	3.189
416.01	3.189
416.21	3.185
416.42	3.178
416.62	3.206
416.83	3.164
417.03	3.159
417.24	3.217
417.44	3.250
417.65	3.238
417.86	3.212
418.06	3.220
418.27	3.249
418.47	3.200
418.68	3.194
418.88	3.189
419.09	3.187
419.29	3.217
419.50	3.151
419.70	3.127
419.91	3.168
420.11	3.167
420.32	3.131
420.52	3.135
420.73	3.205
420.93	3.177
421.14	3.197
421.34	3.232
421.55	3.207
421.75	3.228
421.96	3.302
422.16	3.236
422.37	3.253
422.57	3.275
422.78	3.263
422.98	3.215
423.19	3.245
423.39	3.200
423.60	3.192
423.80	3.185
424.01	3.183
424.21	3.145
424.42	3.181
424.62	3.185
424.83	3.188
425.03	3.187
425.23	3.195
425.44	3.201
425.64	3.187
425.85	3.162
426.05	3.165
426.26	3.185
426.46	3.198
426.67	3.205
426.87	3.166
427.08	3.147
427.28	3.131
427.49	3.137
427.69	3.124
427.90	3.117
428.10	3.144
428.31	3.175
428.51	3.168
428.71	3.149
428.92	3.160
429.12	3.206
429.33	3.191
429.53	3.212
429.74	3.198
429.94	3.277
430.15	3.302
430.35	3.251
430.56	3.184
430.76	3.192
430.96	3.209
431.17	3.172
431.37	3.150
431.58	3.195
431.78	3.190
431.99	3.240
432.19	3.161
432.40	3.166
432.60	3.210
432.80	3.257
433.01	3.212
433.21	3.174
433.42	3.159
433.62	3.154
433.83	3.151
434.03	3.149
434.23	3.107
434.44	3.121
434.64	3.121
434.85	3.093
435.05	3.080
435.26	3.086
435.46	3.078
435.66	3.099
435.87	3.095
436.07	3.080
436.28	3.054
436.48	3.059
436.69	3.060
436.89	3.064
437.09	3.088
437.30	3.071
437.50	3.079
437.71	3.117
437.91	3.110
438.11	3.130
438.32	3.146
438.52	3.180
438.73	3.168
438.93	3.176
439.13	3.199
439.34	3.215
439.54	3.300
439.75	3.355
439.95	3.303
440.15	3.333
440.36	3.352
440.56	3.371
440.77	3.332
440.97	3.348
441.17	3.342
441.38	3.329
441.58	3.324
441.79	3.244
441.99	3.216
442.19	3.252
442.40	3.199
442.60	3.147
442.81	3.131
443.01	3.136
443.21	3.168
443.42	3.144
443.62	3.126
443.82	3.095
444.03	3.087
444.23	3.089
444.44	3.083
444.64	3.098
444.84	3.135
445.05	3.115
445.25	3.118
445.45	3.108
445.66	3.132
445.86	3.127
446.06	3.131
446.27	3.142
446.47	3.126
446.68	3.126
446.88	3.148
447.08	3.143
447.29	3.154
447.49	3.149
447.69	3.171
447.90	3.164
448.10	3.176
448.30	3.170
448.51	3.168
448.71	3.180
448.91	3.200
449.12	3.189
449.32	3.172
449.52	3.214
449.73	3.214
449.93	3.192
450.14	3.172
450.34	3.152
450.54	3.176
450.75	3.186
450.95	3.176
451.15	3.150
451.36	3.144
451.56	3.162
451.76	3.110
451.97	3.156
452.17	3.143
452.37	3.154
452.58	3.154
452.78	3.133
452.98	3.125
453.19	3.127
453.39	3.116
453.59	3.132
453.79	3.146
454.00	3.168
454.20	3.128
454.40	3.108
454.61	3.109
454.81	3.106
455.01	3.130
455.22	3.137
455.42	3.129
455.62	3.158
455.83	3.150
456.03	3.117
456.23	3.105
456.44	3.079
456.64	3.109
456.84	3.117
457.04	3.141
457.25	3.126
457.45	3.132
457.65	3.151
457.86	3.131
458.06	3.126
458.26	3.143
458.47	3.090
458.67	3.106
458.87	3.063
459.07	3.071
459.28	3.093
459.48	3.113
459.68	3.137
459.89	3.133
460.09	3.124
460.29	3.133
460.49	3.127
460.70	3.167
460.90	3.198
461.10	3.229
461.31	3.227
461.51	3.179
461.71	3.149
461.91	3.107
462.12	3.085
462.32	3.077
462.52	3.079
462.72	3.090
462.93	3.109
463.13	3.092
463.33	3.114
463.53	3.103
463.74	3.069
463.94	3.090
464.14	3.123
464.35	3.153
464.55	3.187
464.75	3.168
464.95	3.155
465.16	3.175
465.36	3.174
465.56	3.132
465.76	3.092
465.97	3.157
466.17	3.141
466.37	3.082
466.57	3.075
466.78	3.034
466.98	3.033
467.18	3.007
467.38	2.972
467.59	2.952
467.79	2.971
467.99	2.995
468.19	2.980
468.39	2.980
468.60	3.006
468.80	3.004
469.00	3.034
469.20	3.018
469.41	3.041
469.61	3.041
469.81	3.084
470.01	3.045
470.22	3.061
470.42	3.073
470.62	3.053
470.82	3.043
471.02	3.054
471.23	3.059
471.43	3.083
471.63	3.098
471.83	3.123
472.04	3.107
472.24	3.123
472.44	3.114
472.64	3.125
472.84	3.148
473.05	3.172
473.25	3.103
473.45	3.070
473.65	3.087
473.85	3.070
474.06	3.069
474.26	3.041
474.46	3.021
474.66	3.013
474.86	2.998
475.07	3.021
475.27	3.030
475.47	3.060
475.67	3.087
475.87	3.065
476.08	3.037
476.28	3.042
476.48	3.048
476.68	3.068
476.88	3.067
477.09	3.052
477.29	3.006
477.49	2.989
477.69	3.001
477.89	3.007
478.09	3.022
478.30	3.068
478.50	3.033
478.70	3.025
478.90	3.008
479.10	3.018
479.31	3.019
479.51	3.041
479.71	3.055
479.91	3.050
480.11	3.038
480.31	3.029
480.52	3.007
480.72	3.015
480.92	3.039
481.12	3.061
481.32	3.052
481.52	3.051
481.72	3.043
481.93	3.018
482.13	3.010
482.33	3.026
482.53	3.030
482.73	3.011
482.93	3.042
483.14	3.023
483.34	3.014
483.54	3.029
483.74	3.021
483.94	3.014
484.14	3.025
484.34	3.034
484.55	3.019
484.75	3.017
484.95	3.032
485.15	3.034
485.35	3.042
485.55	3.052
485.75	3.024
485.96	3.037
486.16	3.036
486.36	3.053
486.56	3.078
486.76	3.083
486.96	3.078
487.16	3.090
487.36	3.066
487.57	3.077
487.77	3.086
487.97	3.098
488.17	3.107
488.37	3.101
488.57	3.076
488.77	3.043
488.97	3.035
489.18	3.038
489.38	3.034
489.58	3.025
489.78	3.006
489.98	3.008
490.18	2.994
490.38	2.997
490.58	2.998
490.78	2.977
490.98	2.969
491.19	2.970
491.39	2.953
491.59	2.966
491.79	2.980
491.99	3.004
492.19	3.002
492.39	3.029
492.59	3.014
492.79	3.009
492.99	3.043
493.20	3.071
493.40	3.062
493.60	3.073
493.80	3.052
494.00	3.048
494.20	3.045
494.40	3.021
494.60	2.999
494.80	3.003
495.00	3.019
495.20	3.024
495.40	2.993
495.61	2.990
495.81	2.984
496.01	2.981
496.21	2.976
496.41	2.971
496.61	2.972
496.81	2.974
497.01	2.971
497.21	2.973
497.41	2.973
497.61	2.998
497.81	3.014
498.01	3.031
498.21	3.038
498.41	3.056
498.61	3.064
498.82	3.100
499.02	3.109
499.22	3.110
499.42	3.103
499.62	3.093
499.82	3.072
500.02	3.083
500.22	3.095
500.42	3.088
500.62	3.069
500.82	3.049
501.02	3.016
501.22	3.012
501.42	3.015
501.62	3.014
501.82	3.013
502.02	3.016
502.22	3.027
502.42	2.998
502.62	2.998
502.82	2.998
503.02	2.983
503.22	2.992
503.42	2.986
503.63	2.975
503.83	2.982
504.03	2.971
504.23	2.981
504.43	2.975
504.63	2.956
504.83	2.954
505.03	2.960
505.23	3.002
505.43	3.008
505.63	3.015
505.83	3.022
506.03	3.002
506.23	2.995
506.43	2.987
506.63	2.982
506.83	3.026
507.03	3.034
507.23	3.045
507.43	3.007
507.63	2.983
507.83	2.999
508.03	2.999
508.23	3.013
508.43	3.038
508.63	3.051
508.83	3.046
509.03	3.016
509.23	3.005
509.43	2.994
509.63	3.005
509.83	3.020
510.03	2.997
510.23	2.988
510.43	2.981
510.63	2.973
510.83	2.956
511.03	2.944
511.23	2.953
511.43	2.950
511.63	2.945
511.83	2.949
512.03	2.948
512.22	2.962
512.42	2.977
512.62	2.982
512.82	2.993
513.02	3.019
513.22	3.015
513.42	3.021
513.62	3.044
513.82	3.046
514.02	3.047
514.22	3.057
514.42	3.072
514.62	3.067
514.82	3.081
515.02	3.056
515.22	3.043
515.42	3.062
515.62	3.053
515.82	3.043
516.02	3.031
516.22	3.037
516.42	3.038
516.62	3.008
516.82	3.032
517.01	3.007
517.21	3.014
517.41	3.009
517.61	3.003
517.81	3.014
518.01	3.010
518.21	3.005
518.41	3.021
518.61	3.001
518.81	3.007
519.01	2.964
519.21	2.980
519.41	2.990
519.61	2.990
519.81	2.980
520.00	2.970
520.20	2.988
520.40	2.998
520.60	2.968
520.80	2.966
521.00	2.973
521.20	3.017
521.40	3.027
521.60	2.996
521.80	3.002
522.00	3.014
522.20	3.006
522.39	2.996
522.59	3.003
522.79	3.016
522.99	3.031
523.19	3.020
523.39	3.013
523.59	2.991
523.79	2.987
523.99	2.995
524.19	2.983
524.38	2.991
524.58	2.991
524.78	2.995
524.98	2.978
525.18	2.980
525.38	2.986
525.58	2.957
525.78	2.967
525.98	2.971
526.18	2.938
526.37	2.950
526.57	2.958
526.77	2.961
526.97	2.938
527.17	2.957
527.37	2.951
527.57	2.940
527.77	2.940
527.96	2.944
528.16	2.971
528.36	2.992
528.56	2.970
528.76	2.955
528.96	2.959
529.16	2.964
529.36	2.951
529.55	2.966
529.75	2.992
529.95	3.001
530.15	2.967
530.35	2.954
530.55	2.959
530.75	2.953
530.94	2.940
531.14	2.919
531.34	2.941
531.54	2.936
531.74	2.932
531.94	2.917
532.13	2.925
532.33	2.959
532.53	2.945
532.73	2.914
532.93	2.926
533.13	2.916
533.33	2.933
533.52	2.929
533.72	2.925
533.92	2.906
534.12	2.902
534.32	2.891
534.52	2.881
534.71	2.879
534.91	2.895
535.11	2.883
535.31	2.898
535.51	2.873
535.71	2.845
535.90	2.854
536.10	2.855
536.30	2.855
536.50	2.873
536.70	2.879
536.89	2.914
537.09	2.899
537.29	2.903
537.49	2.917
537.69	2.929
537.89	2.958
538.08	2.941
538.28	2.967
538.48	2.961
538.68	2.932
538.88	2.916
539.07	2.918
539.27	2.925
539.47	2.929
539.67	2.928
539.87	2.924
540.06	2.935
540.26	2.963
540.46	2.946
540.66	2.953
540.86	2.978
541.05	2.975
541.25	2.966
541.45	2.956
541.65	2.965
541.84	2.967
542.04	2.989
542.24	2.967
542.44	2.952
542.64	2.930
542.83	2.941
543.03	2.937
543.23	2.944
543.43	2.929
543.62	2.938
543.82	2.935
544.02	2.921
544.22	2.903
544.42	2.906
544.61	2.900
544.81	2.919
545.01	2.917
545.21	2.925
545.40	2.925
545.60	2.919
545.80	2.922
546.00	2.944
546.19	2.962
546.39	2.967
546.59	2.962
546.79	2.968
546.98	2.984
547.18	2.976
547.38	2.978
547.58	2.975
547.77	2.992
547.97	3.007
548.17	2.979
548.37	2.983
548.56	2.987
548.76	2.986
548.96	2.991
549.16	2.976
549.35	2.986
549.55	2.950
549.75	2.961
549.95	2.956
550.14	2.952
550.34	2.957
550.54	2.952
550.73	2.966
550.93	2.985
551.13	2.973
551.33	2.962
551.52	2.958
551.72	2.983
551.92	2.981
552.12	2.984
552.31	2.987
552.51	2.991
552.71	2.994
552.90	2.965
553.10	2.952
553.30	2.980
553.50	2.985
553.69	2.985
553.89	2.972
554.09	2.958
554.28	2.956
554.48	2.958
554.68	2.963
554.87	2.950
555.07	2.963
555.27	2.977
555.47	2.945
555.66	2.944
555.86	2.944
556.06	2.928
556.25	2.932
556.45	2.940
556.65	2.931
556.84	2.922
557.04	2.915
557.24	2.907
557.43	2.908
557.63	2.911
557.83	2.933
558.02	2.950
558.22	2.964
558.42	2.969
558.61	2.944
558.81	2.940
559.01	2.937
559.21	2.954
559.40	2.959
559.60	2.947
559.80	2.964
559.99	2.960
560.19	2.949
560.39	2.965
560.58	2.973
560.78	2.991
560.97	3.013
561.17	3.018
561.37	3.008
561.56	3.028
561.76	3.031
561.96	3.023
562.15	3.024
562.35	3.008
562.55	2.992
562.74	3.002
562.94	3.011
563.14	3.008
563.33	2.988
563.53	2.982
563.73	2.965
563.92	2.984
564.12	2.975
564.31	2.973
564.51	2.996
564.71	3.014
564.90	3.012
565.10	2.996
565.30	2.975
565.49	3.006
565.69	3.008
565.89	2.992
566.08	3.008
566.28	3.014
566.47	3.006
566.67	2.998
566.87	2.997
567.06	2.997
567.26	2.998
567.46	3.003
567.65	3.009
567.85	3.006
568.04	3.020
568.24	2.990
568.44	2.991
568.63	3.003
568.83	2.993
569.02	2.988
569.22	2.989
569.42	2.998
569.61	3.007
569.81	2.985
570.00	2.990
570.20	2.985
570.40	2.975
570.59	2.972
570.79	2.969
570.98	2.971
571.18	2.966
571.38	2.971
571.57	2.979
571.77	2.969
571.96	2.978
572.16	2.994
572.35	2.980
572.55	2.983
572.75	2.982
572.94	2.976
573.14	2.967
573.33	2.990
573.53	2.971
573.73	2.954
573.92	2.966
574.12	2.972
574.31	2.956
574.51	2.986
574.70	2.992
574.90	2.996
575.09	2.992
575.29	2.995
575.49	2.975
575.68	2.971
575.88	2.980
576.07	2.972
576.27	2.968
576.46	2.972
576.66	2.951
576.86	2.954
577.05	2.964
577.25	2.978
577.44	2.976
577.64	2.982
577.83	2.991
578.03	2.979
578.22	2.972
578.42	2.956
578.61	2.959
578.81	2.966
579.00	2.962
579.20	2.946
579.40	2.927
579.59	2.934
579.79	2.923
579.98	2.920
580.18	2.920
580.37	2.924
580.57	2.922
580.76	2.925
580.96	2.926
581.15	2.930
581.35	2.937
581.54	2.930
581.74	2.920
581.93	2.929
582.13	2.927
582.32	2.927
582.52	2.933
582.71	2.936
582.91	2.929
583.10	2.921
583.30	2.912
583.49	2.896
583.69	2.915
583.88	2.922
584.08	2.912
584.27	2.911
584.47	2.905
584.66	2.905
584.86	2.916
585.05	2.911
585.25	2.915
585.44	2.922
585.64	2.940
585.83	2.932
586.03	2.933
586.22	2.942
586.42	2.955
586.61	2.973
586.81	2.960
587.00	2.962
587.20	2.959
587.39	2.964
587.59	2.967
587.78	2.952
587.98	2.961
588.17	2.951
588.37	2.931
588.56	2.900
588.76	2.881
588.95	2.886
589.15	2.887
589.34	2.886
589.54	2.873
589.73	2.866
589.92	2.872
590.12	2.860
590.31	2.866
590.51	2.882
590.70	2.899
590.90	2.899
591.09	2.897
591.29	2.883
591.48	2.901
591.68	2.915
591.87	2.919
592.06	2.924
592.26	2.921
592.45	2.918
592.65	2.909
592.84	2.904
593.04	2.909
593.23	2.913
593.43	2.911
593.62	2.897
593.81	2.897
594.01	2.891
594.20	2.881
594.40	2.880
594.59	2.876
594.79	2.879
594.98	2.889
595.17	2.886
595.37	2.901
595.56	2.909
595.76	2.913
595.95	2.913
596.14	2.909
596.34	2.915
596.53	2.931
596.73	2.925
596.92	2.919
597.12	2.912
597.31	2.909
597.50	2.885
597.70	2.879
597.89	2.865
598.09	2.849
598.28	2.856
598.47	2.860
598.67	2.857
598.86	2.869
599.06	2.881
599.25	2.889
599.44	2.916
599.64	2.922
599.83	2.930
600.03	2.948
600.22	2.976
600.41	2.976
600.61	2.970
600.80	2.977
601.00	2.968
601.19	2.970
601.38	2.955
601.58	2.941
601.77	2.954
601.96	2.953
602.16	2.937
602.35	2.946
602.55	2.956
602.74	2.964
602.93	2.946
603.13	2.950
603.32	2.929
603.51	2.934
603.71	2.913
603.90	2.902
604.09	2.901
604.29	2.918
604.48	2.908
604.68	2.898
604.87	2.891
605.06	2.895
605.26	2.909
605.45	2.925
605.64	2.927
605.84	2.936
606.03	2.953
606.22	2.959
606.42	2.967
606.61	2.965
606.80	2.973
607.00	2.968
607.19	2.982
607.38	2.977
607.58	2.975
607.77	2.969
607.96	2.962
608.16	2.954
608.35	2.951
608.54	2.937
608.74	2.923
608.93	2.922
609.12	2.926
609.32	2.901
609.51	2.881
609.70	2.871
609.90	2.872
610.09	2.877
610.28	2.870
610.48	2.874
610.67	2.861
610.86	2.874
611.06	2.878
611.25	2.885
611.44	2.897
611.64	2.907
611.83	2.913
612.02	2.925
612.21	2.928
612.41	2.937
612.60	2.926
612.79	2.953
612.99	2.940
613.18	2.936
613.37	2.934
613.57	2.935
613.76	2.938
613.95	2.953
614.14	2.960
614.34	2.964
614.53	2.951
614.72	2.955
614.92	2.936
615.11	2.935
615.30	2.910
615.49	2.916
615.69	2.937
615.88	2.946
616.07	2.935
616.26	2.931
616.46	2.931
616.65	2.916
616.84	2.911
617.04	2.926
617.23	2.911
617.42	2.941
617.61	2.941
617.81	2.919
618.00	2.920
618.19	2.939
618.38	2.923
618.58	2.929
618.77	2.957
618.96	2.968
619.15	2.945
619.35	2.961
619.54	2.962
619.73	2.940
619.92	2.942
620.12	2.941
620.31	2.901
620.50	2.898
620.69	2.878
620.89	2.870
621.08	2.868
621.27	2.871
621.46	2.863
621.66	2.834
621.85	2.854
622.04	2.875
622.23	2.857
622.43	2.874
622.62	2.868
622.81	2.885
623.00	2.903
623.19	2.904
623.39	2.917
623.58	2.910
623.77	2.933
623.96	2.922
624.16	2.890
624.35	2.901
624.54	2.903
624.73	2.924
624.92	2.909
625.12	2.893
625.31	2.892
625.50	2.888
625.69	2.914
625.88	2.924
626.08	2.921
626.27	2.911
626.46	2.899
626.65	2.890
626.84	2.875
627.04	2.907
627.23	2.905
627.42	2.880
627.61	2.878
627.80	2.883
628.00	2.898
628.19	2.899
628.38	2.935
628.57	2.975
628.76	2.985
628.96	2.996
629.15	2.971
629.34	2.984
629.53	2.977
629.72	2.971
629.91	2.956
630.11	2.927
630.30	2.923
630.49	2.922
630.68	2.886
630.87	2.889
631.06	2.890
631.26	2.866
631.45	2.867
631.64	2.899
631.83	2.912
632.02	2.923
632.21	2.939
632.41	2.935
632.60	2.893
632.79	2.914
632.98	2.895
633.17	2.893
633.36	2.923
633.55	2.919
633.75	2.935
633.94	2.925
634.13	2.928
634.32	2.917
634.51	2.909
634.70	2.940
634.89	2.930
635.09	2.940
635.28	2.951
635.47	2.955
635.66	2.937
635.85	2.923
636.04	2.947
636.23	2.928
636.43	2.921
636.62	2.929
636.81	2.932
637.00	2.913
637.19	2.926
637.38	2.917
637.57	2.917
637.76	2.940
637.95	2.952
638.15	2.918
638.34	2.913
638.53	2.938
638.72	2.930
638.91	2.935
639.10	2.985
639.29	2.981
639.48	2.992
639.67	2.994
639.87	2.965
640.06	2.939
640.25	2.975
640.44	3.015
640.63	2.972
640.82	2.989
641.01	2.961
641.20	2.937
641.39	2.945
641.58	2.938
641.78	2.962
641.97	2.990
642.16	2.960
642.35	2.957
642.54	2.936
642.73	2.969
642.92	2.982
643.11	3.021
643.30	3.035
643.49	3.032
643.68	3.025
643.87	2.998
644.06	2.994
644.25	3.004
644.45	2.968
644.64	2.971
644.83	2.952
645.02	2.950
645.21	2.929
645.40	2.928
645.59	2.895
645.78	2.895
645.97	2.894
646.16	2.901
646.35	2.927
646.54	2.934
646.73	2.912
646.92	2.908
647.11	2.893
647.30	2.919
647.49	2.895
647.68	2.907
647.88	2.908
648.07	2.930
648.26	2.934
648.45	2.929
648.64	2.941
648.83	2.965
649.02	3.011
649.21	3.057
649.40	3.027
649.59	3.048
649.78	3.067
649.97	3.100
650.16	3.044
650.35	3.030
650.54	3.053
650.73	3.029
650.92	3.004
651.11	2.966
651.30	2.942
651.49	2.926
651.68	2.948
651.87	2.943
652.06	2.935
652.25	2.957
652.44	2.957
652.63	2.962
652.82	2.969
653.01	2.965
653.20	2.967
653.39	2.980
653.58	2.987
653.77	2.964
653.96	2.958
654.15	2.934
654.34	2.918
654.53	2.915
654.72	2.901
654.91	2.900
655.10	2.913
655.29	2.911
655.48	2.894
655.67	2.903
655.86	2.906
656.05	2.907
656.24	2.917
656.43	2.919
656.62	2.917
656.81	2.925
657.00	2.920
657.19	2.900
657.38	2.887
657.57	2.894
657.76	2.864
657.95	2.848
658.14	2.853
658.33	2.850
658.51	2.865
658.70	2.861
658.89	2.853
659.08	2.875
659.27	2.902
659.46	2.919
659.65	2.911
659.84	2.956
660.03	2.967
660.22	2.933
660.41	2.923
660.60	2.892
660.79	2.904
660.98	2.900
661.17	2.884
661.36	2.894
661.55	2.897
661.74	2.929
661.92	2.908
662.11	2.901
662.30	2.894
662.49	2.896
662.68	2.953
662.87	2.936
663.06	2.947
663.25	2.971
663.44	2.988
663.63	2.966
663.82	2.981
664.01	2.987
664.20	3.001
664.38	3.043
664.57	3.060
664.76	3.052
664.95	3.064
665.14	3.041
665.33	3.027
665.52	3.023
665.71	3.078
665.90	3.027
666.09	3.033
666.28	3.057
666.46	3.067
666.65	3.067
666.84	3.020
667.03	3.053
667.22	3.075
667.41	3.065
667.60	3.027
667.79	3.000
667.98	2.998
668.16	2.997
668.35	3.024
668.54	3.021
668.73	3.028
668.92	3.055
669.11	3.006
669.30	3.002
669.49	2.971
669.67	2.951
669.86	2.965
670.05	2.990
670.24	2.994
670.43	2.985
670.62	2.933
670.81	2.923
671.00	2.919
671.18	2.941
671.37	2.954
671.56	2.998
671.75	2.979
671.94	2.985
672.13	2.970
672.32	2.945
672.50	2.931
672.69	2.968
672.88	2.980
673.07	2.956
673.26	2.921
673.45	2.897
673.63	2.898
673.82	2.910
674.01	2.893
674.20	2.897
674.39	2.939
674.58	2.937
674.76	2.937
674.95	2.932
675.14	2.949
675.33	2.967
675.52	2.974
675.71	2.971
675.89	3.006
676.08	3.032
676.27	3.014
676.46	2.996
676.65	2.994
676.84	2.989
677.02	2.996
677.21	2.968
677.40	2.986
677.59	3.029
677.78	3.012
677.96	3.001
678.15	2.965
678.34	2.963
678.53	2.956
678.72	2.941
678.90	2.935
679.09	2.929
679.28	2.932
679.47	2.942
679.66	2.905
679.84	2.907
680.03	2.912
680.22	2.928
680.41	2.919
680.60	2.899
680.78	2.925
680.97	2.931
681.16	2.942
681.35	2.962
681.53	2.943
681.72	2.952
681.91	2.947
682.10	2.927
682.29	2.887
682.47	2.921
682.66	2.954
682.85	2.941
683.04	2.938
683.22	2.930
683.41	2.910
683.60	2.912
683.79	2.905
683.97	2.905
684.16	2.910
684.35	2.986
684.54	2.951
684.72	2.940
684.91	2.949
685.10	2.963
685.29	2.984
685.47	3.024
685.66	3.020
685.85	3.043
686.04	3.037
686.22	3.080
686.41	3.050
686.60	3.063
686.79	3.032
686.97	3.037
687.16	3.042
687.35	3.015
687.54	2.979
687.72	2.983
687.91	2.952
688.10	2.970
688.29	2.941
688.47	2.905
688.66	2.912
688.85	2.914
689.03	2.923
689.22	2.910
689.41	2.936
689.60	2.929
689.78	2.954
689.97	2.940
690.16	2.916
690.34	2.928
690.53	2.956
690.72	2.965
690.91	2.955
691.09	2.925
691.28	2.934
691.47	2.912
691.65	2.920
691.84	2.907
692.03	2.943
692.21	2.954
692.40	2.923
692.59	2.917
692.77	2.891
692.96	2.905
693.15	2.914
693.34	2.913
693.52	2.893
693.71	2.902
693.90	2.908
694.08	2.901
694.27	2.889
694.46	2.916
694.64	2.909
694.83	2.922
695.02	2.908
695.20	2.884
695.39	2.862
695.58	2.889
695.76	2.884
695.95	2.851
696.14	2.834
696.32	2.853
696.51	2.846
696.70	2.863
696.88	2.871
697.07	2.892
697.26	2.935
697.44	2.982
697.63	2.968
697.81	2.953
698.00	2.974
698.19	3.003
698.37	2.999
698.56	3.031
698.75	3.005
698.93	2.984
699.12	2.974
699.31	2.963
699.49	2.931
699.68	2.926
699.87	2.955
700.05	2.924
700.24	2.893
700.42	2.888
700.61	2.853
700.80	2.858
700.98	2.879
701.17	2.893
701.36	2.861
701.54	2.871
701.73	2.870
701.91	2.861
702.10	2.862
702.29	2.900
702.47	2.911
702.66	2.928
702.84	2.936
703.03	2.905
703.22	2.886
703.40	2.888
703.59	2.876
703.77	2.864
703.96	2.877
704.15	2.898
704.33	2.861
704.52	2.844
704.70	2.868
704.89	2.842
705.08	2.860
705.26	2.868
705.45	2.867
705.63	2.865
705.82	2.870
706.00	2.839
706.19	2.837
706.38	2.864
706.56	2.893
706.75	2.878
706.93	2.902
707.12	2.886
707.30	2.893
707.49	2.913
707.68	2.919
707.86	2.941
708.05	2.952
708.23	3.000
708.42	2.944
708.60	2.907
708.79	2.866
708.98	2.876
709.16	2.870
709.35	2.857
709.53	2.841
709.72	2.822
709.90	2.807
710.09	2.808
710.27	2.766
710.46	2.797
710.64	2.781
710.83	2.783
711.02	2.761
711.20	2.758
711.39	2.769
711.57	2.747
711.76	2.748
711.94	2.761
712.13	2.729
712.31	2.742
712.50	2.741
712.68	2.763
712.87	2.746
713.05	2.748
713.24	2.746
713.42	2.727
713.61	2.759
713.79	2.768
713.98	2.753
714.16	2.806
714.35	2.823
714.54	2.820
714.72	2.789
714.91	2.795
715.09	2.770
715.28	2.795
715.46	2.796
715.65	2.783
715.83	2.779
716.02	2.771
716.20	2.736
716.39	2.719
716.57	2.692
716.76	2.719
716.94	2.723
717.12	2.742
717.31	2.753
717.49	2.750
717.68	2.765
717.86	2.751
718.05	2.716
718.23	2.713
718.42	2.693
718.60	2.696
718.79	2.668
718.97	2.683
719.16	2.674
719.34	2.661
719.53	2.670
719.71	2.652
719.90	2.645
720.08	2.659
720.27	2.663
720.45	2.644
720.63	2.655
720.82	2.700
721.00	2.680
721.19	2.698
721.37	2.662
721.56	2.646
721.74	2.629
721.93	2.621
722.11	2.638
722.30	2.661
722.48	2.679
722.66	2.669
722.85	2.631
723.03	2.639
723.22	2.599
723.40	2.617
723.59	2.603
723.77	2.616
723.95	2.601
724.14	2.599
724.32	2.568
724.51	2.584
724.69	2.578
724.88	2.585
725.06	2.571
725.24	2.586
725.43	2.560
725.61	2.570
725.80	2.564
725.98	2.616
726.16	2.627
726.35	2.608
726.53	2.580
726.72	2.553
726.90	2.510
727.09	2.505
727.27	2.486
727.45	2.491
727.64	2.454
727.82	2.435
728.01	2.381
728.19	2.352
728.37	2.338
728.56	2.332
728.74	2.334
728.92	2.355
729.11	2.366
729.29	2.369
729.48	2.340
729.66	2.357
729.84	2.353
730.03	2.393
730.21	2.376
730.40	2.389
730.58	2.356
730.76	2.356
730.95	2.348
731.13	2.328
731.31	2.313
731.50	2.321
731.68	2.314
731.86	2.311
732.05	2.286
732.23	2.295
732.42	2.283
732.60	2.300
732.78	2.294
732.97	2.270
733.15	2.254
733.33	2.257
733.52	2.253
733.70	2.227
733.88	2.185
734.07	2.172
734.25	2.141
734.43	2.118
734.62	2.093
734.80	2.089
734.98	2.069
735.17	2.071
735.35	2.070
735.53	2.047
735.72	2.046
735.90	2.074
736.08	2.067
736.27	2.105
736.45	2.135
736.63	2.133
736.82	2.118
737.00	2.110
737.18	2.080
737.37	2.068
737.55	2.070
737.73	2.063
737.92	2.063
738.10	2.072
738.28	2.063
738.46	2.056
738.65	2.059
738.83	2.071
739.01	2.089
739.20	2.084
739.38	2.057
739.56	2.073
739.75	2.094
739.93	2.092
740.11	2.093
740.29	2.061
740.48	2.029
740.66	2.058
740.84	2.031
741.03	2.041
741.21	2.099
741.39	2.114
741.57	2.101
741.76	2.099
741.94	2.039
742.12	2.035
742.31	2.047
742.49	2.053
742.67	2.050
742.85	2.050
743.04	2.056
743.22	2.038
743.40	2.066
743.58	2.083
743.77	2.068
743.95	2.126
744.13	2.091
744.31	2.046
744.50	2.043
744.68	2.005
744.86	2.021
745.04	2.021
745.23	2.040
745.41	2.022
745.59	2.004
745.77	1.991
745.96	1.996
746.14	2.027
746.32	2.028
746.50	2.043
746.69	2.070
746.87	2.100
747.05	2.103
747.23	2.050
747.42	2.065
747.60	2.038
747.78	2.051
747.96	2.006
748.14	2.020
748.33	2.083
748.51	2.062
748.69	2.050
748.87	2.004
749.06	1.974
749.24	1.991
749.42	1.980
749.60	1.999
749.78	2.023
749.97	2.053
750.15	2.011
750.33	1.972
750.51	2.023
750.69	2.024
750.88	2.033
751.06	2.058
751.24	2.044
751.42	2.038
751.60	2.065
751.79	2.062
751.97	2.096
752.15	2.141
752.33	2.168
752.51	2.107
752.69	2.116
752.88	2.120
753.06	2.150
753.24	2.149
753.42	2.133
753.60	2.112
753.78	2.092
753.97	2.048
754.15	2.007
754.33	1.981
754.51	2.012
754.69	2.013
754.87	2.016
755.06	1.961
755.24	1.949
755.42	1.955
755.60	1.939
755.78	1.945
755.96	1.990
756.15	2.023
756.33	2.031
756.51	2.013
756.69	2.017
756.87	2.029
757.05	2.064
757.23	2.049
757.42	2.047
757.60	2.056
757.78	2.049
757.96	1.999
758.14	1.973
758.32	1.999
758.50	1.991
758.69	1.992
758.87	1.984
759.05	1.991
759.23	2.035
759.41	2.051
759.59	2.090
759.77	2.125
759.95	2.133
760.13	2.175
760.32	2.157
760.50	2.161
760.68	2.149
760.86	2.177
761.04	2.175
761.22	2.190
761.40	2.178
761.58	2.114
761.76	2.091
761.95	2.095
762.13	2.108
762.31	2.119
762.49	2.164
762.67	2.132
762.85	2.134
763.03	2.132
763.21	2.079
763.39	2.091
763.57	2.114
763.75	2.107
763.94	2.136
764.12	2.132
764.30	2.094
764.48	2.068
764.66	2.122
764.84	2.073
765.02	2.060
765.20	2.074
765.38	2.051
765.56	2.064
765.74	2.047
765.92	2.035
766.10	2.027
766.28	2.066
766.46	2.065
766.65	2.059
766.83	2.071
767.01	2.081
767.19	2.089
767.37	2.132
767.55	2.103
767.73	2.136
767.91	2.139
768.09	2.101
768.27	2.070
768.45	2.078
768.63	2.038
768.81	2.073
768.99	2.074
769.17	2.071
769.35	2.056
769.53	2.089
769.71	2.100
769.89	2.074
770.07	2.084
770.25	2.129
770.43	2.132
770.61	2.154
770.79	2.151
770.97	2.125
771.15	2.140
771.33	2.138
771.51	2.152
771.69	2.156
771.87	2.185
772.05	2.197
772.24	2.159
772.42	2.162
772.60	2.153
772.78	2.117
772.96	2.146
773.14	2.189
773.32	2.195
773.49	2.179
773.67	2.177
773.85	2.153
774.03	2.151
774.21	2.161
774.39	2.127
774.57	2.171
774.75	2.198
774.93	2.211
775.11	2.138
775.29	2.142
775.47	2.164
775.65	2.125
775.83	2.105
776.01	2.107
776.19	2.084
776.37	2.114
776.55	2.076
776.73	2.073
776.91	2.074
777.09	2.090
777.27	2.085
777.45	2.095
777.63	2.115
777.81	2.160
777.99	2.168
778.17	2.235
778.35	2.229
778.53	2.227
778.71	2.229
778.89	2.249
779.07	2.220
779.24	2.251
779.42	2.180
779.60	2.171
779.78	2.135
779.96	2.133
780.14	2.111
780.32	2.078
780.50	2.125
780.68	2.109
780.86	2.069
781.04	2.086
781.22	2.057
781.40	2.090
781.58	2.088
781.75	2.108
781.93	2.150
782.11	2.122
782.29	2.177
782.47	2.149
782.65	2.187
782.83	2.175
783.01	2.193
783.19	2.215
783.37	2.175
783.55	2.200
783.72	2.205
783.90	2.177
784.08	2.182
784.26	2.177
784.44	2.177
784.62	2.138
784.80	2.175
784.98	2.206
785.16	2.179
785.33	2.221
785.51	2.231
785.69	2.237
785.87	2.250
786.05	2.233
786.23	2.245
786.41	2.243
786.59	2.261
786.77	2.279
786.94	2.216
787.12	2.237
787.30	2.187
787.48	2.207
787.66	2.201
787.84	2.162
788.02	2.206
788.19	2.178
788.37	2.173
788.55	2.189
788.73	2.168
788.91	2.197
789.09	2.193
789.27	2.239
789.44	2.206
789.62	2.214
789.80	2.241
789.98	2.213
790.16	2.238
790.34	2.276
790.51	2.229
790.69	2.219
790.87	2.212
791.05	2.230
791.23	2.221
791.41	2.238
791.58	2.260
791.76	2.261
791.94	2.269
792.12	2.256
792.30	2.217
792.48	2.219
792.65	2.240
792.83	2.230
793.01	2.222
793.19	2.237
793.37	2.210
793.54	2.178
793.72	2.182
793.90	2.191
794.08	2.193
794.26	2.207
794.43	2.242
794.61	2.232
794.79	2.235
794.97	2.225
795.15	2.200
795.32	2.231
795.50	2.259
795.68	2.256
795.86	2.249
796.04	2.270
796.21	2.265
796.39	2.257
796.57	2.256
796.75	2.273
796.92	2.319
797.10	2.343
797.28	2.301
797.46	2.326
797.64	2.386
797.81	2.414
797.99	2.405
798.17	2.395
798.35	2.432
798.52	2.469
798.70	2.528
798.88	2.444
799.06	2.447
799.23	2.556
799.41	2.553
799.59	2.475
799.77	2.461
799.94	2.460
800.12	2.483
800.30	2.485
800.48	2.430
800.65	2.371
800.83	2.383
801.01	2.432
801.19	2.357
801.36	2.328
801.54	2.314
801.72	2.334
801.90	2.332
802.07	2.384
802.25	2.377
802.43	2.369
802.60	2.366
802.78	2.395
802.96	2.364
803.14	2.414
803.31	2.471
803.49	2.522
803.67	2.506
803.84	2.529
804.02	2.480
804.20	2.473
804.38	2.519
804.55	2.516
804.73	2.556
804.91	2.528
805.08	2.530
805.26	2.468
805.44	2.449
805.61	2.441
805.79	2.416
805.97	2.435
806.15	2.444
806.32	2.507
806.50	2.498
806.68	2.493
806.85	2.538
807.03	2.494
807.21	2.546
807.38	2.519
807.56	2.496
807.74	2.546
807.91	2.555
808.09	2.540
808.27	2.462
808.44	2.461
808.62	2.424
808.80	2.430
808.97	2.427
809.15	2.387
809.33	2.362
809.50	2.393
809.68	2.380
809.86	2.321
810.03	2.317
810.21	2.330
810.39	2.359
810.56	2.400
810.74	2.375
810.91	2.403
811.09	2.378
811.27	2.439
811.44	2.412
811.62	2.412
811.80	2.476
811.97	2.402
812.15	2.397
812.33	2.391
812.50	2.335
812.68	2.312
812.85	2.281
813.03	2.276
813.21	2.269
813.38	2.279
813.56	2.258
813.74	2.285
813.91	2.357
814.09	2.366
814.26	2.372
814.44	2.361
814.62	2.337
814.79	2.336
814.97	2.367
815.14	2.382
815.32	2.360
815.50	2.348
815.67	2.318
815.85	2.314
816.02	2.339
816.20	2.301
816.38	2.319
816.55	2.365
816.73	2.353
816.90	2.330
817.08	2.306
817.26	2.382
817.43	2.382
817.61	2.343
817.78	2.334
817.96	2.270
818.13	2.286
818.31	2.306
818.49	2.291
818.66	2.323
818.84	2.345
819.01	2.333
819.19	2.269
819.36	2.268
819.54	2.276
819.71	2.261
819.89	2.296
820.07	2.298
820.24	2.299
820.42	2.322
820.59	2.268
820.77	2.248
820.94	2.233
821.12	2.244
821.29	2.239
821.47	2.206
821.64	2.186
821.82	2.199
822.00	2.206
822.17	2.210
822.35	2.183
822.52	2.197
822.70	2.220
822.87	2.251
823.05	2.172
823.22	2.168
823.40	2.199
823.57	2.269
823.75	2.212
823.92	2.178
824.10	2.166
824.27	2.156
824.45	2.152
824.62	2.083
824.80	2.036
824.97	2.086
825.15	2.085
825.32	2.096
825.50	2.039
825.67	2.025
825.85	2.012
826.02	2.040
826.20	2.051
826.37	2.096
826.55	2.141
826.72	2.169
826.90	2.134
827.07	2.104
827.25	2.074
827.42	2.056
827.60	2.077
827.77	2.105
827.95	2.045
828.12	1.994
828.30	1.975
828.47	1.976
828.65	2.026
828.82	2.038
829.00	2.023
829.17	1.998
829.34	2.025
829.52	2.012
829.69	2.008
829.87	1.976
830.04	2.004
830.22	1.981
830.39	1.964
830.57	1.916
830.74	1.941
830.92	1.973
831.09	2.061
831.26	2.005
831.44	2.038
831.61	1.981
831.79	2.004
831.96	2.032
832.14	2.020
832.31	2.125
832.49	2.032
832.66	2.058
832.83	2.001
833.01	1.880
833.18	1.844
833.36	1.861
833.53	1.930
833.70	1.863
833.88	1.843
834.05	1.805
834.23	1.715
834.40	1.754
834.58	1.740
834.75	1.759
834.92	1.800
835.10	1.816
835.27	1.767
835.45	1.715
835.62	1.735
835.79	1.697
835.97	1.698
836.14	1.717
836.32	1.707
836.49	1.674
836.66	1.670
836.84	1.653
837.01	1.725
837.18	1.726
837.36	1.719
837.53	1.692
837.71	1.672
837.88	1.675
838.05	1.638
838.23	1.553
838.40	1.533
838.58	1.530
838.75	1.495
838.92	1.435
839.10	1.413
839.27	1.405
839.44	1.421
839.62	1.481
839.79	1.539
839.96	1.538
840.14	1.657
840.31	1.637
840.48	1.672
840.66	1.736
840.83	1.809
841.01	1.959
841.18	1.994
841.35	1.994
841.53	2.018
841.70	1.884
841.87	1.882
842.05	1.790
842.22	1.847
842.39	1.804
842.57	1.765
842.74	1.782
842.91	1.755
843.09	1.848
843.26	1.850
843.43	1.769
843.60	1.730
843.78	1.864
843.95	1.954
844.12	1.982
844.30	1.875
844.47	1.894
844.64	1.858
844.82	1.750
844.99	1.760
845.16	1.725
845.34	1.660
845.51	1.713
845.68	1.676
845.85	1.625
846.03	1.668
846.20	1.762
846.37	1.830
846.55	1.906
846.72	2.004
846.89	1.780
847.06	1.833
847.24	1.910
847.41	1.779
847.58	1.699
847.76	1.716
847.93	1.625
848.10	1.585
848.27	1.542
848.45	1.497
848.62	1.477
848.79	1.507
848.97	1.503
849.14	1.551
849.31	1.644
849.48	1.643
849.66	1.690
849.83	1.760
850.00	1.861
850.17	1.805
850.35	1.870
850.52	1.806
850.69	1.899
850.86	1.859
851.04	1.783
851.21	1.690
851.38	1.639
851.55	1.556
851.72	1.539
851.90	1.483
852.07	1.503
852.24	1.487
852.41	1.510
852.59	1.536
852.76	1.635
852.93	1.586
853.10	1.608
853.28	1.707
853.45	1.742
853.62	1.822
853.79	2.066
853.96	1.974
854.14	1.961
854.31	1.988
854.48	1.889
854.65	1.618
854.82	1.605
855.00	1.559
855.17	1.595
855.34	1.639
855.51	1.522
855.68	1.428
855.86	1.469
856.03	1.527
856.20	1.507
856.37	1.508
856.54	1.499
856.72	1.509
856.89	1.497
857.06	1.519
857.23	1.442
857.40	1.440
857.57	1.496
857.75	1.505
857.92	1.460
858.09	1.570
858.26	1.581
858.43	1.663
858.60	1.795
858.78	1.867
858.95	1.742
859.12	1.959
859.29	2.301
859.46	1.919
859.63	2.126
859.81	1.802
859.98	1.820
860.15	1.777
860.32	1.853
860.49	1.805
860.66	1.884
860.83	1.746
861.01	1.711
861.18	1.668
861.35	1.735
861.52	1.600
861.69	1.788
861.86	1.520
862.03	1.531
862.21	1.539
862.38	1.539
862.55	1.551
862.72	1.588
862.89	1.532
863.06	1.506
863.23	1.652
863.40	1.680
863.58	1.709
863.75	1.846
863.92	1.719
864.09	1.675
864.26	1.607
864.43	1.688
864.60	1.854
864.77	2.022
864.94	1.914
865.11	1.814
865.29	1.696
865.46	1.689
865.63	1.725
865.80	2.030
865.97	1.915
866.14	2.036
866.31	1.863
866.48	1.762
866.65	1.754
866.82	1.898
866.99	1.772
867.16	1.833
867.34	1.689
867.51	1.609
867.68	1.489
867.85	1.588
868.02	1.507
868.19	1.397
868.36	1.521
868.53	1.471
868.70	1.550
868.87	1.497
869.04	1.607
869.21	1.772
869.38	1.736
869.55	1.712
869.72	1.707
869.89	1.735
870.06	2.080
870.24	1.591
870.41	1.592
870.58	1.479
870.75	1.528
870.92	1.419
871.09	1.383
871.26	1.570
871.43	1.618
871.60	1.752
871.77	1.641
871.94	1.573
872.11	1.491
872.28	1.479
872.45	1.368
872.62	1.406
872.79	1.453
872.96	1.425
873.13	1.377
873.30	1.326
873.47	1.235
873.64	1.202
873.81	1.209
873.98	1.381
874.15	1.461
874.32	1.966
874.49	1.869
874.66	1.584
874.83	1.486
875.00	1.321
875.17	1.415
875.34	1.401
875.51	1.664
875.68	1.748
875.85	1.564
876.02	1.434
876.19	1.305
876.36	1.398
876.53	1.580
876.70	1.454
876.87	1.610
877.04	1.817
877.21	2.003
877.38	1.720
877.55	1.462
877.72	1.608
877.89	1.576
878.06	1.686
878.23	1.627
878.39	1.666
878.56	-0.000
878.73	-0.000
878.90	1.902
879.07	1.663
879.24	1.611
879.41	1.876
879.58	1.612
879.75	1.553
879.92	1.498
880.09	1.379
880.26	1.222
880.43	1.090
880.60	1.084
880.77	1.048
880.94	1.061
881.11	1.105
881.27	1.060
881.44	1.029
881.61	1.078
881.78	1.075
881.95	1.090
882.12	1.202
882.29	1.278
882.46	1.315
882.63	1.390
882.80	1.367
882.97	1.374
883.14	1.484
883.30	1.566
883.47	1.615
883.64	1.767
883.81	1.598
883.98	1.483
884.15	1.443
884.32	1.487
884.49	1.615
884.66	1.791
884.82	1.448
884.99	1.477
885.16	1.589
885.33	1.554
885.50	1.466
885.67	1.569
885.84	1.788
886.01	1.759
886.17	1.505
886.34	1.309
886.51	1.297
886.68	1.442
886.85	1.429
887.02	1.244
887.19	1.291
887.36	1.271
887.52	1.281
887.69	1.248
887.86	1.248
888.03	1.359
888.20	1.336
888.37	1.429
888.54	1.433
888.70	1.382
888.87	1.554
889.04	1.406
889.21	1.366
889.38	1.246
889.55	1.136
889.71	1.047
889.88	1.175
890.05	1.402
890.22	0.851
890.39	0.855
>>>>>End Processed Spectral Data<<<<<
