SpectraSuite Data File
++++++++++++++++++++++++++++++++++++
Date: Mon Jun 15 05:21:59 PDT 2015
User: introlabs
Dark Spectrum Present: Yes
Reference Spectrum Present: Yes
Number of Sampled Component Spectra: 1
Spectrometers: USB4H08886
Integration Time (usec): 99009 (USB4H08886)
Spectra Averaged: 20 (USB4H08886)
Boxcar Smoothing: 5 (USB4H08886)
Correct for Electrical Dark: Yes (USB4H08886)
Strobe/Lamp Enabled: No (USB4H08886)
Correct for Detector Non-linearity: Yes (USB4H08886)
Correct for Stray Light: Yes (USB4H08886)
Number of Pixels in Processed Spectrum: 3648
>>>>>Begin Processed Spectral Data<<<<<
178.14	0.152
178.36	0.152
178.57	0.152
178.79	-0.000
179.01	0.673
179.22	0.086
179.44	0.075
179.65	0.049
179.87	0.061
180.08	-0.030
180.30	-0.154
180.52	-0.078
180.73	-0.558
180.95	0.330
181.16	-0.083
181.38	-0.011
181.59	0.032
181.81	0.014
182.03	0.025
182.24	0.021
182.46	0.012
182.67	-0.005
182.89	-0.010
183.10	-0.000
183.32	0.009
183.54	0.029
183.75	0.013
183.97	0.001
184.18	0.002
184.40	-0.013
184.61	-0.029
184.83	-0.041
185.04	-0.024
185.26	-0.027
185.48	-0.016
185.69	-0.033
185.91	-0.057
186.12	-0.044
186.34	-0.052
186.55	-0.044
186.77	-0.044
186.98	-0.024
187.20	-0.021
187.42	-0.043
187.63	-0.060
187.85	-0.065
188.06	-0.068
188.28	-0.056
188.49	-0.071
188.71	-0.068
188.92	-0.061
189.14	-0.050
189.36	-0.060
189.57	-0.070
189.79	-0.040
190.00	-0.018
190.22	-0.023
190.43	-0.017
190.65	-0.010
190.86	-0.002
191.08	0.009
191.29	0.003
191.51	-0.014
191.72	0.001
191.94	0.016
192.16	0.003
192.37	0.020
192.59	0.006
192.80	-0.001
193.02	0.002
193.23	0.007
193.45	-0.002
193.66	-0.014
193.88	-0.007
194.09	-0.025
194.31	-0.021
194.52	-0.029
194.74	-0.053
194.95	-0.033
195.17	-0.036
195.38	-0.049
195.60	-0.041
195.81	-0.028
196.03	-0.021
196.25	-0.013
196.46	-0.013
196.68	-0.027
196.89	-0.016
197.11	-0.007
197.32	-0.023
197.54	-0.019
197.75	-0.031
197.97	-0.030
198.18	-0.029
198.40	-0.034
198.61	-0.045
198.83	-0.037
199.04	-0.030
199.26	-0.027
199.47	-0.037
199.69	-0.032
199.90	-0.037
200.12	-0.022
200.33	-0.028
200.55	-0.040
200.76	-0.038
200.98	-0.020
201.19	-0.025
201.41	-0.030
201.62	-0.044
201.84	-0.036
202.05	-0.027
202.27	-0.020
202.48	-0.027
202.70	-0.026
202.91	-0.023
203.13	-0.015
203.34	-0.005
203.56	0.000
203.77	0.018
203.99	0.035
204.20	0.026
204.42	0.018
204.63	0.023
204.85	0.040
205.06	0.034
205.28	0.024
205.49	0.021
205.71	-0.005
205.92	-0.010
206.14	-0.022
206.35	-0.031
206.56	-0.019
206.78	-0.012
206.99	-0.011
207.21	-0.033
207.42	-0.037
207.64	-0.037
207.85	-0.034
208.07	-0.032
208.28	-0.026
208.50	-0.016
208.71	-0.021
208.93	-0.027
209.14	-0.035
209.36	-0.051
209.57	-0.055
209.79	-0.057
210.00	-0.052
210.22	-0.069
210.43	-0.064
210.64	-0.070
210.86	-0.088
211.07	-0.083
211.29	-0.081
211.50	-0.079
211.72	-0.064
211.93	-0.056
212.15	-0.051
212.36	-0.041
212.58	-0.027
212.79	-0.026
213.01	-0.020
213.22	-0.019
213.43	-0.021
213.65	-0.014
213.86	-0.011
214.08	-0.018
214.29	-0.003
214.51	0.003
214.72	-0.004
214.94	-0.012
215.15	-0.011
215.36	-0.010
215.58	-0.006
215.79	-0.010
216.01	-0.030
216.22	-0.036
216.44	-0.042
216.65	-0.053
216.87	-0.055
217.08	-0.051
217.29	-0.039
217.51	-0.041
217.72	-0.039
217.94	-0.049
218.15	-0.047
218.37	-0.038
218.58	-0.040
218.80	-0.022
219.01	-0.022
219.22	-0.019
219.44	-0.018
219.65	-0.020
219.87	-0.016
220.08	-0.021
220.30	-0.008
220.51	-0.008
220.72	-0.001
220.94	0.005
221.15	-0.013
221.37	-0.019
221.58	-0.015
221.79	-0.024
222.01	-0.040
222.22	-0.046
222.44	-0.050
222.65	-0.047
222.87	-0.035
223.08	-0.042
223.29	-0.044
223.51	-0.036
223.72	-0.018
223.94	-0.025
224.15	-0.018
224.36	-0.010
224.58	-0.017
224.79	-0.010
225.01	-0.016
225.22	-0.030
225.44	-0.039
225.65	-0.031
225.86	-0.017
226.08	-0.035
226.29	-0.039
226.51	-0.041
226.72	-0.040
226.93	-0.039
227.15	-0.040
227.36	-0.035
227.58	-0.037
227.79	-0.032
228.00	-0.038
228.22	-0.055
228.43	-0.047
228.65	-0.050
228.86	-0.053
229.07	-0.050
229.29	-0.034
229.50	-0.040
229.72	-0.043
229.93	-0.045
230.14	-0.051
230.36	-0.049
230.57	-0.044
230.78	-0.057
231.00	-0.055
231.21	-0.048
231.43	-0.057
231.64	-0.069
231.85	-0.066
232.07	-0.065
232.28	-0.064
232.50	-0.058
232.71	-0.061
232.92	-0.061
233.14	-0.053
233.35	-0.054
233.56	-0.057
233.78	-0.053
233.99	-0.053
234.21	-0.054
234.42	-0.054
234.63	-0.056
234.85	-0.061
235.06	-0.064
235.27	-0.063
235.49	-0.069
235.70	-0.072
235.91	-0.076
236.13	-0.073
236.34	-0.072
236.56	-0.070
236.77	-0.073
236.98	-0.071
237.20	-0.071
237.41	-0.071
237.62	-0.074
237.84	-0.071
238.05	-0.070
238.26	-0.065
238.48	-0.068
238.69	-0.068
238.91	-0.069
239.12	-0.068
239.33	-0.069
239.55	-0.067
239.76	-0.065
239.97	-0.066
240.19	-0.065
240.40	-0.065
240.61	-0.068
240.83	-0.067
241.04	-0.067
241.25	-0.069
241.47	-0.070
241.68	-0.068
241.89	-0.069
242.11	-0.069
242.32	-0.069
242.53	-0.070
242.75	-0.068
242.96	-0.068
243.17	-0.068
243.39	-0.067
243.60	-0.065
243.81	-0.064
244.03	-0.063
244.24	-0.063
244.45	-0.061
244.67	-0.061
244.88	-0.061
245.09	-0.062
245.31	-0.062
245.52	-0.062
245.73	-0.062
245.95	-0.062
246.16	-0.063
246.37	-0.064
246.59	-0.064
246.80	-0.064
247.01	-0.065
247.23	-0.065
247.44	-0.064
247.65	-0.063
247.87	-0.063
248.08	-0.063
248.29	-0.063
248.51	-0.063
248.72	-0.062
248.93	-0.062
249.15	-0.062
249.36	-0.062
249.57	-0.061
249.78	-0.062
250.00	-0.061
250.21	-0.061
250.42	-0.062
250.64	-0.061
250.85	-0.061
251.06	-0.062
251.28	-0.062
251.49	-0.063
251.70	-0.063
251.92	-0.064
252.13	-0.063
252.34	-0.064
252.55	-0.064
252.77	-0.063
252.98	-0.064
253.19	-0.064
253.41	-0.063
253.62	-0.063
253.83	-0.063
254.05	-0.062
254.26	-0.062
254.47	-0.062
254.68	-0.062
254.90	-0.062
255.11	-0.062
255.32	-0.062
255.54	-0.062
255.75	-0.063
255.96	-0.064
256.17	-0.064
256.39	-0.064
256.60	-0.065
256.81	-0.065
257.03	-0.065
257.24	-0.065
257.45	-0.066
257.66	-0.066
257.88	-0.067
258.09	-0.066
258.30	-0.066
258.51	-0.066
258.73	-0.066
258.94	-0.066
259.15	-0.066
259.37	-0.066
259.58	-0.066
259.79	-0.066
260.00	-0.066
260.22	-0.066
260.43	-0.066
260.64	-0.067
260.85	-0.067
261.07	-0.067
261.28	-0.067
261.49	-0.067
261.71	-0.067
261.92	-0.067
262.13	-0.067
262.34	-0.068
262.56	-0.068
262.77	-0.067
262.98	-0.067
263.19	-0.067
263.41	-0.067
263.62	-0.066
263.83	-0.066
264.04	-0.067
264.26	-0.067
264.47	-0.066
264.68	-0.066
264.89	-0.065
265.11	-0.065
265.32	-0.066
265.53	-0.066
265.74	-0.066
265.96	-0.067
266.17	-0.067
266.38	-0.067
266.59	-0.068
266.81	-0.068
267.02	-0.068
267.23	-0.069
267.44	-0.069
267.65	-0.069
267.87	-0.069
268.08	-0.068
268.29	-0.068
268.50	-0.068
268.72	-0.068
268.93	-0.068
269.14	-0.067
269.35	-0.067
269.57	-0.066
269.78	-0.066
269.99	-0.067
270.20	-0.067
270.41	-0.067
270.63	-0.066
270.84	-0.066
271.05	-0.065
271.26	-0.065
271.48	-0.065
271.69	-0.065
271.90	-0.065
272.11	-0.064
272.32	-0.064
272.54	-0.063
272.75	-0.063
272.96	-0.063
273.17	-0.063
273.39	-0.063
273.60	-0.063
273.81	-0.063
274.02	-0.063
274.23	-0.063
274.45	-0.062
274.66	-0.062
274.87	-0.062
275.08	-0.062
275.29	-0.062
275.51	-0.061
275.72	-0.061
275.93	-0.061
276.14	-0.060
276.35	-0.060
276.57	-0.059
276.78	-0.059
276.99	-0.058
277.20	-0.058
277.41	-0.058
277.63	-0.057
277.84	-0.057
278.05	-0.057
278.26	-0.057
278.47	-0.057
278.69	-0.057
278.90	-0.056
279.11	-0.056
279.32	-0.055
279.53	-0.055
279.74	-0.055
279.96	-0.054
280.17	-0.054
280.38	-0.053
280.59	-0.052
280.80	-0.052
281.02	-0.051
281.23	-0.051
281.44	-0.051
281.65	-0.051
281.86	-0.050
282.07	-0.050
282.29	-0.050
282.50	-0.049
282.71	-0.049
282.92	-0.049
283.13	-0.049
283.35	-0.048
283.56	-0.048
283.77	-0.048
283.98	-0.047
284.19	-0.047
284.40	-0.047
284.62	-0.046
284.83	-0.046
285.04	-0.045
285.25	-0.044
285.46	-0.044
285.67	-0.044
285.88	-0.044
286.10	-0.044
286.31	-0.043
286.52	-0.043
286.73	-0.042
286.94	-0.041
287.15	-0.041
287.37	-0.041
287.58	-0.041
287.79	-0.040
288.00	-0.040
288.21	-0.040
288.42	-0.040
288.63	-0.039
288.85	-0.039
289.06	-0.039
289.27	-0.039
289.48	-0.038
289.69	-0.038
289.90	-0.038
290.11	-0.038
290.33	-0.037
290.54	-0.037
290.75	-0.036
290.96	-0.036
291.17	-0.036
291.38	-0.035
291.59	-0.036
291.81	-0.035
292.02	-0.035
292.23	-0.035
292.44	-0.035
292.65	-0.034
292.86	-0.034
293.07	-0.034
293.28	-0.034
293.50	-0.034
293.71	-0.034
293.92	-0.033
294.13	-0.033
294.34	-0.033
294.55	-0.033
294.76	-0.033
294.97	-0.033
295.19	-0.032
295.40	-0.032
295.61	-0.032
295.82	-0.032
296.03	-0.032
296.24	-0.032
296.45	-0.031
296.66	-0.031
296.87	-0.031
297.09	-0.031
297.30	-0.031
297.51	-0.031
297.72	-0.031
297.93	-0.030
298.14	-0.030
298.35	-0.030
298.56	-0.030
298.77	-0.030
298.99	-0.030
299.20	-0.030
299.41	-0.030
299.62	-0.030
299.83	-0.030
300.04	-0.030
300.25	-0.030
300.46	-0.029
300.67	-0.029
300.88	-0.029
301.10	-0.029
301.31	-0.029
301.52	-0.029
301.73	-0.029
301.94	-0.029
302.15	-0.029
302.36	-0.029
302.57	-0.029
302.78	-0.029
302.99	-0.028
303.20	-0.028
303.41	-0.028
303.63	-0.028
303.84	-0.028
304.05	-0.028
304.26	-0.028
304.47	-0.028
304.68	-0.028
304.89	-0.028
305.10	-0.028
305.31	-0.027
305.52	-0.027
305.73	-0.027
305.94	-0.027
306.15	-0.027
306.37	-0.027
306.58	-0.027
306.79	-0.026
307.00	-0.026
307.21	-0.027
307.42	-0.027
307.63	-0.027
307.84	-0.027
308.05	-0.027
308.26	-0.027
308.47	-0.027
308.68	-0.027
308.89	-0.026
309.10	-0.026
309.31	-0.026
309.52	-0.026
309.73	-0.026
309.95	-0.026
310.16	-0.025
310.37	-0.025
310.58	-0.025
310.79	-0.025
311.00	-0.025
311.21	-0.025
311.42	-0.025
311.63	-0.025
311.84	-0.025
312.05	-0.025
312.26	-0.025
312.47	-0.025
312.68	-0.025
312.89	-0.025
313.10	-0.025
313.31	-0.025
313.52	-0.025
313.73	-0.025
313.94	-0.025
314.15	-0.025
314.36	-0.025
314.57	-0.025
314.78	-0.024
314.99	-0.024
315.21	-0.024
315.42	-0.024
315.63	-0.024
315.84	-0.024
316.05	-0.024
316.26	-0.024
316.47	-0.024
316.68	-0.024
316.89	-0.024
317.10	-0.024
317.31	-0.024
317.52	-0.024
317.73	-0.024
317.94	-0.024
318.15	-0.024
318.36	-0.024
318.57	-0.024
318.78	-0.024
318.99	-0.024
319.20	-0.024
319.41	-0.023
319.62	-0.023
319.83	-0.023
320.04	-0.023
320.25	-0.023
320.46	-0.023
320.67	-0.024
320.88	-0.023
321.09	-0.023
321.30	-0.023
321.51	-0.023
321.72	-0.024
321.93	-0.023
322.14	-0.023
322.35	-0.023
322.56	-0.023
322.77	-0.023
322.98	-0.023
323.19	-0.023
323.40	-0.023
323.61	-0.023
323.82	-0.023
324.03	-0.022
324.24	-0.023
324.45	-0.022
324.66	-0.022
324.87	-0.022
325.08	-0.022
325.29	-0.022
325.50	-0.022
325.71	-0.022
325.92	-0.022
326.13	-0.022
326.34	-0.022
326.55	-0.022
326.76	-0.022
326.97	-0.022
327.18	-0.022
327.39	-0.022
327.60	-0.022
327.80	-0.022
328.01	-0.022
328.22	-0.022
328.43	-0.022
328.64	-0.022
328.85	-0.022
329.06	-0.022
329.27	-0.022
329.48	-0.022
329.69	-0.022
329.90	-0.022
330.11	-0.022
330.32	-0.022
330.53	-0.022
330.74	-0.022
330.95	-0.022
331.16	-0.022
331.37	-0.022
331.58	-0.021
331.79	-0.021
332.00	-0.021
332.21	-0.021
332.42	-0.021
332.63	-0.021
332.83	-0.021
333.04	-0.021
333.25	-0.021
333.46	-0.021
333.67	-0.021
333.88	-0.021
334.09	-0.021
334.30	-0.021
334.51	-0.021
334.72	-0.021
334.93	-0.021
335.14	-0.021
335.35	-0.021
335.56	-0.021
335.77	-0.021
335.98	-0.021
336.18	-0.021
336.39	-0.021
336.60	-0.021
336.81	-0.021
337.02	-0.021
337.23	-0.021
337.44	-0.021
337.65	-0.021
337.86	-0.021
338.07	-0.021
338.28	-0.021
338.49	-0.021
338.70	-0.021
338.91	-0.021
339.11	-0.021
339.32	-0.021
339.53	-0.021
339.74	-0.021
339.95	-0.021
340.16	-0.021
340.37	-0.021
340.58	-0.021
340.79	-0.021
341.00	-0.021
341.21	-0.021
341.41	-0.021
341.62	-0.021
341.83	-0.021
342.04	-0.020
342.25	-0.021
342.46	-0.021
342.67	-0.021
342.88	-0.021
343.09	-0.020
343.30	-0.020
343.50	-0.020
343.71	-0.020
343.92	-0.020
344.13	-0.020
344.34	-0.021
344.55	-0.021
344.76	-0.020
344.97	-0.020
345.18	-0.020
345.38	-0.020
345.59	-0.020
345.80	-0.020
346.01	-0.020
346.22	-0.020
346.43	-0.020
346.64	-0.020
346.85	-0.020
347.06	-0.020
347.26	-0.020
347.47	-0.020
347.68	-0.020
347.89	-0.020
348.10	-0.020
348.31	-0.020
348.52	-0.020
348.73	-0.020
348.93	-0.020
349.14	-0.020
349.35	-0.020
349.56	-0.020
349.77	-0.020
349.98	-0.020
350.19	-0.020
350.39	-0.020
350.60	-0.020
350.81	-0.020
351.02	-0.020
351.23	-0.020
351.44	-0.020
351.65	-0.020
351.86	-0.020
352.06	-0.020
352.27	-0.020
352.48	-0.020
352.69	-0.020
352.90	-0.020
353.11	-0.020
353.31	-0.020
353.52	-0.019
353.73	-0.019
353.94	-0.019
354.15	-0.019
354.36	-0.020
354.57	-0.020
354.77	-0.019
354.98	-0.019
355.19	-0.019
355.40	-0.019
355.61	-0.019
355.82	-0.019
356.02	-0.019
356.23	-0.019
356.44	-0.019
356.65	-0.019
356.86	-0.019
357.07	-0.019
357.27	-0.019
357.48	-0.019
357.69	-0.019
357.90	-0.019
358.11	-0.019
358.32	-0.019
358.52	-0.019
358.73	-0.019
358.94	-0.019
359.15	-0.019
359.36	-0.019
359.56	-0.019
359.77	-0.019
359.98	-0.019
360.19	-0.019
360.40	-0.019
360.61	-0.019
360.81	-0.019
361.02	-0.019
361.23	-0.019
361.44	-0.018
361.65	-0.018
361.85	-0.018
362.06	-0.018
362.27	-0.018
362.48	-0.018
362.69	-0.018
362.89	-0.018
363.10	-0.019
363.31	-0.019
363.52	-0.019
363.73	-0.019
363.93	-0.019
364.14	-0.019
364.35	-0.019
364.56	-0.019
364.77	-0.018
364.97	-0.018
365.18	-0.018
365.39	-0.018
365.60	-0.018
365.81	-0.018
366.01	-0.018
366.22	-0.018
366.43	-0.018
366.64	-0.018
366.84	-0.018
367.05	-0.018
367.26	-0.018
367.47	-0.018
367.68	-0.018
367.88	-0.018
368.09	-0.018
368.30	-0.018
368.51	-0.018
368.71	-0.018
368.92	-0.018
369.13	-0.018
369.34	-0.018
369.55	-0.018
369.75	-0.018
369.96	-0.018
370.17	-0.018
370.38	-0.018
370.58	-0.018
370.79	-0.018
371.00	-0.018
371.21	-0.018
371.41	-0.018
371.62	-0.018
371.83	-0.018
372.04	-0.018
372.24	-0.018
372.45	-0.018
372.66	-0.018
372.87	-0.017
373.07	-0.018
373.28	-0.018
373.49	-0.018
373.70	-0.018
373.90	-0.018
374.11	-0.018
374.32	-0.018
374.53	-0.017
374.73	-0.017
374.94	-0.017
375.15	-0.017
375.36	-0.017
375.56	-0.017
375.77	-0.017
375.98	-0.017
376.19	-0.017
376.39	-0.017
376.60	-0.017
376.81	-0.017
377.02	-0.017
377.22	-0.017
377.43	-0.017
377.64	-0.017
377.84	-0.017
378.05	-0.017
378.26	-0.017
378.47	-0.017
378.67	-0.017
378.88	-0.017
379.09	-0.017
379.30	-0.017
379.50	-0.017
379.71	-0.017
379.92	-0.017
380.12	-0.017
380.33	-0.017
380.54	-0.017
380.75	-0.017
380.95	-0.017
381.16	-0.017
381.37	-0.017
381.57	-0.017
381.78	-0.017
381.99	-0.017
382.20	-0.017
382.40	-0.017
382.61	-0.017
382.82	-0.017
383.02	-0.017
383.23	-0.016
383.44	-0.016
383.64	-0.016
383.85	-0.016
384.06	-0.017
384.27	-0.017
384.47	-0.017
384.68	-0.017
384.89	-0.017
385.09	-0.017
385.30	-0.017
385.51	-0.017
385.71	-0.017
385.92	-0.017
386.13	-0.017
386.33	-0.017
386.54	-0.017
386.75	-0.017
386.95	-0.017
387.16	-0.017
387.37	-0.017
387.58	-0.017
387.78	-0.017
387.99	-0.017
388.20	-0.017
388.40	-0.017
388.61	-0.017
388.82	-0.017
389.02	-0.017
389.23	-0.017
389.44	-0.017
389.64	-0.017
389.85	-0.017
390.06	-0.017
390.26	-0.017
390.47	-0.017
390.68	-0.017
390.88	-0.017
391.09	-0.017
391.30	-0.017
391.50	-0.017
391.71	-0.017
391.92	-0.017
392.12	-0.017
392.33	-0.017
392.53	-0.016
392.74	-0.017
392.95	-0.017
393.15	-0.016
393.36	-0.016
393.57	-0.016
393.77	-0.016
393.98	-0.016
394.19	-0.016
394.39	-0.016
394.60	-0.016
394.81	-0.016
395.01	-0.017
395.22	-0.017
395.43	-0.017
395.63	-0.016
395.84	-0.016
396.04	-0.017
396.25	-0.017
396.46	-0.016
396.66	-0.016
396.87	-0.016
397.08	-0.016
397.28	-0.016
397.49	-0.016
397.69	-0.016
397.90	-0.016
398.11	-0.016
398.31	-0.016
398.52	-0.016
398.73	-0.016
398.93	-0.016
399.14	-0.016
399.34	-0.016
399.55	-0.016
399.76	-0.016
399.96	-0.016
400.17	-0.016
400.37	-0.016
400.58	-0.016
400.79	-0.016
400.99	-0.016
401.20	-0.016
401.41	-0.016
401.61	-0.016
401.82	-0.016
402.02	-0.016
402.23	-0.016
402.44	-0.016
402.64	-0.016
402.85	-0.016
403.05	-0.016
403.26	-0.016
403.47	-0.016
403.67	-0.016
403.88	-0.016
404.08	-0.016
404.29	-0.016
404.50	-0.016
404.70	-0.016
404.91	-0.016
405.11	-0.016
405.32	-0.016
405.52	-0.016
405.73	-0.016
405.94	-0.016
406.14	-0.016
406.35	-0.016
406.55	-0.016
406.76	-0.016
406.97	-0.016
407.17	-0.016
407.38	-0.016
407.58	-0.016
407.79	-0.016
407.99	-0.016
408.20	-0.016
408.41	-0.016
408.61	-0.016
408.82	-0.016
409.02	-0.016
409.23	-0.016
409.43	-0.016
409.64	-0.016
409.84	-0.015
410.05	-0.016
410.26	-0.016
410.46	-0.016
410.67	-0.016
410.87	-0.016
411.08	-0.016
411.28	-0.016
411.49	-0.016
411.69	-0.016
411.90	-0.016
412.11	-0.016
412.31	-0.016
412.52	-0.016
412.72	-0.016
412.93	-0.016
413.13	-0.016
413.34	-0.016
413.54	-0.015
413.75	-0.015
413.95	-0.015
414.16	-0.015
414.37	-0.015
414.57	-0.015
414.78	-0.015
414.98	-0.015
415.19	-0.015
415.39	-0.015
415.60	-0.015
415.80	-0.015
416.01	-0.016
416.21	-0.016
416.42	-0.016
416.62	-0.016
416.83	-0.016
417.03	-0.015
417.24	-0.015
417.44	-0.015
417.65	-0.015
417.86	-0.015
418.06	-0.015
418.27	-0.015
418.47	-0.015
418.68	-0.015
418.88	-0.015
419.09	-0.015
419.29	-0.015
419.50	-0.015
419.70	-0.015
419.91	-0.015
420.11	-0.015
420.32	-0.015
420.52	-0.015
420.73	-0.015
420.93	-0.015
421.14	-0.015
421.34	-0.015
421.55	-0.015
421.75	-0.015
421.96	-0.015
422.16	-0.015
422.37	-0.015
422.57	-0.015
422.78	-0.015
422.98	-0.015
423.19	-0.015
423.39	-0.015
423.60	-0.015
423.80	-0.015
424.01	-0.015
424.21	-0.015
424.42	-0.015
424.62	-0.015
424.83	-0.015
425.03	-0.015
425.23	-0.015
425.44	-0.015
425.64	-0.015
425.85	-0.015
426.05	-0.015
426.26	-0.015
426.46	-0.015
426.67	-0.015
426.87	-0.016
427.08	-0.015
427.28	-0.015
427.49	-0.015
427.69	-0.015
427.90	-0.015
428.10	-0.015
428.31	-0.015
428.51	-0.015
428.71	-0.015
428.92	-0.015
429.12	-0.015
429.33	-0.015
429.53	-0.015
429.74	-0.015
429.94	-0.015
430.15	-0.015
430.35	-0.015
430.56	-0.015
430.76	-0.015
430.96	-0.015
431.17	-0.015
431.37	-0.015
431.58	-0.015
431.78	-0.015
431.99	-0.015
432.19	-0.015
432.40	-0.015
432.60	-0.015
432.80	-0.015
433.01	-0.015
433.21	-0.015
433.42	-0.015
433.62	-0.015
433.83	-0.015
434.03	-0.015
434.23	-0.015
434.44	-0.015
434.64	-0.015
434.85	-0.015
435.05	-0.015
435.26	-0.015
435.46	-0.015
435.66	-0.015
435.87	-0.015
436.07	-0.014
436.28	-0.014
436.48	-0.014
436.69	-0.014
436.89	-0.014
437.09	-0.014
437.30	-0.014
437.50	-0.014
437.71	-0.014
437.91	-0.014
438.11	-0.015
438.32	-0.015
438.52	-0.015
438.73	-0.015
438.93	-0.014
439.13	-0.014
439.34	-0.014
439.54	-0.014
439.75	-0.014
439.95	-0.014
440.15	-0.014
440.36	-0.014
440.56	-0.014
440.77	-0.014
440.97	-0.014
441.17	-0.014
441.38	-0.014
441.58	-0.014
441.79	-0.014
441.99	-0.015
442.19	-0.015
442.40	-0.015
442.60	-0.015
442.81	-0.015
443.01	-0.014
443.21	-0.015
443.42	-0.015
443.62	-0.015
443.82	-0.015
444.03	-0.015
444.23	-0.015
444.44	-0.015
444.64	-0.015
444.84	-0.014
445.05	-0.014
445.25	-0.014
445.45	-0.014
445.66	-0.014
445.86	-0.014
446.06	-0.014
446.27	-0.014
446.47	-0.014
446.68	-0.014
446.88	-0.014
447.08	-0.015
447.29	-0.015
447.49	-0.015
447.69	-0.015
447.90	-0.015
448.10	-0.015
448.30	-0.015
448.51	-0.015
448.71	-0.015
448.91	-0.015
449.12	-0.015
449.32	-0.015
449.52	-0.015
449.73	-0.015
449.93	-0.015
450.14	-0.015
450.34	-0.015
450.54	-0.014
450.75	-0.014
450.95	-0.014
451.15	-0.014
451.36	-0.014
451.56	-0.014
451.76	-0.014
451.97	-0.014
452.17	-0.014
452.37	-0.014
452.58	-0.014
452.78	-0.014
452.98	-0.014
453.19	-0.014
453.39	-0.014
453.59	-0.014
453.79	-0.014
454.00	-0.014
454.20	-0.014
454.40	-0.014
454.61	-0.014
454.81	-0.014
455.01	-0.014
455.22	-0.014
455.42	-0.014
455.62	-0.014
455.83	-0.014
456.03	-0.014
456.23	-0.014
456.44	-0.014
456.64	-0.014
456.84	-0.014
457.04	-0.014
457.25	-0.014
457.45	-0.014
457.65	-0.014
457.86	-0.014
458.06	-0.014
458.26	-0.014
458.47	-0.014
458.67	-0.014
458.87	-0.014
459.07	-0.014
459.28	-0.014
459.48	-0.014
459.68	-0.014
459.89	-0.014
460.09	-0.014
460.29	-0.014
460.49	-0.014
460.70	-0.014
460.90	-0.014
461.10	-0.014
461.31	-0.014
461.51	-0.014
461.71	-0.014
461.91	-0.014
462.12	-0.014
462.32	-0.014
462.52	-0.014
462.72	-0.014
462.93	-0.014
463.13	-0.014
463.33	-0.014
463.53	-0.014
463.74	-0.014
463.94	-0.014
464.14	-0.014
464.35	-0.014
464.55	-0.014
464.75	-0.014
464.95	-0.014
465.16	-0.013
465.36	-0.013
465.56	-0.013
465.76	-0.014
465.97	-0.014
466.17	-0.014
466.37	-0.014
466.57	-0.014
466.78	-0.014
466.98	-0.014
467.18	-0.014
467.38	-0.014
467.59	-0.014
467.79	-0.014
467.99	-0.014
468.19	-0.014
468.39	-0.014
468.60	-0.014
468.80	-0.014
469.00	-0.014
469.20	-0.013
469.41	-0.014
469.61	-0.014
469.81	-0.014
470.01	-0.014
470.22	-0.014
470.42	-0.014
470.62	-0.014
470.82	-0.014
471.02	-0.014
471.23	-0.014
471.43	-0.014
471.63	-0.014
471.83	-0.014
472.04	-0.014
472.24	-0.013
472.44	-0.013
472.64	-0.013
472.84	-0.013
473.05	-0.014
473.25	-0.013
473.45	-0.013
473.65	-0.013
473.85	-0.013
474.06	-0.013
474.26	-0.014
474.46	-0.014
474.66	-0.014
474.86	-0.014
475.07	-0.014
475.27	-0.014
475.47	-0.014
475.67	-0.014
475.87	-0.014
476.08	-0.014
476.28	-0.014
476.48	-0.013
476.68	-0.013
476.88	-0.013
477.09	-0.013
477.29	-0.013
477.49	-0.013
477.69	-0.013
477.89	-0.013
478.09	-0.013
478.30	-0.013
478.50	-0.013
478.70	-0.013
478.90	-0.013
479.10	-0.013
479.31	-0.013
479.51	-0.013
479.71	-0.013
479.91	-0.013
480.11	-0.013
480.31	-0.013
480.52	-0.013
480.72	-0.013
480.92	-0.013
481.12	-0.013
481.32	-0.013
481.52	-0.013
481.72	-0.013
481.93	-0.013
482.13	-0.013
482.33	-0.013
482.53	-0.013
482.73	-0.013
482.93	-0.013
483.14	-0.013
483.34	-0.013
483.54	-0.013
483.74	-0.013
483.94	-0.013
484.14	-0.013
484.34	-0.013
484.55	-0.013
484.75	-0.013
484.95	-0.013
485.15	-0.013
485.35	-0.013
485.55	-0.013
485.75	-0.013
485.96	-0.013
486.16	-0.013
486.36	-0.013
486.56	-0.013
486.76	-0.013
486.96	-0.013
487.16	-0.013
487.36	-0.013
487.57	-0.013
487.77	-0.013
487.97	-0.013
488.17	-0.013
488.37	-0.013
488.57	-0.013
488.77	-0.013
488.97	-0.013
489.18	-0.013
489.38	-0.013
489.58	-0.013
489.78	-0.013
489.98	-0.013
490.18	-0.013
490.38	-0.013
490.58	-0.013
490.78	-0.013
490.98	-0.013
491.19	-0.013
491.39	-0.013
491.59	-0.013
491.79	-0.013
491.99	-0.013
492.19	-0.013
492.39	-0.013
492.59	-0.013
492.79	-0.013
492.99	-0.013
493.20	-0.013
493.40	-0.013
493.60	-0.013
493.80	-0.013
494.00	-0.012
494.20	-0.013
494.40	-0.013
494.60	-0.012
494.80	-0.013
495.00	-0.013
495.20	-0.013
495.40	-0.013
495.61	-0.013
495.81	-0.013
496.01	-0.013
496.21	-0.013
496.41	-0.013
496.61	-0.013
496.81	-0.013
497.01	-0.013
497.21	-0.013
497.41	-0.013
497.61	-0.013
497.81	-0.013
498.01	-0.013
498.21	-0.013
498.41	-0.013
498.61	-0.013
498.82	-0.013
499.02	-0.013
499.22	-0.013
499.42	-0.013
499.62	-0.013
499.82	-0.013
500.02	-0.013
500.22	-0.013
500.42	-0.013
500.62	-0.013
500.82	-0.013
501.02	-0.013
501.22	-0.013
501.42	-0.013
501.62	-0.013
501.82	-0.013
502.02	-0.013
502.22	-0.013
502.42	-0.013
502.62	-0.013
502.82	-0.013
503.02	-0.013
503.22	-0.013
503.42	-0.013
503.63	-0.013
503.83	-0.013
504.03	-0.013
504.23	-0.013
504.43	-0.013
504.63	-0.013
504.83	-0.013
505.03	-0.013
505.23	-0.013
505.43	-0.013
505.63	-0.013
505.83	-0.013
506.03	-0.013
506.23	-0.013
506.43	-0.013
506.63	-0.013
506.83	-0.013
507.03	-0.013
507.23	-0.013
507.43	-0.013
507.63	-0.013
507.83	-0.013
508.03	-0.013
508.23	-0.014
508.43	-0.014
508.63	-0.014
508.83	-0.013
509.03	-0.013
509.23	-0.013
509.43	-0.013
509.63	-0.013
509.83	-0.013
510.03	-0.013
510.23	-0.013
510.43	-0.013
510.63	-0.013
510.83	-0.013
511.03	-0.013
511.23	-0.013
511.43	-0.013
511.63	-0.013
511.83	-0.013
512.03	-0.013
512.22	-0.013
512.42	-0.013
512.62	-0.013
512.82	-0.013
513.02	-0.013
513.22	-0.013
513.42	-0.013
513.62	-0.013
513.82	-0.013
514.02	-0.013
514.22	-0.013
514.42	-0.013
514.62	-0.013
514.82	-0.013
515.02	-0.013
515.22	-0.013
515.42	-0.013
515.62	-0.013
515.82	-0.013
516.02	-0.013
516.22	-0.013
516.42	-0.013
516.62	-0.013
516.82	-0.013
517.01	-0.013
517.21	-0.013
517.41	-0.013
517.61	-0.013
517.81	-0.014
518.01	-0.014
518.21	-0.014
518.41	-0.014
518.61	-0.014
518.81	-0.013
519.01	-0.013
519.21	-0.013
519.41	-0.013
519.61	-0.013
519.81	-0.013
520.00	-0.013
520.20	-0.013
520.40	-0.013
520.60	-0.013
520.80	-0.013
521.00	-0.013
521.20	-0.013
521.40	-0.013
521.60	-0.013
521.80	-0.013
522.00	-0.013
522.20	-0.013
522.39	-0.013
522.59	-0.013
522.79	-0.013
522.99	-0.013
523.19	-0.013
523.39	-0.013
523.59	-0.013
523.79	-0.013
523.99	-0.014
524.19	-0.014
524.38	-0.014
524.58	-0.014
524.78	-0.014
524.98	-0.013
525.18	-0.013
525.38	-0.013
525.58	-0.013
525.78	-0.013
525.98	-0.013
526.18	-0.013
526.37	-0.013
526.57	-0.013
526.77	-0.013
526.97	-0.013
527.17	-0.013
527.37	-0.013
527.57	-0.013
527.77	-0.013
527.96	-0.013
528.16	-0.013
528.36	-0.013
528.56	-0.014
528.76	-0.014
528.96	-0.014
529.16	-0.014
529.36	-0.014
529.55	-0.013
529.75	-0.013
529.95	-0.013
530.15	-0.013
530.35	-0.013
530.55	-0.013
530.75	-0.013
530.94	-0.013
531.14	-0.013
531.34	-0.013
531.54	-0.013
531.74	-0.013
531.94	-0.013
532.13	-0.014
532.33	-0.013
532.53	-0.014
532.73	-0.014
532.93	-0.014
533.13	-0.014
533.33	-0.014
533.52	-0.014
533.72	-0.014
533.92	-0.014
534.12	-0.013
534.32	-0.013
534.52	-0.013
534.71	-0.013
534.91	-0.013
535.11	-0.013
535.31	-0.013
535.51	-0.013
535.71	-0.013
535.90	-0.013
536.10	-0.013
536.30	-0.013
536.50	-0.013
536.70	-0.013
536.89	-0.013
537.09	-0.013
537.29	-0.013
537.49	-0.013
537.69	-0.013
537.89	-0.013
538.08	-0.013
538.28	-0.013
538.48	-0.013
538.68	-0.013
538.88	-0.013
539.07	-0.013
539.27	-0.013
539.47	-0.013
539.67	-0.013
539.87	-0.013
540.06	-0.013
540.26	-0.013
540.46	-0.013
540.66	-0.013
540.86	-0.013
541.05	-0.013
541.25	-0.013
541.45	-0.013
541.65	-0.013
541.84	-0.013
542.04	-0.013
542.24	-0.013
542.44	-0.013
542.64	-0.013
542.83	-0.013
543.03	-0.013
543.23	-0.013
543.43	-0.013
543.62	-0.013
543.82	-0.013
544.02	-0.013
544.22	-0.013
544.42	-0.013
544.61	-0.013
544.81	-0.013
545.01	-0.013
545.21	-0.013
545.40	-0.013
545.60	-0.013
545.80	-0.013
546.00	-0.013
546.19	-0.013
546.39	-0.013
546.59	-0.013
546.79	-0.013
546.98	-0.013
547.18	-0.013
547.38	-0.013
547.58	-0.013
547.77	-0.013
547.97	-0.013
548.17	-0.013
548.37	-0.013
548.56	-0.013
548.76	-0.013
548.96	-0.013
549.16	-0.013
549.35	-0.013
549.55	-0.013
549.75	-0.013
549.95	-0.013
550.14	-0.013
550.34	-0.013
550.54	-0.013
550.73	-0.013
550.93	-0.013
551.13	-0.013
551.33	-0.013
551.52	-0.013
551.72	-0.013
551.92	-0.013
552.12	-0.013
552.31	-0.013
552.51	-0.013
552.71	-0.013
552.90	-0.013
553.10	-0.013
553.30	-0.013
553.50	-0.013
553.69	-0.013
553.89	-0.013
554.09	-0.013
554.28	-0.013
554.48	-0.013
554.68	-0.013
554.87	-0.013
555.07	-0.013
555.27	-0.014
555.47	-0.013
555.66	-0.013
555.86	-0.013
556.06	-0.014
556.25	-0.014
556.45	-0.014
556.65	-0.014
556.84	-0.013
557.04	-0.013
557.24	-0.013
557.43	-0.013
557.63	-0.013
557.83	-0.013
558.02	-0.013
558.22	-0.013
558.42	-0.013
558.61	-0.013
558.81	-0.013
559.01	-0.013
559.21	-0.013
559.40	-0.013
559.60	-0.013
559.80	-0.013
559.99	-0.013
560.19	-0.013
560.39	-0.013
560.58	-0.014
560.78	-0.013
560.97	-0.014
561.17	-0.014
561.37	-0.014
561.56	-0.014
561.76	-0.014
561.96	-0.014
562.15	-0.014
562.35	-0.014
562.55	-0.014
562.74	-0.013
562.94	-0.013
563.14	-0.013
563.33	-0.013
563.53	-0.013
563.73	-0.013
563.92	-0.013
564.12	-0.013
564.31	-0.013
564.51	-0.013
564.71	-0.013
564.90	-0.014
565.10	-0.014
565.30	-0.014
565.49	-0.014
565.69	-0.014
565.89	-0.014
566.08	-0.014
566.28	-0.014
566.47	-0.014
566.67	-0.014
566.87	-0.013
567.06	-0.013
567.26	-0.013
567.46	-0.013
567.65	-0.013
567.85	-0.013
568.04	-0.013
568.24	-0.013
568.44	-0.013
568.63	-0.013
568.83	-0.013
569.02	-0.013
569.22	-0.013
569.42	-0.013
569.61	-0.012
569.81	-0.013
570.00	-0.013
570.20	-0.013
570.40	-0.013
570.59	-0.013
570.79	-0.013
570.98	-0.013
571.18	-0.013
571.38	-0.013
571.57	-0.013
571.77	-0.013
571.96	-0.013
572.16	-0.013
572.35	-0.013
572.55	-0.013
572.75	-0.013
572.94	-0.013
573.14	-0.013
573.33	-0.013
573.53	-0.013
573.73	-0.013
573.92	-0.013
574.12	-0.013
574.31	-0.012
574.51	-0.013
574.70	-0.012
574.90	-0.012
575.09	-0.012
575.29	-0.012
575.49	-0.012
575.68	-0.012
575.88	-0.011
576.07	-0.011
576.27	-0.011
576.46	-0.010
576.66	-0.010
576.86	-0.010
577.05	-0.009
577.25	-0.009
577.44	-0.009
577.64	-0.009
577.83	-0.009
578.03	-0.009
578.22	-0.009
578.42	-0.008
578.61	-0.007
578.81	-0.007
579.00	-0.006
579.20	-0.006
579.40	-0.005
579.59	-0.005
579.79	-0.005
579.98	-0.004
580.18	-0.004
580.37	-0.004
580.57	-0.004
580.76	-0.004
580.96	-0.005
581.15	-0.005
581.35	-0.005
581.54	-0.005
581.74	-0.005
581.93	-0.006
582.13	-0.006
582.32	-0.006
582.52	-0.006
582.71	-0.006
582.91	-0.006
583.10	-0.007
583.30	-0.007
583.49	-0.008
583.69	-0.008
583.88	-0.009
584.08	-0.009
584.27	-0.010
584.47	-0.011
584.66	-0.011
584.86	-0.011
585.05	-0.012
585.25	-0.012
585.44	-0.012
585.64	-0.012
585.83	-0.011
586.03	-0.012
586.22	-0.012
586.42	-0.012
586.61	-0.012
586.81	-0.012
587.00	-0.012
587.20	-0.012
587.39	-0.012
587.59	-0.013
587.78	-0.013
587.98	-0.013
588.17	-0.013
588.37	-0.013
588.56	-0.013
588.76	-0.013
588.95	-0.013
589.15	-0.013
589.34	-0.013
589.54	-0.013
589.73	-0.013
589.92	-0.013
590.12	-0.013
590.31	-0.013
590.51	-0.013
590.70	-0.013
590.90	-0.013
591.09	-0.013
591.29	-0.013
591.48	-0.013
591.68	-0.013
591.87	-0.013
592.06	-0.013
592.26	-0.013
592.45	-0.013
592.65	-0.013
592.84	-0.013
593.04	-0.013
593.23	-0.013
593.43	-0.013
593.62	-0.013
593.81	-0.013
594.01	-0.013
594.20	-0.013
594.40	-0.013
594.59	-0.013
594.79	-0.013
594.98	-0.013
595.17	-0.013
595.37	-0.013
595.56	-0.013
595.76	-0.013
595.95	-0.013
596.14	-0.013
596.34	-0.013
596.53	-0.013
596.73	-0.013
596.92	-0.013
597.12	-0.013
597.31	-0.013
597.50	-0.013
597.70	-0.013
597.89	-0.013
598.09	-0.013
598.28	-0.013
598.47	-0.013
598.67	-0.013
598.86	-0.013
599.06	-0.013
599.25	-0.013
599.44	-0.013
599.64	-0.013
599.83	-0.013
600.03	-0.013
600.22	-0.013
600.41	-0.014
600.61	-0.014
600.80	-0.014
601.00	-0.014
601.19	-0.014
601.38	-0.014
601.58	-0.014
601.77	-0.014
601.96	-0.014
602.16	-0.014
602.35	-0.014
602.55	-0.014
602.74	-0.014
602.93	-0.014
603.13	-0.014
603.32	-0.014
603.51	-0.013
603.71	-0.013
603.90	-0.013
604.09	-0.013
604.29	-0.013
604.48	-0.013
604.68	-0.013
604.87	-0.013
605.06	-0.013
605.26	-0.013
605.45	-0.013
605.64	-0.013
605.84	-0.013
606.03	-0.013
606.22	-0.013
606.42	-0.013
606.61	-0.013
606.80	-0.013
607.00	-0.013
607.19	-0.013
607.38	-0.013
607.58	-0.013
607.77	-0.013
607.96	-0.013
608.16	-0.013
608.35	-0.013
608.54	-0.013
608.74	-0.013
608.93	-0.013
609.12	-0.014
609.32	-0.014
609.51	-0.014
609.70	-0.014
609.90	-0.014
610.09	-0.014
610.28	-0.014
610.48	-0.014
610.67	-0.014
610.86	-0.014
611.06	-0.014
611.25	-0.014
611.44	-0.014
611.64	-0.014
611.83	-0.014
612.02	-0.014
612.21	-0.014
612.41	-0.014
612.60	-0.014
612.79	-0.013
612.99	-0.013
613.18	-0.013
613.37	-0.013
613.57	-0.013
613.76	-0.013
613.95	-0.013
614.14	-0.013
614.34	-0.013
614.53	-0.013
614.72	-0.013
614.92	-0.013
615.11	-0.013
615.30	-0.013
615.49	-0.013
615.69	-0.014
615.88	-0.014
616.07	-0.014
616.26	-0.014
616.46	-0.014
616.65	-0.014
616.84	-0.014
617.04	-0.014
617.23	-0.014
617.42	-0.014
617.61	-0.014
617.81	-0.014
618.00	-0.014
618.19	-0.014
618.38	-0.014
618.58	-0.014
618.77	-0.014
618.96	-0.014
619.15	-0.014
619.35	-0.014
619.54	-0.014
619.73	-0.014
619.92	-0.014
620.12	-0.014
620.31	-0.014
620.50	-0.014
620.69	-0.014
620.89	-0.014
621.08	-0.014
621.27	-0.014
621.46	-0.014
621.66	-0.014
621.85	-0.014
622.04	-0.014
622.23	-0.014
622.43	-0.014
622.62	-0.014
622.81	-0.014
623.00	-0.014
623.19	-0.014
623.39	-0.014
623.58	-0.014
623.77	-0.013
623.96	-0.013
624.16	-0.014
624.35	-0.014
624.54	-0.014
624.73	-0.014
624.92	-0.014
625.12	-0.014
625.31	-0.014
625.50	-0.014
625.69	-0.014
625.88	-0.014
626.08	-0.014
626.27	-0.014
626.46	-0.014
626.65	-0.014
626.84	-0.014
627.04	-0.014
627.23	-0.014
627.42	-0.014
627.61	-0.014
627.80	-0.014
628.00	-0.014
628.19	-0.014
628.38	-0.014
628.57	-0.014
628.76	-0.014
628.96	-0.014
629.15	-0.014
629.34	-0.014
629.53	-0.014
629.72	-0.014
629.91	-0.014
630.11	-0.014
630.30	-0.015
630.49	-0.014
630.68	-0.014
630.87	-0.015
631.06	-0.014
631.26	-0.014
631.45	-0.015
631.64	-0.014
631.83	-0.014
632.02	-0.014
632.21	-0.014
632.41	-0.014
632.60	-0.014
632.79	-0.014
632.98	-0.014
633.17	-0.014
633.36	-0.014
633.55	-0.014
633.75	-0.014
633.94	-0.015
634.13	-0.015
634.32	-0.015
634.51	-0.015
634.70	-0.015
634.89	-0.014
635.09	-0.014
635.28	-0.014
635.47	-0.014
635.66	-0.014
635.85	-0.014
636.04	-0.014
636.23	-0.014
636.43	-0.014
636.62	-0.014
636.81	-0.014
637.00	-0.014
637.19	-0.014
637.38	-0.015
637.57	-0.015
637.76	-0.015
637.95	-0.015
638.15	-0.015
638.34	-0.015
638.53	-0.015
638.72	-0.015
638.91	-0.015
639.10	-0.014
639.29	-0.015
639.48	-0.015
639.67	-0.015
639.87	-0.015
640.06	-0.015
640.25	-0.015
640.44	-0.015
640.63	-0.015
640.82	-0.015
641.01	-0.015
641.20	-0.015
641.39	-0.015
641.58	-0.015
641.78	-0.015
641.97	-0.015
642.16	-0.015
642.35	-0.015
642.54	-0.015
642.73	-0.015
642.92	-0.015
643.11	-0.015
643.30	-0.015
643.49	-0.015
643.68	-0.014
643.87	-0.014
644.06	-0.015
644.25	-0.015
644.45	-0.015
644.64	-0.015
644.83	-0.015
645.02	-0.015
645.21	-0.015
645.40	-0.015
645.59	-0.015
645.78	-0.015
645.97	-0.015
646.16	-0.015
646.35	-0.015
646.54	-0.015
646.73	-0.015
646.92	-0.015
647.11	-0.015
647.30	-0.015
647.49	-0.014
647.68	-0.014
647.88	-0.014
648.07	-0.014
648.26	-0.014
648.45	-0.014
648.64	-0.014
648.83	-0.014
649.02	-0.014
649.21	-0.014
649.40	-0.014
649.59	-0.014
649.78	-0.014
649.97	-0.014
650.16	-0.014
650.35	-0.014
650.54	-0.014
650.73	-0.014
650.92	-0.014
651.11	-0.014
651.30	-0.014
651.49	-0.014
651.68	-0.014
651.87	-0.014
652.06	-0.014
652.25	-0.014
652.44	-0.014
652.63	-0.014
652.82	-0.014
653.01	-0.013
653.20	-0.013
653.39	-0.013
653.58	-0.013
653.77	-0.013
653.96	-0.013
654.15	-0.013
654.34	-0.013
654.53	-0.013
654.72	-0.013
654.91	-0.013
655.10	-0.013
655.29	-0.013
655.48	-0.013
655.67	-0.013
655.86	-0.013
656.05	-0.013
656.24	-0.013
656.43	-0.013
656.62	-0.013
656.81	-0.013
657.00	-0.013
657.19	-0.014
657.38	-0.014
657.57	-0.014
657.76	-0.014
657.95	-0.014
658.14	-0.014
658.33	-0.015
658.51	-0.015
658.70	-0.015
658.89	-0.015
659.08	-0.015
659.27	-0.015
659.46	-0.015
659.65	-0.015
659.84	-0.015
660.03	-0.015
660.22	-0.015
660.41	-0.015
660.60	-0.015
660.79	-0.015
660.98	-0.015
661.17	-0.015
661.36	-0.015
661.55	-0.015
661.74	-0.015
661.92	-0.015
662.11	-0.015
662.30	-0.015
662.49	-0.015
662.68	-0.015
662.87	-0.015
663.06	-0.015
663.25	-0.015
663.44	-0.015
663.63	-0.015
663.82	-0.015
664.01	-0.015
664.20	-0.015
664.38	-0.014
664.57	-0.014
664.76	-0.014
664.95	-0.014
665.14	-0.014
665.33	-0.014
665.52	-0.014
665.71	-0.014
665.90	-0.014
666.09	-0.014
666.28	-0.014
666.46	-0.014
666.65	-0.015
666.84	-0.015
667.03	-0.015
667.22	-0.015
667.41	-0.015
667.60	-0.014
667.79	-0.015
667.98	-0.015
668.16	-0.015
668.35	-0.015
668.54	-0.015
668.73	-0.014
668.92	-0.014
669.11	-0.014
669.30	-0.014
669.49	-0.014
669.67	-0.015
669.86	-0.014
670.05	-0.014
670.24	-0.014
670.43	-0.014
670.62	-0.014
670.81	-0.014
671.00	-0.014
671.18	-0.014
671.37	-0.014
671.56	-0.014
671.75	-0.014
671.94	-0.014
672.13	-0.014
672.32	-0.015
672.50	-0.015
672.69	-0.015
672.88	-0.015
673.07	-0.015
673.26	-0.015
673.45	-0.015
673.63	-0.015
673.82	-0.015
674.01	-0.015
674.20	-0.015
674.39	-0.015
674.58	-0.015
674.76	-0.015
674.95	-0.015
675.14	-0.015
675.33	-0.015
675.52	-0.015
675.71	-0.014
675.89	-0.014
676.08	-0.014
676.27	-0.014
676.46	-0.014
676.65	-0.014
676.84	-0.014
677.02	-0.014
677.21	-0.014
677.40	-0.015
677.59	-0.014
677.78	-0.015
677.96	-0.015
678.15	-0.014
678.34	-0.015
678.53	-0.014
678.72	-0.014
678.90	-0.014
679.09	-0.014
679.28	-0.014
679.47	-0.014
679.66	-0.014
679.84	-0.014
680.03	-0.014
680.22	-0.014
680.41	-0.014
680.60	-0.014
680.78	-0.014
680.97	-0.014
681.16	-0.014
681.35	-0.014
681.53	-0.014
681.72	-0.014
681.91	-0.014
682.10	-0.014
682.29	-0.014
682.47	-0.014
682.66	-0.014
682.85	-0.014
683.04	-0.014
683.22	-0.014
683.41	-0.014
683.60	-0.015
683.79	-0.015
683.97	-0.014
684.16	-0.014
684.35	-0.014
684.54	-0.014
684.72	-0.014
684.91	-0.014
685.10	-0.014
685.29	-0.014
685.47	-0.014
685.66	-0.014
685.85	-0.014
686.04	-0.014
686.22	-0.014
686.41	-0.014
686.60	-0.014
686.79	-0.014
686.97	-0.014
687.16	-0.014
687.35	-0.014
687.54	-0.014
687.72	-0.014
687.91	-0.014
688.10	-0.014
688.29	-0.013
688.47	-0.013
688.66	-0.014
688.85	-0.013
689.03	-0.014
689.22	-0.014
689.41	-0.014
689.60	-0.014
689.78	-0.014
689.97	-0.014
690.16	-0.014
690.34	-0.014
690.53	-0.014
690.72	-0.015
690.91	-0.015
691.09	-0.015
691.28	-0.014
691.47	-0.015
691.65	-0.015
691.84	-0.015
692.03	-0.015
692.21	-0.015
692.40	-0.015
692.59	-0.015
692.77	-0.015
692.96	-0.015
693.15	-0.015
693.34	-0.015
693.52	-0.015
693.71	-0.015
693.90	-0.015
694.08	-0.015
694.27	-0.015
694.46	-0.015
694.64	-0.015
694.83	-0.015
695.02	-0.015
695.20	-0.015
695.39	-0.014
695.58	-0.014
695.76	-0.014
695.95	-0.014
696.14	-0.014
696.32	-0.014
696.51	-0.014
696.70	-0.014
696.88	-0.014
697.07	-0.014
697.26	-0.014
697.44	-0.015
697.63	-0.015
697.81	-0.015
698.00	-0.015
698.19	-0.015
698.37	-0.015
698.56	-0.015
698.75	-0.015
698.93	-0.015
699.12	-0.015
699.31	-0.015
699.49	-0.015
699.68	-0.015
699.87	-0.015
700.05	-0.015
700.24	-0.015
700.42	-0.015
700.61	-0.015
700.80	-0.015
700.98	-0.015
701.17	-0.014
701.36	-0.014
701.54	-0.014
701.73	-0.014
701.91	-0.014
702.10	-0.014
702.29	-0.014
702.47	-0.014
702.66	-0.014
702.84	-0.014
703.03	-0.015
703.22	-0.015
703.40	-0.015
703.59	-0.015
703.77	-0.015
703.96	-0.015
704.15	-0.015
704.33	-0.015
704.52	-0.015
704.70	-0.015
704.89	-0.015
705.08	-0.015
705.26	-0.015
705.45	-0.015
705.63	-0.015
705.82	-0.015
706.00	-0.015
706.19	-0.015
706.38	-0.015
706.56	-0.014
706.75	-0.014
706.93	-0.014
707.12	-0.014
707.30	-0.014
707.49	-0.014
707.68	-0.014
707.86	-0.013
708.05	-0.013
708.23	-0.014
708.42	-0.014
708.60	-0.014
708.79	-0.013
708.98	-0.013
709.16	-0.014
709.35	-0.014
709.53	-0.014
709.72	-0.014
709.90	-0.014
710.09	-0.014
710.27	-0.014
710.46	-0.014
710.64	-0.014
710.83	-0.015
711.02	-0.015
711.20	-0.015
711.39	-0.015
711.57	-0.015
711.76	-0.015
711.94	-0.015
712.13	-0.015
712.31	-0.015
712.50	-0.015
712.68	-0.015
712.87	-0.014
713.05	-0.015
713.24	-0.015
713.42	-0.014
713.61	-0.014
713.79	-0.015
713.98	-0.015
714.16	-0.015
714.35	-0.015
714.54	-0.015
714.72	-0.015
714.91	-0.015
715.09	-0.015
715.28	-0.015
715.46	-0.015
715.65	-0.015
715.83	-0.015
716.02	-0.015
716.20	-0.015
716.39	-0.015
716.57	-0.015
716.76	-0.014
716.94	-0.014
717.12	-0.014
717.31	-0.015
717.49	-0.015
717.68	-0.015
717.86	-0.015
718.05	-0.014
718.23	-0.015
718.42	-0.015
718.60	-0.014
718.79	-0.015
718.97	-0.015
719.16	-0.015
719.34	-0.015
719.53	-0.015
719.71	-0.015
719.90	-0.015
720.08	-0.015
720.27	-0.015
720.45	-0.015
720.63	-0.015
720.82	-0.015
721.00	-0.015
721.19	-0.015
721.37	-0.016
721.56	-0.015
721.74	-0.016
721.93	-0.016
722.11	-0.016
722.30	-0.016
722.48	-0.016
722.66	-0.016
722.85	-0.016
723.03	-0.016
723.22	-0.016
723.40	-0.015
723.59	-0.016
723.77	-0.015
723.95	-0.015
724.14	-0.015
724.32	-0.015
724.51	-0.016
724.69	-0.016
724.88	-0.015
725.06	-0.015
725.24	-0.015
725.43	-0.015
725.61	-0.015
725.80	-0.015
725.98	-0.015
726.16	-0.014
726.35	-0.014
726.53	-0.014
726.72	-0.014
726.90	-0.014
727.09	-0.013
727.27	-0.013
727.45	-0.014
727.64	-0.014
727.82	-0.014
728.01	-0.014
728.19	-0.015
728.37	-0.015
728.56	-0.015
728.74	-0.015
728.92	-0.016
729.11	-0.016
729.29	-0.016
729.48	-0.015
729.66	-0.016
729.84	-0.016
730.03	-0.016
730.21	-0.015
730.40	-0.015
730.58	-0.015
730.76	-0.015
730.95	-0.015
731.13	-0.015
731.31	-0.015
731.50	-0.015
731.68	-0.015
731.86	-0.015
732.05	-0.015
732.23	-0.016
732.42	-0.017
732.60	-0.017
732.78	-0.017
732.97	-0.017
733.15	-0.016
733.33	-0.016
733.52	-0.016
733.70	-0.016
733.88	-0.016
734.07	-0.016
734.25	-0.015
734.43	-0.015
734.62	-0.014
734.80	-0.014
734.98	-0.015
735.17	-0.014
735.35	-0.015
735.53	-0.015
735.72	-0.015
735.90	-0.015
736.08	-0.015
736.27	-0.014
736.45	-0.014
736.63	-0.015
736.82	-0.014
737.00	-0.014
737.18	-0.014
737.37	-0.014
737.55	-0.013
737.73	-0.012
737.92	-0.013
738.10	-0.013
738.28	-0.012
738.46	-0.012
738.65	-0.013
738.83	-0.012
739.01	-0.013
739.20	-0.013
739.38	-0.013
739.56	-0.013
739.75	-0.013
739.93	-0.012
740.11	-0.013
740.29	-0.014
740.48	-0.014
740.66	-0.014
740.84	-0.014
741.03	-0.014
741.21	-0.014
741.39	-0.014
741.57	-0.014
741.76	-0.015
741.94	-0.015
742.12	-0.015
742.31	-0.015
742.49	-0.015
742.67	-0.015
742.85	-0.015
743.04	-0.015
743.22	-0.014
743.40	-0.014
743.58	-0.013
743.77	-0.013
743.95	-0.013
744.13	-0.014
744.31	-0.014
744.50	-0.014
744.68	-0.013
744.86	-0.013
745.04	-0.014
745.23	-0.015
745.41	-0.014
745.59	-0.015
745.77	-0.014
745.96	-0.014
746.14	-0.013
746.32	-0.013
746.50	-0.013
746.69	-0.013
746.87	-0.013
747.05	-0.013
747.23	-0.013
747.42	-0.013
747.60	-0.014
747.78	-0.015
747.96	-0.016
748.14	-0.015
748.33	-0.015
748.51	-0.015
748.69	-0.015
748.87	-0.015
749.06	-0.015
749.24	-0.016
749.42	-0.016
749.60	-0.016
749.78	-0.015
749.97	-0.015
750.15	-0.015
750.33	-0.015
750.51	-0.015
750.69	-0.015
750.88	-0.015
751.06	-0.014
751.24	-0.014
751.42	-0.014
751.60	-0.014
751.79	-0.014
751.97	-0.015
752.15	-0.015
752.33	-0.014
752.51	-0.014
752.69	-0.012
752.88	-0.013
753.06	-0.013
753.24	-0.013
753.42	-0.012
753.60	-0.012
753.78	-0.013
753.97	-0.013
754.15	-0.013
754.33	-0.013
754.51	-0.013
754.69	-0.013
754.87	-0.014
755.06	-0.013
755.24	-0.013
755.42	-0.013
755.60	-0.014
755.78	-0.013
755.96	-0.013
756.15	-0.014
756.33	-0.014
756.51	-0.014
756.69	-0.013
756.87	-0.012
757.05	-0.013
757.23	-0.013
757.42	-0.013
757.60	-0.012
757.78	-0.013
757.96	-0.013
758.14	-0.012
758.32	-0.013
758.50	-0.014
758.69	-0.014
758.87	-0.015
759.05	-0.016
759.23	-0.016
759.41	-0.017
759.59	-0.017
759.77	-0.016
759.95	-0.016
760.13	-0.016
760.32	-0.015
760.50	-0.015
760.68	-0.014
760.86	-0.014
761.04	-0.013
761.22	-0.013
761.40	-0.012
761.58	-0.012
761.76	-0.013
761.95	-0.013
762.13	-0.013
762.31	-0.013
762.49	-0.013
762.67	-0.013
762.85	-0.013
763.03	-0.013
763.21	-0.013
763.39	-0.014
763.57	-0.014
763.75	-0.013
763.94	-0.014
764.12	-0.014
764.30	-0.014
764.48	-0.015
764.66	-0.015
764.84	-0.015
765.02	-0.015
765.20	-0.014
765.38	-0.014
765.56	-0.014
765.74	-0.014
765.92	-0.013
766.10	-0.013
766.28	-0.014
766.46	-0.014
766.65	-0.014
766.83	-0.014
767.01	-0.014
767.19	-0.014
767.37	-0.014
767.55	-0.015
767.73	-0.015
767.91	-0.015
768.09	-0.015
768.27	-0.015
768.45	-0.015
768.63	-0.015
768.81	-0.015
768.99	-0.015
769.17	-0.016
769.35	-0.015
769.53	-0.014
769.71	-0.015
769.89	-0.015
770.07	-0.015
770.25	-0.014
770.43	-0.013
770.61	-0.013
770.79	-0.013
770.97	-0.013
771.15	-0.012
771.33	-0.013
771.51	-0.014
771.69	-0.013
771.87	-0.014
772.05	-0.014
772.24	-0.014
772.42	-0.016
772.60	-0.015
772.78	-0.016
772.96	-0.016
773.14	-0.016
773.32	-0.016
773.49	-0.016
773.67	-0.015
773.85	-0.016
774.03	-0.016
774.21	-0.016
774.39	-0.015
774.57	-0.016
774.75	-0.016
774.93	-0.016
775.11	-0.015
775.29	-0.016
775.47	-0.016
775.65	-0.016
775.83	-0.016
776.01	-0.015
776.19	-0.015
776.37	-0.015
776.55	-0.015
776.73	-0.015
776.91	-0.016
777.09	-0.016
777.27	-0.015
777.45	-0.015
777.63	-0.016
777.81	-0.015
777.99	-0.015
778.17	-0.014
778.35	-0.014
778.53	-0.014
778.71	-0.013
778.89	-0.013
779.07	-0.014
779.24	-0.014
779.42	-0.014
779.60	-0.014
779.78	-0.015
779.96	-0.015
780.14	-0.016
780.32	-0.016
780.50	-0.015
780.68	-0.015
780.86	-0.015
781.04	-0.014
781.22	-0.014
781.40	-0.014
781.58	-0.013
781.75	-0.014
781.93	-0.013
782.11	-0.013
782.29	-0.013
782.47	-0.013
782.65	-0.013
782.83	-0.013
783.01	-0.014
783.19	-0.013
783.37	-0.013
783.55	-0.013
783.72	-0.013
783.90	-0.014
784.08	-0.014
784.26	-0.014
784.44	-0.015
784.62	-0.015
784.80	-0.015
784.98	-0.015
785.16	-0.015
785.33	-0.015
785.51	-0.016
785.69	-0.015
785.87	-0.015
786.05	-0.015
786.23	-0.015
786.41	-0.015
786.59	-0.014
786.77	-0.014
786.94	-0.014
787.12	-0.014
787.30	-0.013
787.48	-0.012
787.66	-0.012
787.84	-0.012
788.02	-0.012
788.19	-0.012
788.37	-0.012
788.55	-0.012
788.73	-0.012
788.91	-0.013
789.09	-0.013
789.27	-0.013
789.44	-0.014
789.62	-0.014
789.80	-0.014
789.98	-0.014
790.16	-0.015
790.34	-0.015
790.51	-0.014
790.69	-0.014
790.87	-0.014
791.05	-0.014
791.23	-0.014
791.41	-0.014
791.58	-0.014
791.76	-0.015
791.94	-0.014
792.12	-0.014
792.30	-0.013
792.48	-0.014
792.65	-0.014
792.83	-0.014
793.01	-0.014
793.19	-0.014
793.37	-0.014
793.54	-0.014
793.72	-0.014
793.90	-0.014
794.08	-0.014
794.26	-0.015
794.43	-0.015
794.61	-0.015
794.79	-0.015
794.97	-0.015
795.15	-0.015
795.32	-0.015
795.50	-0.015
795.68	-0.015
795.86	-0.015
796.04	-0.014
796.21	-0.014
796.39	-0.014
796.57	-0.014
796.75	-0.014
796.92	-0.015
797.10	-0.015
797.28	-0.015
797.46	-0.014
797.64	-0.014
797.81	-0.014
797.99	-0.015
798.17	-0.015
798.35	-0.015
798.52	-0.014
798.70	-0.015
798.88	-0.015
799.06	-0.014
799.23	-0.015
799.41	-0.015
799.59	-0.016
799.77	-0.016
799.94	-0.015
800.12	-0.015
800.30	-0.016
800.48	-0.016
800.65	-0.016
800.83	-0.015
801.01	-0.016
801.19	-0.016
801.36	-0.016
801.54	-0.015
801.72	-0.015
801.90	-0.016
802.07	-0.016
802.25	-0.016
802.43	-0.016
802.60	-0.016
802.78	-0.016
802.96	-0.015
803.14	-0.015
803.31	-0.015
803.49	-0.015
803.67	-0.015
803.84	-0.015
804.02	-0.015
804.20	-0.014
804.38	-0.014
804.55	-0.014
804.73	-0.015
804.91	-0.014
805.08	-0.014
805.26	-0.014
805.44	-0.014
805.61	-0.014
805.79	-0.014
805.97	-0.014
806.15	-0.015
806.32	-0.015
806.50	-0.015
806.68	-0.015
806.85	-0.015
807.03	-0.015
807.21	-0.015
807.38	-0.015
807.56	-0.016
807.74	-0.016
807.91	-0.015
808.09	-0.015
808.27	-0.015
808.44	-0.014
808.62	-0.014
808.80	-0.014
808.97	-0.014
809.15	-0.015
809.33	-0.015
809.50	-0.014
809.68	-0.015
809.86	-0.015
810.03	-0.015
810.21	-0.016
810.39	-0.015
810.56	-0.015
810.74	-0.016
810.91	-0.016
811.09	-0.015
811.27	-0.015
811.44	-0.015
811.62	-0.015
811.80	-0.015
811.97	-0.014
812.15	-0.014
812.33	-0.014
812.50	-0.014
812.68	-0.014
812.85	-0.014
813.03	-0.014
813.21	-0.014
813.38	-0.013
813.56	-0.013
813.74	-0.013
813.91	-0.013
814.09	-0.013
814.26	-0.013
814.44	-0.013
814.62	-0.013
814.79	-0.013
814.97	-0.012
815.14	-0.012
815.32	-0.013
815.50	-0.013
815.67	-0.014
815.85	-0.014
816.02	-0.015
816.20	-0.015
816.38	-0.015
816.55	-0.015
816.73	-0.016
816.90	-0.016
817.08	-0.016
817.26	-0.016
817.43	-0.016
817.61	-0.015
817.78	-0.015
817.96	-0.014
818.13	-0.014
818.31	-0.014
818.49	-0.014
818.66	-0.014
818.84	-0.014
819.01	-0.014
819.19	-0.014
819.36	-0.013
819.54	-0.013
819.71	-0.013
819.89	-0.014
820.07	-0.013
820.24	-0.014
820.42	-0.014
820.59	-0.014
820.77	-0.015
820.94	-0.015
821.12	-0.016
821.29	-0.016
821.47	-0.016
821.64	-0.016
821.82	-0.017
822.00	-0.017
822.17	-0.017
822.35	-0.016
822.52	-0.016
822.70	-0.017
822.87	-0.016
823.05	-0.016
823.22	-0.016
823.40	-0.016
823.57	-0.015
823.75	-0.015
823.92	-0.014
824.10	-0.015
824.27	-0.015
824.45	-0.015
824.62	-0.014
824.80	-0.015
824.97	-0.014
825.15	-0.014
825.32	-0.013
825.50	-0.014
825.67	-0.014
825.85	-0.013
826.02	-0.012
826.20	-0.012
826.37	-0.011
826.55	-0.011
826.72	-0.011
826.90	-0.012
827.07	-0.012
827.25	-0.012
827.42	-0.013
827.60	-0.012
827.77	-0.014
827.95	-0.014
828.12	-0.015
828.30	-0.014
828.47	-0.014
828.65	-0.014
828.82	-0.013
829.00	-0.013
829.17	-0.012
829.34	-0.011
829.52	-0.012
829.69	-0.010
829.87	-0.011
830.04	-0.010
830.22	-0.010
830.39	-0.010
830.57	-0.010
830.74	-0.011
830.92	-0.010
831.09	-0.012
831.26	-0.011
831.44	-0.012
831.61	-0.012
831.79	-0.012
831.96	-0.011
832.14	-0.012
832.31	-0.013
832.49	-0.014
832.66	-0.014
832.83	-0.013
833.01	-0.010
833.18	-0.011
833.36	-0.012
833.53	-0.013
833.70	-0.012
833.88	-0.013
834.05	-0.011
834.23	-0.011
834.40	-0.011
834.58	-0.009
834.75	-0.011
834.92	-0.014
835.10	-0.012
835.27	-0.010
835.45	-0.011
835.62	-0.013
835.79	-0.010
835.97	-0.010
836.14	-0.010
836.32	-0.011
836.49	-0.013
836.66	-0.015
836.84	-0.018
837.01	-0.020
837.18	-0.019
837.36	-0.021
837.53	-0.020
837.71	-0.021
837.88	-0.019
838.05	-0.019
838.23	-0.017
838.40	-0.017
838.58	-0.016
838.75	-0.012
838.92	-0.010
839.10	-0.009
839.27	-0.004
839.44	-0.006
839.62	-0.007
839.79	-0.009
839.96	-0.008
840.14	-0.006
840.31	-0.007
840.48	-0.005
840.66	-0.004
840.83	-0.005
841.01	-0.006
841.18	-0.009
841.35	-0.008
841.53	-0.007
841.70	-0.006
841.87	-0.007
842.05	-0.012
842.22	-0.010
842.39	-0.011
842.57	-0.014
842.74	-0.012
842.91	-0.013
843.09	-0.011
843.26	-0.012
843.43	-0.010
843.60	-0.012
843.78	-0.013
843.95	-0.010
844.12	-0.013
844.30	-0.014
844.47	-0.012
844.64	-0.011
844.82	-0.010
844.99	-0.011
845.16	-0.013
845.34	-0.013
845.51	-0.011
845.68	-0.010
845.85	-0.013
846.03	-0.011
846.20	-0.013
846.37	-0.012
846.55	-0.014
846.72	-0.015
846.89	-0.017
847.06	-0.015
847.24	-0.018
847.41	-0.023
847.58	-0.023
847.76	-0.021
847.93	-0.019
848.10	-0.016
848.27	-0.020
848.45	-0.019
848.62	-0.020
848.79	-0.016
848.97	-0.018
849.14	-0.014
849.31	-0.008
849.48	-0.006
849.66	-0.003
849.83	-0.003
850.00	-0.003
850.17	0.001
850.35	-0.000
850.52	-0.001
850.69	-0.003
850.86	0.002
851.04	-0.000
851.21	-0.002
851.38	-0.006
851.55	-0.007
851.72	-0.010
851.90	-0.008
852.07	-0.006
852.24	-0.008
852.41	-0.005
852.59	-0.005
852.76	-0.006
852.93	-0.006
853.10	-0.010
853.28	-0.009
853.45	-0.013
853.62	-0.014
853.79	-0.017
853.96	-0.022
854.14	-0.021
854.31	-0.022
854.48	-0.020
854.65	-0.024
854.82	-0.026
855.00	-0.022
855.17	-0.023
855.34	-0.019
855.51	-0.019
855.68	-0.015
855.86	-0.011
856.03	-0.009
856.20	-0.007
856.37	-0.007
856.54	-0.005
856.72	-0.001
856.89	-0.001
857.06	0.005
857.23	0.002
857.40	0.006
857.57	0.005
857.75	0.002
857.92	0.005
858.09	0.003
858.26	0.006
858.43	0.009
858.60	0.005
858.78	0.003
858.95	-0.001
859.12	-0.005
859.29	-0.007
859.46	-0.008
859.63	-0.008
859.81	-0.014
859.98	-0.012
860.15	-0.015
860.32	-0.020
860.49	-0.018
860.66	-0.022
860.83	-0.020
861.01	-0.013
861.18	-0.014
861.35	-0.015
861.52	-0.011
861.69	-0.010
861.86	-0.010
862.03	-0.010
862.21	-0.006
862.38	-0.006
862.55	-0.006
862.72	-0.006
862.89	-0.007
863.06	-0.008
863.23	-0.005
863.40	-0.000
863.58	-0.004
863.75	-0.008
863.92	-0.010
864.09	-0.012
864.26	-0.013
864.43	-0.009
864.60	-0.010
864.77	-0.009
864.94	-0.010
865.11	-0.005
865.29	-0.010
865.46	-0.005
865.63	-0.005
865.80	0.001
865.97	0.007
866.14	0.006
866.31	0.005
866.48	0.009
866.65	0.004
866.82	0.008
866.99	0.002
867.16	0.001
867.34	0.001
867.51	-0.004
867.68	-0.008
867.85	-0.013
868.02	-0.011
868.19	-0.013
868.36	-0.017
868.53	-0.016
868.70	-0.020
868.87	-0.027
869.04	-0.025
869.21	-0.026
869.38	-0.018
869.55	-0.012
869.72	-0.013
869.89	-0.022
870.06	-0.013
870.24	-0.012
870.41	-0.015
870.58	-0.010
870.75	-0.006
870.92	-0.010
871.09	-0.006
871.26	-0.010
871.43	-0.017
871.60	-0.017
871.77	0.003
871.94	-0.003
872.11	-0.004
872.28	0.000
872.45	-0.001
872.62	-0.000
872.79	-0.002
872.96	-0.002
873.13	-0.001
873.30	0.008
873.47	-0.002
873.64	-0.010
873.81	-0.017
873.98	-0.018
874.15	-0.021
874.32	-0.024
874.49	-0.031
874.66	-0.029
874.83	-0.041
875.00	-0.041
875.17	-0.051
875.34	-0.031
875.51	-0.033
875.68	-0.031
875.85	-0.020
876.02	-0.017
876.19	-0.021
876.36	-0.020
876.53	-0.003
876.70	0.002
876.87	0.007
877.04	-0.002
877.21	-0.020
877.38	-0.016
877.55	-0.016
877.72	-0.017
877.89	-0.019
878.06	-0.013
878.23	0.007
878.39	-0.013
878.56	-0.019
878.73	-0.020
878.90	-0.000
879.07	0.014
879.24	0.001
879.41	0.015
879.58	0.008
879.75	0.010
879.92	0.011
880.09	-0.007
880.26	-0.013
880.43	-0.008
880.60	-0.009
880.77	-0.012
880.94	-0.015
881.11	-0.013
881.27	-0.025
881.44	-0.034
881.61	-0.025
881.78	-0.040
881.95	-0.023
882.12	-0.015
882.29	-0.021
882.46	-0.021
882.63	-0.020
882.80	-0.033
882.97	-0.024
883.14	-0.015
883.30	-0.008
883.47	-0.028
883.64	-0.021
883.81	-0.033
883.98	-0.025
884.15	-0.020
884.32	-0.013
884.49	-0.027
884.66	-0.008
884.82	-0.010
884.99	-0.030
885.16	-0.032
885.33	-0.017
885.50	-0.002
885.67	0.006
885.84	-0.004
886.01	-0.002
886.17	-0.012
886.34	-0.012
886.51	-0.012
886.68	-0.024
886.85	-0.019
887.02	-0.019
887.19	-0.024
887.36	-0.029
887.52	-0.036
887.69	-0.032
887.86	-0.025
888.03	-0.026
888.20	-0.016
888.37	-0.032
888.54	-0.020
888.70	-0.013
888.87	-0.016
889.04	-0.013
889.21	-0.014
889.38	-0.011
889.55	-0.013
889.71	-0.028
889.88	-0.032
890.05	0.011
890.22	0.007
890.39	-0.030
>>>>>End Processed Spectral Data<<<<<
