SpectraSuite Data File
++++++++++++++++++++++++++++++++++++
Date: Mon Jun 15 08:10:18 PDT 2015
User: introlabs
Dark Spectrum Present: Yes
Reference Spectrum Present: Yes
Number of Sampled Component Spectra: 1
Spectrometers: USB4H08886
Integration Time (usec): 44366 (USB4H08886)
Spectra Averaged: 20 (USB4H08886)
Boxcar Smoothing: 5 (USB4H08886)
Correct for Electrical Dark: Yes (USB4H08886)
Strobe/Lamp Enabled: No (USB4H08886)
Correct for Detector Non-linearity: Yes (USB4H08886)
Correct for Stray Light: Yes (USB4H08886)
Number of Pixels in Processed Spectrum: 3648
>>>>>Begin Processed Spectral Data<<<<<
178.14	0.559
178.36	0.559
178.57	0.559
178.79	0.860
179.01	-1.097
179.22	-0.008
179.44	-0.522
179.65	-0.000
179.87	-0.000
180.08	-0.000
180.30	-0.000
180.52	1.889
180.73	0.220
180.95	0.124
181.16	0.095
181.38	0.054
181.59	0.018
181.81	-0.001
182.03	0.012
182.24	0.018
182.46	0.011
182.67	0.006
182.89	0.008
183.10	0.014
183.32	0.008
183.54	-0.008
183.75	-0.001
183.97	0.010
184.18	0.005
184.40	-0.002
184.61	-0.004
184.83	0.008
185.04	0.011
185.26	0.021
185.48	0.019
185.69	0.019
185.91	0.024
186.12	0.027
186.34	0.029
186.55	0.017
186.77	0.021
186.98	0.022
187.20	0.009
187.42	0.015
187.63	0.003
187.85	-0.000
188.06	0.007
188.28	0.006
188.49	0.005
188.71	0.008
188.92	0.014
189.14	0.007
189.36	0.004
189.57	0.008
189.79	-0.005
190.00	-0.002
190.22	0.001
190.43	0.005
190.65	0.005
190.86	0.005
191.08	-0.005
191.29	0.002
191.51	0.004
191.72	0.000
191.94	0.001
192.16	0.006
192.37	0.009
192.59	0.011
192.80	0.002
193.02	0.004
193.23	0.011
193.45	0.008
193.66	0.009
193.88	0.014
194.09	0.019
194.31	0.018
194.52	0.016
194.74	0.009
194.95	0.004
195.17	0.006
195.38	0.005
195.60	-0.007
195.81	0.010
196.03	0.003
196.25	0.009
196.46	0.008
196.68	0.008
196.89	0.008
197.11	0.012
197.32	0.012
197.54	0.006
197.75	0.022
197.97	0.023
198.18	0.009
198.40	0.016
198.61	0.005
198.83	0.003
199.04	0.004
199.26	0.002
199.47	0.001
199.69	0.011
199.90	0.024
200.12	0.010
200.33	0.015
200.55	0.017
200.76	0.010
200.98	0.008
201.19	0.007
201.41	0.005
201.62	0.009
201.84	0.015
202.05	0.012
202.27	0.001
202.48	0.004
202.70	0.007
202.91	0.004
203.13	0.008
203.34	0.003
203.56	0.008
203.77	0.011
203.99	0.007
204.20	0.002
204.42	-0.002
204.63	0.006
204.85	0.001
205.06	-0.003
205.28	0.002
205.49	0.005
205.71	0.015
205.92	0.015
206.14	0.009
206.35	0.012
206.56	0.016
206.78	0.017
206.99	0.015
207.21	0.025
207.42	0.026
207.64	0.025
207.85	0.023
208.07	0.023
208.28	0.021
208.50	0.029
208.71	0.031
208.93	0.030
209.14	0.031
209.36	0.035
209.57	0.031
209.79	0.033
210.00	0.028
210.22	0.031
210.43	0.031
210.64	0.038
210.86	0.036
211.07	0.028
211.29	0.022
211.50	0.019
211.72	0.013
211.93	0.009
212.15	0.002
212.36	0.002
212.58	0.001
212.79	0.001
213.01	-0.013
213.22	-0.012
213.43	-0.007
213.65	-0.006
213.86	-0.004
214.08	0.001
214.29	0.001
214.51	0.005
214.72	0.010
214.94	0.007
215.15	0.009
215.36	0.018
215.58	0.012
215.79	0.014
216.01	0.021
216.22	0.021
216.44	0.014
216.65	0.014
216.87	0.018
217.08	0.019
217.29	0.026
217.51	0.023
217.72	0.016
217.94	0.021
218.15	0.020
218.37	0.015
218.58	0.013
218.80	0.015
219.01	0.015
219.22	0.011
219.44	0.008
219.65	0.004
219.87	0.005
220.08	0.004
220.30	0.001
220.51	-0.003
220.72	-0.006
220.94	-0.008
221.15	-0.006
221.37	-0.010
221.58	-0.009
221.79	-0.006
222.01	-0.017
222.22	-0.023
222.44	-0.018
222.65	-0.024
222.87	-0.022
223.08	-0.022
223.29	-0.016
223.51	-0.015
223.72	-0.017
223.94	-0.020
224.15	-0.019
224.36	-0.011
224.58	-0.008
224.79	-0.005
225.01	-0.004
225.22	-0.006
225.44	-0.008
225.65	-0.006
225.86	-0.005
226.08	0.002
226.29	0.001
226.51	0.002
226.72	0.002
226.93	0.004
227.15	-0.003
227.36	-0.001
227.58	-0.002
227.79	0.002
228.00	-0.007
228.22	-0.014
228.43	-0.021
228.65	-0.020
228.86	-0.023
229.07	-0.025
229.29	-0.029
229.50	-0.028
229.72	-0.029
229.93	-0.029
230.14	-0.029
230.36	-0.027
230.57	-0.025
230.78	-0.024
231.00	-0.026
231.21	-0.029
231.43	-0.028
231.64	-0.024
231.85	-0.022
232.07	-0.023
232.28	-0.023
232.50	-0.024
232.71	-0.025
232.92	-0.025
233.14	-0.026
233.35	-0.025
233.56	-0.025
233.78	-0.027
233.99	-0.029
234.21	-0.029
234.42	-0.031
234.63	-0.032
234.85	-0.032
235.06	-0.032
235.27	-0.032
235.49	-0.030
235.70	-0.031
235.91	-0.031
236.13	-0.030
236.34	-0.031
236.56	-0.033
236.77	-0.031
236.98	-0.029
237.20	-0.029
237.41	-0.028
237.62	-0.028
237.84	-0.030
238.05	-0.029
238.26	-0.031
238.48	-0.031
238.69	-0.030
238.91	-0.029
239.12	-0.029
239.33	-0.029
239.55	-0.029
239.76	-0.029
239.97	-0.028
240.19	-0.027
240.40	-0.027
240.61	-0.026
240.83	-0.026
241.04	-0.026
241.25	-0.026
241.47	-0.025
241.68	-0.023
241.89	-0.023
242.11	-0.022
242.32	-0.022
242.53	-0.022
242.75	-0.021
242.96	-0.020
243.17	-0.019
243.39	-0.019
243.60	-0.019
243.81	-0.019
244.03	-0.020
244.24	-0.019
244.45	-0.019
244.67	-0.018
244.88	-0.017
245.09	-0.017
245.31	-0.017
245.52	-0.017
245.73	-0.017
245.95	-0.016
246.16	-0.015
246.37	-0.015
246.59	-0.015
246.80	-0.015
247.01	-0.015
247.23	-0.015
247.44	-0.015
247.65	-0.015
247.87	-0.014
248.08	-0.014
248.29	-0.014
248.51	-0.013
248.72	-0.013
248.93	-0.013
249.15	-0.013
249.36	-0.013
249.57	-0.013
249.78	-0.013
250.00	-0.013
250.21	-0.012
250.42	-0.012
250.64	-0.012
250.85	-0.011
251.06	-0.011
251.28	-0.011
251.49	-0.011
251.70	-0.011
251.92	-0.010
252.13	-0.010
252.34	-0.009
252.55	-0.010
252.77	-0.010
252.98	-0.010
253.19	-0.010
253.41	-0.010
253.62	-0.009
253.83	-0.009
254.05	-0.009
254.26	-0.009
254.47	-0.009
254.68	-0.009
254.90	-0.009
255.11	-0.008
255.32	-0.008
255.54	-0.008
255.75	-0.008
255.96	-0.008
256.17	-0.008
256.39	-0.008
256.60	-0.008
256.81	-0.008
257.03	-0.008
257.24	-0.008
257.45	-0.008
257.66	-0.008
257.88	-0.008
258.09	-0.008
258.30	-0.008
258.51	-0.008
258.73	-0.009
258.94	-0.009
259.15	-0.009
259.37	-0.009
259.58	-0.009
259.79	-0.009
260.00	-0.009
260.22	-0.009
260.43	-0.009
260.64	-0.009
260.85	-0.009
261.07	-0.009
261.28	-0.009
261.49	-0.009
261.71	-0.009
261.92	-0.009
262.13	-0.009
262.34	-0.009
262.56	-0.009
262.77	-0.008
262.98	-0.008
263.19	-0.008
263.41	-0.008
263.62	-0.008
263.83	-0.008
264.04	-0.008
264.26	-0.009
264.47	-0.009
264.68	-0.009
264.89	-0.009
265.11	-0.009
265.32	-0.009
265.53	-0.009
265.74	-0.009
265.96	-0.009
266.17	-0.009
266.38	-0.009
266.59	-0.009
266.81	-0.009
267.02	-0.009
267.23	-0.009
267.44	-0.010
267.65	-0.010
267.87	-0.010
268.08	-0.011
268.29	-0.011
268.50	-0.011
268.72	-0.011
268.93	-0.011
269.14	-0.011
269.35	-0.011
269.57	-0.011
269.78	-0.010
269.99	-0.011
270.20	-0.011
270.41	-0.011
270.63	-0.011
270.84	-0.012
271.05	-0.012
271.26	-0.012
271.48	-0.012
271.69	-0.012
271.90	-0.013
272.11	-0.013
272.32	-0.013
272.54	-0.013
272.75	-0.013
272.96	-0.013
273.17	-0.013
273.39	-0.013
273.60	-0.013
273.81	-0.013
274.02	-0.013
274.23	-0.013
274.45	-0.013
274.66	-0.013
274.87	-0.013
275.08	-0.013
275.29	-0.013
275.51	-0.013
275.72	-0.013
275.93	-0.013
276.14	-0.013
276.35	-0.013
276.57	-0.013
276.78	-0.013
276.99	-0.014
277.20	-0.013
277.41	-0.013
277.63	-0.013
277.84	-0.013
278.05	-0.013
278.26	-0.013
278.47	-0.013
278.69	-0.013
278.90	-0.012
279.11	-0.012
279.32	-0.012
279.53	-0.012
279.74	-0.012
279.96	-0.011
280.17	-0.011
280.38	-0.011
280.59	-0.011
280.80	-0.011
281.02	-0.011
281.23	-0.011
281.44	-0.011
281.65	-0.011
281.86	-0.011
282.07	-0.011
282.29	-0.011
282.50	-0.010
282.71	-0.011
282.92	-0.010
283.13	-0.010
283.35	-0.010
283.56	-0.010
283.77	-0.010
283.98	-0.010
284.19	-0.010
284.40	-0.009
284.62	-0.009
284.83	-0.009
285.04	-0.009
285.25	-0.008
285.46	-0.008
285.67	-0.008
285.88	-0.008
286.10	-0.007
286.31	-0.007
286.52	-0.006
286.73	-0.006
286.94	-0.006
287.15	-0.005
287.37	-0.005
287.58	-0.004
287.79	-0.004
288.00	-0.004
288.21	-0.003
288.42	-0.003
288.63	-0.003
288.85	-0.002
289.06	-0.002
289.27	-0.002
289.48	-0.002
289.69	-0.002
289.90	-0.001
290.11	-0.001
290.33	-0.000
290.54	-0.000
290.75	0.000
290.96	0.000
291.17	0.001
291.38	0.001
291.59	0.001
291.81	0.001
292.02	0.001
292.23	0.001
292.44	0.002
292.65	0.002
292.86	0.002
293.07	0.002
293.28	0.002
293.50	0.002
293.71	0.002
293.92	0.002
294.13	0.003
294.34	0.003
294.55	0.003
294.76	0.003
294.97	0.003
295.19	0.003
295.40	0.003
295.61	0.004
295.82	0.003
296.03	0.003
296.24	0.003
296.45	0.003
296.66	0.003
296.87	0.003
297.09	0.003
297.30	0.003
297.51	0.004
297.72	0.004
297.93	0.004
298.14	0.004
298.35	0.004
298.56	0.004
298.77	0.004
298.99	0.004
299.20	0.004
299.41	0.004
299.62	0.004
299.83	0.004
300.04	0.004
300.25	0.004
300.46	0.004
300.67	0.004
300.88	0.004
301.10	0.004
301.31	0.004
301.52	0.004
301.73	0.004
301.94	0.004
302.15	0.004
302.36	0.004
302.57	0.004
302.78	0.004
302.99	0.004
303.20	0.004
303.41	0.004
303.63	0.004
303.84	0.004
304.05	0.004
304.26	0.004
304.47	0.004
304.68	0.004
304.89	0.004
305.10	0.004
305.31	0.004
305.52	0.004
305.73	0.004
305.94	0.004
306.15	0.004
306.37	0.004
306.58	0.005
306.79	0.005
307.00	0.005
307.21	0.005
307.42	0.005
307.63	0.005
307.84	0.005
308.05	0.005
308.26	0.005
308.47	0.005
308.68	0.005
308.89	0.005
309.10	0.005
309.31	0.005
309.52	0.005
309.73	0.005
309.95	0.005
310.16	0.005
310.37	0.005
310.58	0.005
310.79	0.005
311.00	0.005
311.21	0.005
311.42	0.005
311.63	0.005
311.84	0.005
312.05	0.005
312.26	0.005
312.47	0.005
312.68	0.005
312.89	0.005
313.10	0.005
313.31	0.006
313.52	0.006
313.73	0.006
313.94	0.006
314.15	0.006
314.36	0.006
314.57	0.006
314.78	0.006
314.99	0.006
315.21	0.006
315.42	0.006
315.63	0.006
315.84	0.006
316.05	0.006
316.26	0.006
316.47	0.006
316.68	0.006
316.89	0.006
317.10	0.006
317.31	0.006
317.52	0.006
317.73	0.006
317.94	0.006
318.15	0.006
318.36	0.006
318.57	0.006
318.78	0.006
318.99	0.006
319.20	0.006
319.41	0.006
319.62	0.006
319.83	0.006
320.04	0.006
320.25	0.006
320.46	0.006
320.67	0.006
320.88	0.006
321.09	0.006
321.30	0.006
321.51	0.006
321.72	0.006
321.93	0.006
322.14	0.006
322.35	0.006
322.56	0.006
322.77	0.006
322.98	0.006
323.19	0.006
323.40	0.006
323.61	0.006
323.82	0.006
324.03	0.006
324.24	0.006
324.45	0.006
324.66	0.006
324.87	0.006
325.08	0.006
325.29	0.006
325.50	0.006
325.71	0.006
325.92	0.006
326.13	0.006
326.34	0.006
326.55	0.006
326.76	0.006
326.97	0.006
327.18	0.006
327.39	0.006
327.60	0.006
327.80	0.006
328.01	0.006
328.22	0.006
328.43	0.006
328.64	0.006
328.85	0.006
329.06	0.006
329.27	0.006
329.48	0.006
329.69	0.006
329.90	0.006
330.11	0.006
330.32	0.007
330.53	0.006
330.74	0.006
330.95	0.006
331.16	0.006
331.37	0.006
331.58	0.006
331.79	0.006
332.00	0.006
332.21	0.006
332.42	0.006
332.63	0.006
332.83	0.006
333.04	0.006
333.25	0.006
333.46	0.006
333.67	0.006
333.88	0.006
334.09	0.006
334.30	0.006
334.51	0.006
334.72	0.006
334.93	0.006
335.14	0.006
335.35	0.006
335.56	0.006
335.77	0.006
335.98	0.006
336.18	0.006
336.39	0.006
336.60	0.006
336.81	0.006
337.02	0.006
337.23	0.006
337.44	0.006
337.65	0.006
337.86	0.006
338.07	0.006
338.28	0.005
338.49	0.005
338.70	0.005
338.91	0.005
339.11	0.005
339.32	0.005
339.53	0.005
339.74	0.005
339.95	0.005
340.16	0.005
340.37	0.005
340.58	0.005
340.79	0.005
341.00	0.005
341.21	0.005
341.41	0.005
341.62	0.005
341.83	0.004
342.04	0.004
342.25	0.004
342.46	0.004
342.67	0.004
342.88	0.004
343.09	0.004
343.30	0.004
343.50	0.004
343.71	0.004
343.92	0.004
344.13	0.004
344.34	0.004
344.55	0.004
344.76	0.004
344.97	0.004
345.18	0.004
345.38	0.004
345.59	0.004
345.80	0.004
346.01	0.004
346.22	0.004
346.43	0.004
346.64	0.004
346.85	0.004
347.06	0.004
347.26	0.003
347.47	0.003
347.68	0.003
347.89	0.003
348.10	0.003
348.31	0.003
348.52	0.003
348.73	0.003
348.93	0.003
349.14	0.003
349.35	0.003
349.56	0.003
349.77	0.003
349.98	0.003
350.19	0.003
350.39	0.003
350.60	0.003
350.81	0.003
351.02	0.003
351.23	0.003
351.44	0.003
351.65	0.003
351.86	0.003
352.06	0.003
352.27	0.003
352.48	0.003
352.69	0.003
352.90	0.003
353.11	0.003
353.31	0.003
353.52	0.003
353.73	0.003
353.94	0.003
354.15	0.003
354.36	0.003
354.57	0.003
354.77	0.003
354.98	0.003
355.19	0.003
355.40	0.003
355.61	0.003
355.82	0.003
356.02	0.003
356.23	0.003
356.44	0.003
356.65	0.003
356.86	0.003
357.07	0.003
357.27	0.003
357.48	0.003
357.69	0.003
357.90	0.003
358.11	0.003
358.32	0.003
358.52	0.002
358.73	0.003
358.94	0.002
359.15	0.002
359.36	0.002
359.56	0.002
359.77	0.002
359.98	0.002
360.19	0.002
360.40	0.002
360.61	0.002
360.81	0.002
361.02	0.002
361.23	0.002
361.44	0.002
361.65	0.002
361.85	0.002
362.06	0.002
362.27	0.002
362.48	0.002
362.69	0.002
362.89	0.002
363.10	0.002
363.31	0.002
363.52	0.002
363.73	0.002
363.93	0.002
364.14	0.002
364.35	0.002
364.56	0.002
364.77	0.002
364.97	0.002
365.18	0.002
365.39	0.002
365.60	0.002
365.81	0.002
366.01	0.002
366.22	0.002
366.43	0.002
366.64	0.002
366.84	0.002
367.05	0.002
367.26	0.002
367.47	0.002
367.68	0.002
367.88	0.002
368.09	0.002
368.30	0.002
368.51	0.002
368.71	0.002
368.92	0.002
369.13	0.002
369.34	0.002
369.55	0.002
369.75	0.002
369.96	0.002
370.17	0.002
370.38	0.002
370.58	0.001
370.79	0.002
371.00	0.001
371.21	0.002
371.41	0.002
371.62	0.001
371.83	0.001
372.04	0.001
372.24	0.002
372.45	0.001
372.66	0.001
372.87	0.002
373.07	0.001
373.28	0.002
373.49	0.002
373.70	0.002
373.90	0.002
374.11	0.001
374.32	0.002
374.53	0.001
374.73	0.002
374.94	0.002
375.15	0.001
375.36	0.001
375.56	0.001
375.77	0.001
375.98	0.001
376.19	0.001
376.39	0.001
376.60	0.001
376.81	0.001
377.02	0.001
377.22	0.001
377.43	0.001
377.64	0.001
377.84	0.001
378.05	0.001
378.26	0.001
378.47	0.001
378.67	0.001
378.88	0.001
379.09	0.001
379.30	0.001
379.50	0.001
379.71	0.001
379.92	0.001
380.12	0.001
380.33	0.001
380.54	0.001
380.75	0.001
380.95	0.001
381.16	0.001
381.37	0.001
381.57	0.001
381.78	0.001
381.99	0.001
382.20	0.001
382.40	0.001
382.61	0.001
382.82	0.001
383.02	0.001
383.23	0.001
383.44	0.001
383.64	0.001
383.85	0.001
384.06	0.001
384.27	0.001
384.47	0.001
384.68	0.001
384.89	0.001
385.09	0.001
385.30	0.001
385.51	0.001
385.71	0.000
385.92	0.000
386.13	0.000
386.33	0.000
386.54	0.000
386.75	0.000
386.95	0.000
387.16	0.000
387.37	0.000
387.58	0.001
387.78	0.001
387.99	0.001
388.20	0.001
388.40	0.001
388.61	0.001
388.82	0.001
389.02	0.001
389.23	0.001
389.44	0.001
389.64	0.001
389.85	0.001
390.06	0.001
390.26	0.001
390.47	0.001
390.68	0.001
390.88	0.001
391.09	0.001
391.30	0.001
391.50	0.001
391.71	0.001
391.92	0.001
392.12	0.000
392.33	0.001
392.53	0.001
392.74	0.001
392.95	0.001
393.15	0.001
393.36	0.001
393.57	0.001
393.77	0.001
393.98	0.001
394.19	0.001
394.39	0.001
394.60	0.001
394.81	0.001
395.01	0.001
395.22	0.001
395.43	0.001
395.63	0.001
395.84	0.001
396.04	0.001
396.25	0.001
396.46	0.001
396.66	0.001
396.87	0.001
397.08	0.001
397.28	0.001
397.49	0.001
397.69	0.001
397.90	0.001
398.11	0.001
398.31	0.000
398.52	0.000
398.73	0.000
398.93	0.000
399.14	0.000
399.34	0.000
399.55	0.000
399.76	-0.000
399.96	0.000
400.17	0.000
400.37	0.000
400.58	0.000
400.79	0.000
400.99	0.000
401.20	0.000
401.41	0.000
401.61	0.000
401.82	0.000
402.02	0.001
402.23	0.000
402.44	0.000
402.64	0.000
402.85	0.000
403.05	0.000
403.26	0.000
403.47	0.001
403.67	0.001
403.88	0.000
404.08	0.001
404.29	0.000
404.50	0.000
404.70	0.000
404.91	0.000
405.11	0.000
405.32	0.000
405.52	0.000
405.73	0.000
405.94	0.000
406.14	0.000
406.35	0.000
406.55	0.000
406.76	0.000
406.97	0.000
407.17	0.000
407.38	0.000
407.58	0.000
407.79	0.000
407.99	0.000
408.20	0.000
408.41	0.000
408.61	0.000
408.82	0.000
409.02	0.000
409.23	0.000
409.43	0.000
409.64	0.000
409.84	0.000
410.05	0.000
410.26	0.000
410.46	0.000
410.67	-0.000
410.87	0.000
411.08	0.000
411.28	-0.000
411.49	0.000
411.69	-0.000
411.90	-0.000
412.11	-0.000
412.31	-0.000
412.52	-0.000
412.72	-0.000
412.93	-0.000
413.13	-0.000
413.34	-0.000
413.54	0.000
413.75	0.000
413.95	0.000
414.16	0.000
414.37	0.000
414.57	0.000
414.78	0.000
414.98	0.000
415.19	0.000
415.39	0.000
415.60	0.000
415.80	0.000
416.01	0.000
416.21	0.000
416.42	0.000
416.62	0.000
416.83	0.000
417.03	0.000
417.24	0.000
417.44	0.000
417.65	0.000
417.86	-0.000
418.06	-0.000
418.27	-0.000
418.47	-0.000
418.68	-0.000
418.88	-0.000
419.09	-0.001
419.29	-0.001
419.50	-0.001
419.70	-0.001
419.91	-0.000
420.11	-0.000
420.32	-0.000
420.52	-0.000
420.73	-0.000
420.93	-0.000
421.14	-0.000
421.34	-0.000
421.55	-0.000
421.75	-0.000
421.96	-0.000
422.16	-0.000
422.37	-0.001
422.57	-0.001
422.78	-0.001
422.98	-0.001
423.19	-0.000
423.39	-0.000
423.60	-0.000
423.80	-0.000
424.01	-0.000
424.21	-0.000
424.42	-0.000
424.62	0.000
424.83	0.000
425.03	0.000
425.23	0.000
425.44	-0.000
425.64	0.000
425.85	-0.000
426.05	0.000
426.26	-0.000
426.46	-0.000
426.67	-0.000
426.87	-0.000
427.08	-0.000
427.28	-0.000
427.49	-0.000
427.69	-0.000
427.90	-0.000
428.10	-0.000
428.31	-0.000
428.51	-0.000
428.71	-0.000
428.92	-0.001
429.12	-0.001
429.33	-0.000
429.53	-0.000
429.74	-0.000
429.94	-0.001
430.15	-0.001
430.35	-0.000
430.56	-0.000
430.76	-0.000
430.96	-0.000
431.17	-0.000
431.37	-0.000
431.58	-0.000
431.78	-0.000
431.99	-0.000
432.19	-0.000
432.40	-0.000
432.60	-0.000
432.80	-0.000
433.01	-0.000
433.21	-0.000
433.42	-0.000
433.62	-0.000
433.83	-0.000
434.03	-0.000
434.23	-0.000
434.44	-0.000
434.64	-0.000
434.85	-0.000
435.05	-0.000
435.26	-0.000
435.46	-0.000
435.66	-0.000
435.87	-0.000
436.07	-0.000
436.28	-0.000
436.48	-0.000
436.69	-0.001
436.89	-0.001
437.09	-0.001
437.30	-0.001
437.50	-0.001
437.71	-0.001
437.91	-0.001
438.11	-0.001
438.32	-0.001
438.52	-0.000
438.73	-0.000
438.93	-0.000
439.13	-0.000
439.34	-0.000
439.54	-0.000
439.75	-0.000
439.95	-0.000
440.15	-0.000
440.36	-0.000
440.56	-0.000
440.77	-0.000
440.97	-0.000
441.17	-0.000
441.38	-0.000
441.58	-0.000
441.79	-0.000
441.99	-0.000
442.19	-0.000
442.40	-0.000
442.60	-0.000
442.81	-0.000
443.01	-0.000
443.21	-0.000
443.42	-0.000
443.62	-0.000
443.82	-0.000
444.03	-0.000
444.23	-0.000
444.44	-0.000
444.64	-0.000
444.84	-0.000
445.05	-0.000
445.25	-0.000
445.45	-0.000
445.66	-0.000
445.86	-0.000
446.06	-0.000
446.27	-0.000
446.47	-0.000
446.68	-0.001
446.88	-0.000
447.08	-0.000
447.29	-0.001
447.49	-0.000
447.69	-0.000
447.90	-0.000
448.10	-0.000
448.30	-0.000
448.51	-0.000
448.71	-0.001
448.91	-0.000
449.12	-0.001
449.32	-0.001
449.52	-0.000
449.73	-0.000
449.93	-0.000
450.14	-0.000
450.34	-0.000
450.54	-0.000
450.75	-0.000
450.95	-0.000
451.15	-0.000
451.36	-0.000
451.56	-0.000
451.76	-0.000
451.97	-0.001
452.17	-0.001
452.37	-0.001
452.58	-0.001
452.78	-0.001
452.98	-0.001
453.19	-0.001
453.39	-0.001
453.59	-0.001
453.79	-0.001
454.00	-0.001
454.20	-0.001
454.40	-0.001
454.61	-0.001
454.81	-0.001
455.01	-0.001
455.22	-0.001
455.42	-0.001
455.62	-0.001
455.83	-0.000
456.03	-0.000
456.23	-0.000
456.44	-0.000
456.64	-0.000
456.84	-0.000
457.04	-0.000
457.25	-0.000
457.45	-0.000
457.65	-0.000
457.86	-0.000
458.06	-0.000
458.26	-0.000
458.47	-0.000
458.67	-0.000
458.87	-0.000
459.07	-0.001
459.28	-0.001
459.48	-0.000
459.68	-0.000
459.89	-0.000
460.09	-0.000
460.29	-0.000
460.49	-0.000
460.70	-0.000
460.90	-0.000
461.10	-0.000
461.31	0.000
461.51	0.000
461.71	0.000
461.91	0.000
462.12	0.000
462.32	0.000
462.52	0.000
462.72	0.000
462.93	-0.000
463.13	-0.000
463.33	-0.001
463.53	-0.001
463.74	-0.001
463.94	-0.001
464.14	-0.001
464.35	-0.001
464.55	-0.001
464.75	-0.001
464.95	-0.001
465.16	-0.001
465.36	-0.001
465.56	-0.000
465.76	-0.001
465.97	-0.001
466.17	-0.001
466.37	-0.001
466.57	-0.001
466.78	-0.000
466.98	-0.000
467.18	-0.000
467.38	-0.001
467.59	-0.000
467.79	-0.000
467.99	-0.000
468.19	-0.000
468.39	-0.000
468.60	-0.001
468.80	-0.000
469.00	-0.000
469.20	-0.000
469.41	-0.000
469.61	-0.000
469.81	-0.001
470.01	-0.001
470.22	-0.001
470.42	-0.001
470.62	-0.000
470.82	-0.001
471.02	-0.001
471.23	-0.001
471.43	-0.001
471.63	-0.001
471.83	-0.001
472.04	-0.001
472.24	-0.001
472.44	-0.001
472.64	-0.001
472.84	-0.001
473.05	-0.001
473.25	-0.001
473.45	-0.001
473.65	-0.001
473.85	-0.001
474.06	-0.001
474.26	-0.001
474.46	-0.001
474.66	-0.001
474.86	-0.001
475.07	-0.001
475.27	-0.001
475.47	-0.001
475.67	-0.000
475.87	-0.000
476.08	-0.000
476.28	-0.000
476.48	-0.000
476.68	-0.000
476.88	-0.000
477.09	-0.000
477.29	-0.000
477.49	-0.000
477.69	-0.001
477.89	-0.001
478.09	-0.001
478.30	-0.001
478.50	-0.001
478.70	-0.001
478.90	-0.001
479.10	-0.001
479.31	-0.001
479.51	-0.001
479.71	-0.001
479.91	-0.001
480.11	-0.001
480.31	-0.001
480.52	-0.001
480.72	-0.001
480.92	-0.001
481.12	-0.001
481.32	-0.000
481.52	-0.001
481.72	-0.001
481.93	-0.001
482.13	-0.001
482.33	-0.001
482.53	-0.001
482.73	-0.001
482.93	-0.001
483.14	-0.001
483.34	-0.001
483.54	-0.001
483.74	-0.001
483.94	-0.001
484.14	-0.001
484.34	-0.001
484.55	-0.001
484.75	-0.001
484.95	-0.001
485.15	-0.001
485.35	-0.001
485.55	-0.001
485.75	-0.001
485.96	-0.001
486.16	-0.001
486.36	-0.001
486.56	-0.001
486.76	-0.001
486.96	-0.001
487.16	-0.001
487.36	-0.001
487.57	-0.001
487.77	-0.001
487.97	-0.001
488.17	-0.001
488.37	-0.001
488.57	-0.001
488.77	-0.001
488.97	-0.001
489.18	-0.000
489.38	-0.001
489.58	-0.001
489.78	-0.000
489.98	-0.000
490.18	-0.000
490.38	-0.000
490.58	-0.000
490.78	-0.000
490.98	-0.000
491.19	-0.000
491.39	-0.001
491.59	-0.001
491.79	-0.000
491.99	-0.000
492.19	-0.001
492.39	-0.001
492.59	-0.001
492.79	-0.001
492.99	-0.001
493.20	-0.001
493.40	-0.001
493.60	-0.001
493.80	-0.001
494.00	-0.001
494.20	-0.001
494.40	-0.001
494.60	-0.001
494.80	-0.000
495.00	-0.001
495.20	-0.000
495.40	-0.000
495.61	-0.000
495.81	-0.000
496.01	-0.001
496.21	-0.000
496.41	-0.000
496.61	-0.000
496.81	-0.000
497.01	-0.000
497.21	-0.000
497.41	-0.000
497.61	-0.000
497.81	-0.000
498.01	-0.000
498.21	-0.000
498.41	-0.000
498.61	-0.000
498.82	-0.000
499.02	-0.000
499.22	-0.000
499.42	-0.000
499.62	-0.000
499.82	-0.000
500.02	-0.000
500.22	-0.000
500.42	-0.001
500.62	-0.001
500.82	-0.001
501.02	-0.001
501.22	-0.000
501.42	-0.001
501.62	-0.001
501.82	-0.001
502.02	-0.001
502.22	-0.001
502.42	-0.001
502.62	-0.001
502.82	-0.001
503.02	-0.001
503.22	-0.001
503.42	-0.000
503.63	-0.000
503.83	-0.000
504.03	-0.000
504.23	-0.001
504.43	-0.001
504.63	-0.001
504.83	-0.001
505.03	-0.001
505.23	-0.001
505.43	-0.000
505.63	-0.001
505.83	-0.001
506.03	-0.001
506.23	-0.001
506.43	-0.001
506.63	-0.000
506.83	-0.000
507.03	-0.000
507.23	-0.000
507.43	-0.000
507.63	-0.000
507.83	-0.000
508.03	-0.001
508.23	-0.001
508.43	-0.001
508.63	-0.001
508.83	-0.000
509.03	-0.000
509.23	-0.000
509.43	-0.000
509.63	-0.000
509.83	-0.000
510.03	-0.000
510.23	-0.000
510.43	-0.000
510.63	-0.000
510.83	-0.000
511.03	-0.000
511.23	-0.000
511.43	-0.000
511.63	-0.000
511.83	-0.000
512.03	-0.000
512.22	-0.000
512.42	-0.000
512.62	-0.000
512.82	-0.000
513.02	-0.000
513.22	-0.000
513.42	-0.000
513.62	-0.000
513.82	-0.000
514.02	-0.000
514.22	-0.000
514.42	-0.000
514.62	-0.000
514.82	-0.000
515.02	-0.000
515.22	-0.000
515.42	-0.000
515.62	-0.000
515.82	-0.000
516.02	-0.000
516.22	-0.000
516.42	-0.000
516.62	-0.000
516.82	-0.000
517.01	-0.000
517.21	-0.000
517.41	-0.000
517.61	-0.000
517.81	-0.000
518.01	-0.000
518.21	-0.000
518.41	-0.000
518.61	-0.000
518.81	-0.000
519.01	-0.000
519.21	-0.000
519.41	-0.000
519.61	-0.000
519.81	-0.000
520.00	-0.000
520.20	-0.000
520.40	-0.000
520.60	-0.000
520.80	-0.000
521.00	-0.000
521.20	-0.000
521.40	-0.000
521.60	-0.000
521.80	-0.000
522.00	-0.000
522.20	-0.000
522.39	-0.000
522.59	-0.000
522.79	-0.000
522.99	-0.000
523.19	-0.000
523.39	-0.000
523.59	-0.000
523.79	-0.000
523.99	-0.000
524.19	-0.000
524.38	0.000
524.58	0.000
524.78	0.000
524.98	-0.000
525.18	-0.000
525.38	-0.000
525.58	-0.000
525.78	-0.000
525.98	-0.000
526.18	-0.000
526.37	-0.000
526.57	-0.000
526.77	-0.000
526.97	-0.000
527.17	-0.000
527.37	-0.000
527.57	-0.000
527.77	-0.000
527.96	-0.000
528.16	-0.000
528.36	-0.000
528.56	-0.000
528.76	-0.000
528.96	-0.000
529.16	-0.000
529.36	-0.000
529.55	-0.000
529.75	-0.000
529.95	-0.000
530.15	-0.000
530.35	-0.000
530.55	0.000
530.75	0.000
530.94	0.000
531.14	0.000
531.34	-0.000
531.54	-0.000
531.74	-0.000
531.94	-0.000
532.13	-0.000
532.33	-0.000
532.53	-0.000
532.73	-0.000
532.93	-0.000
533.13	-0.000
533.33	-0.000
533.52	-0.000
533.72	-0.000
533.92	-0.000
534.12	-0.000
534.32	-0.000
534.52	-0.000
534.71	-0.000
534.91	-0.000
535.11	0.000
535.31	-0.000
535.51	-0.000
535.71	-0.000
535.90	-0.000
536.10	-0.000
536.30	0.000
536.50	0.000
536.70	0.000
536.89	0.000
537.09	0.000
537.29	-0.000
537.49	0.000
537.69	-0.000
537.89	0.000
538.08	0.000
538.28	-0.000
538.48	-0.000
538.68	-0.000
538.88	-0.000
539.07	-0.000
539.27	-0.000
539.47	-0.000
539.67	-0.000
539.87	-0.000
540.06	-0.000
540.26	-0.000
540.46	-0.000
540.66	-0.000
540.86	-0.000
541.05	-0.000
541.25	-0.000
541.45	-0.000
541.65	-0.000
541.84	-0.000
542.04	-0.000
542.24	-0.000
542.44	-0.000
542.64	-0.000
542.83	-0.000
543.03	-0.000
543.23	-0.000
543.43	-0.001
543.62	-0.000
543.82	-0.000
544.02	-0.000
544.22	-0.000
544.42	-0.000
544.61	-0.000
544.81	-0.000
545.01	-0.000
545.21	-0.000
545.40	-0.000
545.60	0.000
545.80	0.000
546.00	0.000
546.19	0.000
546.39	0.000
546.59	0.000
546.79	0.000
546.98	0.000
547.18	0.000
547.38	0.000
547.58	0.000
547.77	0.000
547.97	0.000
548.17	0.000
548.37	0.000
548.56	0.000
548.76	0.000
548.96	0.000
549.16	0.000
549.35	0.000
549.55	0.000
549.75	0.000
549.95	0.000
550.14	0.000
550.34	0.000
550.54	-0.000
550.73	-0.000
550.93	-0.000
551.13	-0.000
551.33	-0.000
551.52	-0.000
551.72	-0.000
551.92	-0.000
552.12	-0.000
552.31	-0.000
552.51	-0.000
552.71	-0.000
552.90	-0.000
553.10	-0.000
553.30	-0.000
553.50	-0.000
553.69	-0.000
553.89	-0.000
554.09	-0.000
554.28	0.000
554.48	0.000
554.68	0.000
554.87	-0.000
555.07	0.000
555.27	0.000
555.47	0.000
555.66	-0.000
555.86	0.000
556.06	0.000
556.25	0.000
556.45	0.000
556.65	0.000
556.84	0.000
557.04	0.000
557.24	0.000
557.43	0.000
557.63	0.000
557.83	0.000
558.02	0.000
558.22	0.000
558.42	0.000
558.61	0.000
558.81	-0.000
559.01	-0.000
559.21	-0.000
559.40	-0.000
559.60	-0.000
559.80	0.000
559.99	0.000
560.19	-0.000
560.39	-0.000
560.58	0.000
560.78	-0.000
560.97	0.000
561.17	0.000
561.37	-0.000
561.56	-0.000
561.76	0.000
561.96	0.000
562.15	0.000
562.35	0.000
562.55	0.000
562.74	-0.000
562.94	0.000
563.14	-0.000
563.33	-0.000
563.53	-0.000
563.73	-0.000
563.92	-0.000
564.12	-0.000
564.31	-0.000
564.51	-0.000
564.71	-0.000
564.90	0.000
565.10	-0.000
565.30	-0.000
565.49	-0.000
565.69	0.000
565.89	-0.000
566.08	-0.000
566.28	-0.000
566.47	0.000
566.67	-0.000
566.87	-0.000
567.06	-0.000
567.26	-0.000
567.46	-0.000
567.65	-0.000
567.85	-0.000
568.04	-0.000
568.24	-0.000
568.44	-0.001
568.63	-0.001
568.83	-0.001
569.02	-0.001
569.22	-0.001
569.42	-0.000
569.61	-0.000
569.81	-0.000
570.00	-0.000
570.20	-0.000
570.40	-0.000
570.59	-0.000
570.79	-0.000
570.98	-0.000
571.18	-0.000
571.38	-0.000
571.57	-0.000
571.77	-0.000
571.96	-0.000
572.16	-0.000
572.35	-0.000
572.55	-0.000
572.75	-0.000
572.94	-0.000
573.14	-0.000
573.33	-0.000
573.53	-0.000
573.73	-0.000
573.92	-0.000
574.12	-0.000
574.31	-0.000
574.51	-0.000
574.70	-0.000
574.90	-0.000
575.09	-0.000
575.29	-0.000
575.49	-0.000
575.68	-0.000
575.88	-0.000
576.07	-0.000
576.27	-0.000
576.46	-0.000
576.66	0.000
576.86	0.000
577.05	0.000
577.25	0.000
577.44	0.000
577.64	0.000
577.83	0.000
578.03	0.000
578.22	0.000
578.42	0.000
578.61	0.000
578.81	0.000
579.00	0.000
579.20	0.000
579.40	0.000
579.59	0.000
579.79	0.000
579.98	0.000
580.18	0.000
580.37	0.000
580.57	0.000
580.76	0.000
580.96	0.000
581.15	0.000
581.35	0.000
581.54	0.000
581.74	0.000
581.93	0.000
582.13	0.000
582.32	0.000
582.52	0.000
582.71	0.000
582.91	0.000
583.10	0.000
583.30	0.000
583.49	0.000
583.69	0.000
583.88	0.000
584.08	0.000
584.27	0.000
584.47	0.000
584.66	0.000
584.86	0.000
585.05	0.000
585.25	0.000
585.44	0.000
585.64	0.000
585.83	0.000
586.03	0.000
586.22	0.000
586.42	0.000
586.61	0.000
586.81	0.000
587.00	0.000
587.20	0.000
587.39	0.000
587.59	0.000
587.78	0.000
587.98	0.000
588.17	0.000
588.37	0.001
588.56	0.000
588.76	0.001
588.95	0.001
589.15	0.000
589.34	0.000
589.54	0.000
589.73	0.000
589.92	0.000
590.12	0.000
590.31	-0.000
590.51	-0.000
590.70	-0.000
590.90	-0.000
591.09	-0.000
591.29	-0.000
591.48	-0.000
591.68	-0.000
591.87	-0.000
592.06	-0.000
592.26	-0.000
592.45	-0.000
592.65	-0.000
592.84	-0.000
593.04	-0.000
593.23	-0.000
593.43	0.000
593.62	-0.000
593.81	-0.000
594.01	0.000
594.20	0.000
594.40	0.000
594.59	0.000
594.79	0.000
594.98	0.000
595.17	0.000
595.37	0.000
595.56	0.000
595.76	0.000
595.95	0.000
596.14	-0.000
596.34	-0.000
596.53	-0.000
596.73	-0.000
596.92	-0.000
597.12	-0.000
597.31	-0.000
597.50	-0.000
597.70	-0.000
597.89	-0.000
598.09	-0.000
598.28	-0.000
598.47	-0.000
598.67	-0.000
598.86	-0.000
599.06	-0.000
599.25	-0.000
599.44	-0.000
599.64	-0.000
599.83	-0.000
600.03	-0.000
600.22	-0.000
600.41	0.000
600.61	0.000
600.80	0.000
601.00	0.000
601.19	0.001
601.38	0.000
601.58	0.000
601.77	0.000
601.96	0.000
602.16	0.000
602.35	0.000
602.55	0.000
602.74	0.000
602.93	0.000
603.13	0.000
603.32	-0.000
603.51	-0.000
603.71	-0.000
603.90	-0.000
604.09	-0.000
604.29	-0.000
604.48	-0.000
604.68	-0.000
604.87	-0.001
605.06	-0.001
605.26	-0.000
605.45	-0.000
605.64	-0.000
605.84	-0.000
606.03	-0.000
606.22	-0.000
606.42	-0.000
606.61	-0.000
606.80	-0.000
607.00	-0.000
607.19	-0.000
607.38	-0.000
607.58	-0.000
607.77	-0.000
607.96	-0.000
608.16	0.000
608.35	0.000
608.54	0.000
608.74	0.000
608.93	0.000
609.12	0.001
609.32	0.001
609.51	0.001
609.70	0.001
609.90	0.001
610.09	0.001
610.28	0.001
610.48	0.001
610.67	0.001
610.86	0.001
611.06	0.000
611.25	0.000
611.44	0.000
611.64	0.000
611.83	0.000
612.02	0.000
612.21	-0.000
612.41	-0.000
612.60	-0.000
612.79	-0.000
612.99	-0.000
613.18	-0.000
613.37	-0.000
613.57	-0.000
613.76	-0.000
613.95	0.000
614.14	0.000
614.34	0.000
614.53	0.000
614.72	0.000
614.92	0.000
615.11	0.000
615.30	0.000
615.49	0.000
615.69	0.000
615.88	0.000
616.07	0.000
616.26	0.000
616.46	0.001
616.65	0.001
616.84	0.001
617.04	0.001
617.23	0.001
617.42	0.001
617.61	0.001
617.81	0.001
618.00	0.001
618.19	0.001
618.38	0.001
618.58	0.001
618.77	0.001
618.96	0.001
619.15	0.001
619.35	0.001
619.54	0.001
619.73	0.001
619.92	0.001
620.12	0.001
620.31	0.001
620.50	0.001
620.69	0.001
620.89	0.001
621.08	0.001
621.27	0.001
621.46	0.001
621.66	0.000
621.85	0.000
622.04	0.001
622.23	0.000
622.43	0.000
622.62	0.000
622.81	0.001
623.00	0.001
623.19	0.001
623.39	0.001
623.58	0.001
623.77	0.001
623.96	0.001
624.16	0.001
624.35	0.001
624.54	0.001
624.73	0.001
624.92	0.000
625.12	0.001
625.31	0.001
625.50	0.000
625.69	0.000
625.88	0.001
626.08	0.001
626.27	0.001
626.46	0.001
626.65	0.001
626.84	0.001
627.04	0.001
627.23	0.001
627.42	0.001
627.61	0.001
627.80	0.001
628.00	0.001
628.19	0.001
628.38	0.001
628.57	0.001
628.76	0.001
628.96	0.001
629.15	0.001
629.34	0.001
629.53	0.001
629.72	0.001
629.91	0.001
630.11	0.001
630.30	0.001
630.49	0.001
630.68	0.001
630.87	0.001
631.06	0.001
631.26	0.001
631.45	0.001
631.64	0.002
631.83	0.001
632.02	0.001
632.21	0.001
632.41	0.002
632.60	0.002
632.79	0.002
632.98	0.001
633.17	0.002
633.36	0.001
633.55	0.001
633.75	0.001
633.94	0.001
634.13	0.001
634.32	0.001
634.51	0.001
634.70	0.001
634.89	0.001
635.09	0.001
635.28	0.001
635.47	0.001
635.66	0.001
635.85	0.001
636.04	0.001
636.23	0.001
636.43	0.001
636.62	0.001
636.81	0.001
637.00	0.001
637.19	0.001
637.38	0.001
637.57	0.001
637.76	0.001
637.95	0.001
638.15	0.001
638.34	0.001
638.53	0.001
638.72	0.002
638.91	0.002
639.10	0.002
639.29	0.002
639.48	0.002
639.67	0.002
639.87	0.002
640.06	0.002
640.25	0.002
640.44	0.001
640.63	0.001
640.82	0.001
641.01	0.001
641.20	0.001
641.39	0.001
641.58	0.002
641.78	0.002
641.97	0.001
642.16	0.002
642.35	0.002
642.54	0.002
642.73	0.002
642.92	0.002
643.11	0.002
643.30	0.002
643.49	0.002
643.68	0.001
643.87	0.001
644.06	0.001
644.25	0.001
644.45	0.001
644.64	0.001
644.83	0.001
645.02	0.001
645.21	0.001
645.40	0.001
645.59	0.001
645.78	0.001
645.97	0.001
646.16	0.001
646.35	0.001
646.54	0.001
646.73	0.001
646.92	0.001
647.11	0.001
647.30	0.001
647.49	0.001
647.68	0.001
647.88	0.001
648.07	0.000
648.26	0.001
648.45	0.001
648.64	0.001
648.83	0.001
649.02	0.001
649.21	0.001
649.40	0.001
649.59	0.001
649.78	0.002
649.97	0.002
650.16	0.002
650.35	0.002
650.54	0.002
650.73	0.002
650.92	0.002
651.11	0.002
651.30	0.002
651.49	0.002
651.68	0.002
651.87	0.002
652.06	0.001
652.25	0.001
652.44	0.001
652.63	0.001
652.82	0.001
653.01	0.001
653.20	0.000
653.39	0.000
653.58	0.000
653.77	-0.000
653.96	-0.000
654.15	-0.000
654.34	-0.000
654.53	-0.000
654.72	-0.000
654.91	-0.000
655.10	0.000
655.29	0.000
655.48	0.000
655.67	0.000
655.86	0.000
656.05	0.000
656.24	0.000
656.43	0.000
656.62	0.000
656.81	0.000
657.00	0.001
657.19	0.001
657.38	0.001
657.57	0.001
657.76	0.001
657.95	0.002
658.14	0.002
658.33	0.002
658.51	0.002
658.70	0.002
658.89	0.002
659.08	0.002
659.27	0.002
659.46	0.002
659.65	0.002
659.84	0.002
660.03	0.002
660.22	0.002
660.41	0.002
660.60	0.002
660.79	0.002
660.98	0.002
661.17	0.002
661.36	0.002
661.55	0.002
661.74	0.002
661.92	0.001
662.11	0.001
662.30	0.001
662.49	0.001
662.68	0.001
662.87	0.001
663.06	0.001
663.25	0.001
663.44	0.002
663.63	0.002
663.82	0.002
664.01	0.002
664.20	0.002
664.38	0.002
664.57	0.002
664.76	0.002
664.95	0.002
665.14	0.002
665.33	0.002
665.52	0.002
665.71	0.002
665.90	0.001
666.09	0.001
666.28	0.001
666.46	0.001
666.65	0.001
666.84	0.001
667.03	0.001
667.22	0.001
667.41	0.001
667.60	0.001
667.79	0.001
667.98	0.001
668.16	0.001
668.35	0.001
668.54	0.001
668.73	0.001
668.92	0.001
669.11	0.001
669.30	0.001
669.49	0.001
669.67	0.001
669.86	0.001
670.05	0.001
670.24	0.001
670.43	0.001
670.62	0.001
670.81	0.001
671.00	0.001
671.18	0.001
671.37	0.001
671.56	0.001
671.75	0.001
671.94	0.001
672.13	0.001
672.32	0.001
672.50	0.001
672.69	0.001
672.88	0.001
673.07	0.001
673.26	0.002
673.45	0.002
673.63	0.002
673.82	0.002
674.01	0.002
674.20	0.002
674.39	0.002
674.58	0.002
674.76	0.002
674.95	0.002
675.14	0.002
675.33	0.001
675.52	0.001
675.71	0.001
675.89	0.001
676.08	0.001
676.27	0.002
676.46	0.002
676.65	0.002
676.84	0.002
677.02	0.002
677.21	0.002
677.40	0.002
677.59	0.002
677.78	0.002
677.96	0.002
678.15	0.002
678.34	0.002
678.53	0.002
678.72	0.002
678.90	0.002
679.09	0.002
679.28	0.002
679.47	0.001
679.66	0.001
679.84	0.001
680.03	0.001
680.22	0.001
680.41	0.001
680.60	0.001
680.78	0.001
680.97	0.001
681.16	0.001
681.35	0.001
681.53	0.001
681.72	0.001
681.91	0.001
682.10	0.001
682.29	0.001
682.47	0.001
682.66	0.001
682.85	0.001
683.04	0.001
683.22	0.001
683.41	0.001
683.60	0.001
683.79	0.001
683.97	0.001
684.16	0.001
684.35	0.001
684.54	0.001
684.72	0.001
684.91	0.001
685.10	0.001
685.29	0.001
685.47	0.001
685.66	0.001
685.85	0.001
686.04	0.001
686.22	0.001
686.41	0.001
686.60	0.001
686.79	0.001
686.97	0.001
687.16	0.001
687.35	0.001
687.54	0.001
687.72	0.001
687.91	0.001
688.10	0.001
688.29	0.001
688.47	0.001
688.66	0.001
688.85	0.001
689.03	0.002
689.22	0.001
689.41	0.002
689.60	0.002
689.78	0.001
689.97	0.001
690.16	0.001
690.34	0.001
690.53	0.001
690.72	0.001
690.91	0.001
691.09	0.001
691.28	0.001
691.47	0.001
691.65	0.001
691.84	0.001
692.03	0.001
692.21	0.001
692.40	0.001
692.59	0.001
692.77	0.001
692.96	0.001
693.15	0.001
693.34	0.001
693.52	0.001
693.71	0.001
693.90	0.001
694.08	0.001
694.27	0.001
694.46	0.001
694.64	0.001
694.83	0.001
695.02	0.002
695.20	0.001
695.39	0.001
695.58	0.001
695.76	0.001
695.95	0.001
696.14	0.001
696.32	0.001
696.51	0.001
696.70	0.001
696.88	0.001
697.07	0.001
697.26	0.001
697.44	0.001
697.63	0.001
697.81	0.001
698.00	0.002
698.19	0.002
698.37	0.002
698.56	0.002
698.75	0.002
698.93	0.002
699.12	0.002
699.31	0.002
699.49	0.002
699.68	0.002
699.87	0.002
700.05	0.002
700.24	0.002
700.42	0.002
700.61	0.002
700.80	0.001
700.98	0.001
701.17	0.001
701.36	0.001
701.54	0.001
701.73	0.001
701.91	0.001
702.10	0.001
702.29	0.001
702.47	0.001
702.66	0.001
702.84	0.001
703.03	0.002
703.22	0.002
703.40	0.002
703.59	0.002
703.77	0.002
703.96	0.002
704.15	0.002
704.33	0.002
704.52	0.002
704.70	0.002
704.89	0.002
705.08	0.002
705.26	0.002
705.45	0.002
705.63	0.002
705.82	0.002
706.00	0.002
706.19	0.002
706.38	0.002
706.56	0.002
706.75	0.002
706.93	0.002
707.12	0.001
707.30	0.001
707.49	0.001
707.68	0.001
707.86	0.001
708.05	0.001
708.23	0.001
708.42	0.002
708.60	0.001
708.79	0.001
708.98	0.001
709.16	0.001
709.35	0.001
709.53	0.001
709.72	0.002
709.90	0.002
710.09	0.002
710.27	0.002
710.46	0.002
710.64	0.002
710.83	0.002
711.02	0.002
711.20	0.002
711.39	0.002
711.57	0.002
711.76	0.002
711.94	0.002
712.13	0.002
712.31	0.002
712.50	0.002
712.68	0.002
712.87	0.002
713.05	0.002
713.24	0.001
713.42	0.001
713.61	0.001
713.79	0.001
713.98	0.001
714.16	0.001
714.35	0.001
714.54	0.001
714.72	0.001
714.91	0.001
715.09	0.001
715.28	0.001
715.46	0.001
715.65	0.001
715.83	0.001
716.02	0.001
716.20	0.001
716.39	0.001
716.57	0.001
716.76	0.002
716.94	0.001
717.12	0.001
717.31	0.001
717.49	0.001
717.68	0.002
717.86	0.001
718.05	0.001
718.23	0.001
718.42	0.002
718.60	0.002
718.79	0.001
718.97	0.001
719.16	0.001
719.34	0.001
719.53	0.002
719.71	0.001
719.90	0.001
720.08	0.001
720.27	0.001
720.45	0.001
720.63	0.001
720.82	0.001
721.00	0.001
721.19	0.001
721.37	0.002
721.56	0.002
721.74	0.002
721.93	0.002
722.11	0.002
722.30	0.002
722.48	0.002
722.66	0.002
722.85	0.003
723.03	0.002
723.22	0.002
723.40	0.002
723.59	0.002
723.77	0.002
723.95	0.002
724.14	0.002
724.32	0.002
724.51	0.002
724.69	0.002
724.88	0.002
725.06	0.002
725.24	0.002
725.43	0.002
725.61	0.001
725.80	0.001
725.98	0.001
726.16	0.001
726.35	0.001
726.53	0.001
726.72	0.001
726.90	0.001
727.09	0.001
727.27	0.001
727.45	0.001
727.64	0.001
727.82	0.001
728.01	0.001
728.19	0.001
728.37	0.001
728.56	0.001
728.74	0.001
728.92	0.001
729.11	0.001
729.29	0.001
729.48	0.001
729.66	0.001
729.84	0.001
730.03	0.001
730.21	0.001
730.40	0.001
730.58	0.001
730.76	0.001
730.95	0.001
731.13	0.001
731.31	0.001
731.50	0.001
731.68	0.002
731.86	0.002
732.05	0.002
732.23	0.002
732.42	0.001
732.60	0.002
732.78	0.002
732.97	0.002
733.15	0.001
733.33	0.001
733.52	0.001
733.70	0.001
733.88	0.001
734.07	0.001
734.25	0.001
734.43	0.001
734.62	0.001
734.80	0.000
734.98	-0.000
735.17	-0.000
735.35	-0.000
735.53	-0.000
735.72	-0.000
735.90	-0.001
736.08	-0.000
736.27	-0.001
736.45	-0.001
736.63	-0.001
736.82	-0.001
737.00	-0.001
737.18	-0.000
737.37	-0.000
737.55	0.000
737.73	0.000
737.92	-0.000
738.10	-0.000
738.28	-0.000
738.46	-0.000
738.65	-0.000
738.83	-0.000
739.01	-0.000
739.20	-0.001
739.38	-0.001
739.56	-0.000
739.75	-0.001
739.93	-0.000
740.11	-0.000
740.29	-0.000
740.48	0.000
740.66	0.000
740.84	0.000
741.03	0.001
741.21	0.002
741.39	0.002
741.57	0.002
741.76	0.002
741.94	0.001
742.12	0.001
742.31	0.001
742.49	0.001
742.67	0.001
742.85	0.001
743.04	0.001
743.22	0.001
743.40	0.000
743.58	0.000
743.77	0.001
743.95	0.001
744.13	0.001
744.31	0.002
744.50	0.002
744.68	0.002
744.86	0.002
745.04	0.001
745.23	0.001
745.41	0.001
745.59	0.001
745.77	0.001
745.96	0.001
746.14	0.001
746.32	0.001
746.50	0.002
746.69	0.001
746.87	0.001
747.05	0.001
747.23	0.001
747.42	0.001
747.60	0.001
747.78	0.001
747.96	0.001
748.14	0.002
748.33	0.002
748.51	0.002
748.69	0.002
748.87	0.002
749.06	0.003
749.24	0.003
749.42	0.003
749.60	0.003
749.78	0.003
749.97	0.003
750.15	0.002
750.33	0.002
750.51	0.001
750.69	0.001
750.88	0.001
751.06	0.000
751.24	0.001
751.42	0.001
751.60	0.000
751.79	0.000
751.97	0.001
752.15	0.000
752.33	0.001
752.51	0.001
752.69	0.001
752.88	0.002
753.06	0.003
753.24	0.002
753.42	0.002
753.60	0.003
753.78	0.002
753.97	0.002
754.15	0.002
754.33	0.002
754.51	0.002
754.69	0.002
754.87	0.002
755.06	0.001
755.24	0.001
755.42	0.001
755.60	0.001
755.78	0.002
755.96	0.001
756.15	0.001
756.33	0.001
756.51	0.001
756.69	0.002
756.87	0.002
757.05	0.002
757.23	0.001
757.42	0.001
757.60	0.000
757.78	0.000
757.96	0.000
758.14	0.001
758.32	0.001
758.50	0.000
758.69	-0.000
758.87	-0.000
759.05	0.000
759.23	0.000
759.41	0.001
759.59	0.001
759.77	0.001
759.95	0.001
760.13	0.001
760.32	0.001
760.50	0.002
760.68	0.002
760.86	0.002
761.04	0.003
761.22	0.003
761.40	0.002
761.58	0.002
761.76	0.002
761.95	0.002
762.13	0.002
762.31	0.002
762.49	0.002
762.67	0.002
762.85	0.001
763.03	0.001
763.21	0.001
763.39	0.002
763.57	0.002
763.75	0.002
763.94	0.002
764.12	0.002
764.30	0.002
764.48	0.001
764.66	0.001
764.84	0.000
765.02	0.000
765.20	-0.000
765.38	-0.000
765.56	-0.000
765.74	-0.001
765.92	-0.000
766.10	-0.001
766.28	-0.000
766.46	-0.000
766.65	0.000
766.83	0.000
767.01	0.001
767.19	0.001
767.37	0.000
767.55	0.001
767.73	0.001
767.91	0.000
768.09	0.000
768.27	0.000
768.45	0.000
768.63	0.000
768.81	0.000
768.99	0.000
769.17	0.000
769.35	0.000
769.53	-0.000
769.71	0.001
769.89	0.001
770.07	0.001
770.25	0.001
770.43	0.001
770.61	0.001
770.79	0.001
770.97	0.001
771.15	0.001
771.33	0.001
771.51	0.001
771.69	0.001
771.87	0.001
772.05	0.001
772.24	0.001
772.42	0.001
772.60	0.002
772.78	0.001
772.96	0.002
773.14	0.002
773.32	0.002
773.49	0.002
773.67	0.002
773.85	0.002
774.03	0.002
774.21	0.002
774.39	0.002
774.57	0.002
774.75	0.001
774.93	0.001
775.11	0.002
775.29	0.002
775.47	0.001
775.65	0.001
775.83	0.001
776.01	0.001
776.19	0.001
776.37	0.002
776.55	0.002
776.73	0.002
776.91	0.002
777.09	0.002
777.27	0.002
777.45	0.002
777.63	0.002
777.81	0.003
777.99	0.003
778.17	0.003
778.35	0.002
778.53	0.002
778.71	0.001
778.89	0.001
779.07	0.001
779.24	0.001
779.42	0.001
779.60	0.001
779.78	0.000
779.96	0.000
780.14	0.000
780.32	0.000
780.50	0.000
780.68	0.000
780.86	-0.000
781.04	0.000
781.22	0.001
781.40	0.001
781.58	0.001
781.75	0.002
781.93	0.002
782.11	0.002
782.29	0.003
782.47	0.003
782.65	0.003
782.83	0.003
783.01	0.004
783.19	0.004
783.37	0.003
783.55	0.003
783.72	0.003
783.90	0.002
784.08	0.002
784.26	0.002
784.44	0.002
784.62	0.001
784.80	0.002
784.98	0.001
785.16	0.001
785.33	0.001
785.51	0.002
785.69	0.002
785.87	0.002
786.05	0.002
786.23	0.002
786.41	0.001
786.59	0.001
786.77	0.002
786.94	0.001
787.12	0.002
787.30	0.001
787.48	0.001
787.66	0.001
787.84	0.001
788.02	0.002
788.19	0.001
788.37	0.002
788.55	0.002
788.73	0.002
788.91	0.002
789.09	0.002
789.27	0.002
789.44	0.002
789.62	0.002
789.80	0.001
789.98	0.001
790.16	0.001
790.34	0.000
790.51	0.001
790.69	0.001
790.87	0.001
791.05	0.001
791.23	0.002
791.41	0.002
791.58	0.002
791.76	0.002
791.94	0.002
792.12	0.003
792.30	0.003
792.48	0.003
792.65	0.003
792.83	0.003
793.01	0.003
793.19	0.002
793.37	0.002
793.54	0.002
793.72	0.002
793.90	0.002
794.08	0.002
794.26	0.002
794.43	0.002
794.61	0.002
794.79	0.002
794.97	0.002
795.15	0.002
795.32	0.002
795.50	0.002
795.68	0.002
795.86	0.002
796.04	0.002
796.21	0.002
796.39	0.002
796.57	0.002
796.75	0.002
796.92	0.002
797.10	0.002
797.28	0.002
797.46	0.002
797.64	0.002
797.81	0.002
797.99	0.002
798.17	0.002
798.35	0.002
798.52	0.002
798.70	0.002
798.88	0.002
799.06	0.002
799.23	0.002
799.41	0.002
799.59	0.002
799.77	0.002
799.94	0.002
800.12	0.002
800.30	0.002
800.48	0.002
800.65	0.002
800.83	0.002
801.01	0.002
801.19	0.002
801.36	0.002
801.54	0.003
801.72	0.003
801.90	0.003
802.07	0.003
802.25	0.003
802.43	0.003
802.60	0.003
802.78	0.003
802.96	0.003
803.14	0.003
803.31	0.002
803.49	0.002
803.67	0.002
803.84	0.001
804.02	0.002
804.20	0.002
804.38	0.002
804.55	0.002
804.73	0.002
804.91	0.002
805.08	0.002
805.26	0.002
805.44	0.002
805.61	0.002
805.79	0.003
805.97	0.002
806.15	0.002
806.32	0.003
806.50	0.003
806.68	0.003
806.85	0.002
807.03	0.002
807.21	0.002
807.38	0.002
807.56	0.003
807.74	0.002
807.91	0.002
808.09	0.002
808.27	0.001
808.44	0.001
808.62	0.001
808.80	0.002
808.97	0.002
809.15	0.002
809.33	0.002
809.50	0.001
809.68	0.002
809.86	0.002
810.03	0.002
810.21	0.002
810.39	0.002
810.56	0.002
810.74	0.002
810.91	0.001
811.09	0.001
811.27	0.001
811.44	0.001
811.62	0.001
811.80	0.001
811.97	0.001
812.15	0.002
812.33	0.002
812.50	0.002
812.68	0.002
812.85	0.002
813.03	0.002
813.21	0.002
813.38	0.002
813.56	0.002
813.74	0.002
813.91	0.002
814.09	0.002
814.26	0.002
814.44	0.002
814.62	0.002
814.79	0.001
814.97	0.002
815.14	0.002
815.32	0.001
815.50	0.001
815.67	0.002
815.85	0.002
816.02	0.002
816.20	0.002
816.38	0.002
816.55	0.002
816.73	0.003
816.90	0.002
817.08	0.002
817.26	0.003
817.43	0.002
817.61	0.002
817.78	0.002
817.96	0.002
818.13	0.001
818.31	0.002
818.49	0.001
818.66	0.001
818.84	0.001
819.01	0.000
819.19	0.000
819.36	0.001
819.54	0.002
819.71	0.001
819.89	0.001
820.07	0.001
820.24	0.001
820.42	0.001
820.59	0.001
820.77	0.002
820.94	0.001
821.12	0.002
821.29	0.001
821.47	0.002
821.64	0.002
821.82	0.002
822.00	0.002
822.17	0.002
822.35	0.002
822.52	0.002
822.70	0.001
822.87	0.001
823.05	0.001
823.22	0.001
823.40	0.000
823.57	0.000
823.75	0.000
823.92	0.001
824.10	0.001
824.27	0.001
824.45	0.001
824.62	0.002
824.80	0.002
824.97	0.002
825.15	0.002
825.32	0.003
825.50	0.003
825.67	0.003
825.85	0.002
826.02	0.002
826.20	0.003
826.37	0.003
826.55	0.003
826.72	0.004
826.90	0.003
827.07	0.004
827.25	0.003
827.42	0.002
827.60	0.003
827.77	0.002
827.95	0.003
828.12	0.002
828.30	0.002
828.47	0.001
828.65	0.000
828.82	0.001
829.00	0.001
829.17	0.001
829.34	0.002
829.52	0.002
829.69	0.002
829.87	0.002
830.04	0.002
830.22	0.002
830.39	0.003
830.57	0.003
830.74	0.003
830.92	0.004
831.09	0.003
831.26	0.002
831.44	0.002
831.61	0.003
831.79	0.004
831.96	0.004
832.14	0.004
832.31	0.004
832.49	0.003
832.66	0.002
832.83	0.003
833.01	0.003
833.18	0.004
833.36	0.003
833.53	0.003
833.70	0.002
833.88	0.002
834.05	0.001
834.23	0.001
834.40	0.000
834.58	0.000
834.75	-0.000
834.92	0.000
835.10	-0.001
835.27	-0.001
835.45	-0.001
835.62	-0.001
835.79	0.001
835.97	0.001
836.14	0.001
836.32	0.002
836.49	0.003
836.66	0.001
836.84	0.001
837.01	0.002
837.18	0.004
837.36	0.004
837.53	0.002
837.71	0.001
837.88	0.002
838.05	0.001
838.23	0.001
838.40	0.002
838.58	0.002
838.75	0.002
838.92	0.001
839.10	-0.002
839.27	-0.001
839.44	0.000
839.62	0.001
839.79	0.002
839.96	0.005
840.14	0.004
840.31	0.003
840.48	0.002
840.66	0.005
840.83	0.005
841.01	0.005
841.18	0.004
841.35	0.003
841.53	0.001
841.70	0.001
841.87	-0.002
842.05	-0.002
842.22	-0.002
842.39	-0.004
842.57	-0.004
842.74	-0.003
842.91	-0.001
843.09	-0.001
843.26	0.001
843.43	0.003
843.60	0.002
843.78	0.004
843.95	0.005
844.12	0.007
844.30	0.010
844.47	0.008
844.64	0.009
844.82	0.007
844.99	0.007
845.16	0.007
845.34	0.006
845.51	0.007
845.68	0.006
845.85	0.006
846.03	0.007
846.20	0.007
846.37	0.008
846.55	0.008
846.72	0.010
846.89	0.009
847.06	0.011
847.24	0.011
847.41	0.008
847.58	0.006
847.76	0.007
847.93	0.006
848.10	0.005
848.27	0.005
848.45	0.005
848.62	0.006
848.79	0.005
848.97	0.004
849.14	0.004
849.31	0.008
849.48	0.009
849.66	0.009
849.83	0.007
850.00	0.007
850.17	0.006
850.35	0.004
850.52	-0.000
850.69	0.002
850.86	0.003
851.04	0.003
851.21	0.001
851.38	-0.000
851.55	-0.002
851.72	-0.002
851.90	0.002
852.07	0.002
852.24	0.003
852.41	0.003
852.59	0.002
852.76	0.001
852.93	0.002
853.10	0.002
853.28	0.005
853.45	0.006
853.62	0.007
853.79	0.005
853.96	0.005
854.14	0.007
854.31	0.008
854.48	0.008
854.65	0.008
854.82	0.006
855.00	0.005
855.17	0.004
855.34	0.004
855.51	0.004
855.68	0.006
855.86	0.007
856.03	0.004
856.20	0.004
856.37	0.003
856.54	0.002
856.72	0.001
856.89	-0.001
857.06	0.000
857.23	0.002
857.40	0.001
857.57	0.000
857.75	-0.000
857.92	0.000
858.09	-0.002
858.26	0.001
858.43	-0.000
858.60	0.001
858.78	0.002
858.95	0.002
859.12	0.001
859.29	-0.001
859.46	-0.000
859.63	0.003
859.81	0.006
859.98	0.009
860.15	0.006
860.32	0.012
860.49	0.009
860.66	0.009
860.83	0.008
861.01	0.006
861.18	0.007
861.35	0.006
861.52	0.003
861.69	-0.001
861.86	0.002
862.03	0.004
862.21	0.001
862.38	0.005
862.55	0.005
862.72	0.006
862.89	0.009
863.06	0.011
863.23	0.012
863.40	0.012
863.58	0.011
863.75	0.007
863.92	0.002
864.09	0.003
864.26	0.002
864.43	0.004
864.60	0.005
864.77	0.002
864.94	0.006
865.11	0.004
865.29	0.003
865.46	0.005
865.63	0.003
865.80	0.007
865.97	0.008
866.14	0.009
866.31	0.006
866.48	0.004
866.65	0.006
866.82	0.000
866.99	0.002
867.16	-0.001
867.34	-0.003
867.51	-0.002
867.68	-0.003
867.85	-0.005
868.02	-0.007
868.19	-0.009
868.36	-0.008
868.53	-0.012
868.70	-0.012
868.87	-0.019
869.04	-0.014
869.21	-0.010
869.38	-0.011
869.55	-0.014
869.72	-0.013
869.89	-0.010
870.06	-0.007
870.24	-0.009
870.41	-0.008
870.58	-0.004
870.75	0.005
870.92	0.005
871.09	0.003
871.26	0.008
871.43	0.015
871.60	0.016
871.77	0.013
871.94	0.015
872.11	0.015
872.28	0.018
872.45	0.015
872.62	0.012
872.79	0.008
872.96	0.007
873.13	0.004
873.30	-0.005
873.47	-0.007
873.64	-0.009
873.81	-0.011
873.98	-0.006
874.15	-0.006
874.32	-0.009
874.49	-0.002
874.66	0.001
874.83	0.009
875.00	0.006
875.17	0.013
875.34	0.017
875.51	0.024
875.68	0.026
875.85	0.024
876.02	0.025
876.19	0.031
876.36	0.026
876.53	0.033
876.70	0.027
876.87	0.029
877.04	0.026
877.21	0.027
877.38	0.020
877.55	0.026
877.72	0.024
877.89	0.016
878.06	0.009
878.23	0.009
878.39	0.002
878.56	0.003
878.73	0.005
878.90	0.003
879.07	-0.001
879.24	-0.004
879.41	-0.010
879.58	-0.007
879.75	-0.001
879.92	0.005
880.09	0.007
880.26	0.006
880.43	0.002
880.60	0.004
880.77	0.011
880.94	0.016
881.11	0.023
881.27	0.025
881.44	0.018
881.61	0.018
881.78	0.009
881.95	0.005
882.12	0.004
882.29	0.004
882.46	0.001
882.63	0.002
882.80	0.004
882.97	0.001
883.14	-0.006
883.30	-0.004
883.47	-0.006
883.64	-0.000
883.81	0.004
883.98	0.006
884.15	0.005
884.32	0.006
884.49	0.001
884.66	-0.009
884.82	-0.008
884.99	-0.002
885.16	0.003
885.33	-0.004
885.50	-0.002
885.67	0.000
885.84	0.006
886.01	0.003
886.17	-0.003
886.34	0.006
886.51	0.013
886.68	0.013
886.85	0.012
887.02	0.009
887.19	0.021
887.36	0.013
887.52	0.007
887.69	0.009
887.86	0.013
888.03	0.017
888.20	0.011
888.37	0.007
888.54	0.007
888.70	0.008
888.87	0.007
889.04	0.006
889.21	0.009
889.38	0.011
889.55	0.003
889.71	0.008
889.88	0.024
890.05	-0.077
890.22	0.013
890.39	-0.014
>>>>>End Processed Spectral Data<<<<<
