SpectraSuite Data File
++++++++++++++++++++++++++++++++++++
Date: Mon Jun 15 09:47:08 PDT 2015
User: introlabs
Dark Spectrum Present: Yes
Reference Spectrum Present: Yes
Number of Sampled Component Spectra: 1
Spectrometers: USB4H08886
Integration Time (usec): 44366 (USB4H08886)
Spectra Averaged: 20 (USB4H08886)
Boxcar Smoothing: 5 (USB4H08886)
Correct for Electrical Dark: Yes (USB4H08886)
Strobe/Lamp Enabled: No (USB4H08886)
Correct for Detector Non-linearity: Yes (USB4H08886)
Correct for Stray Light: Yes (USB4H08886)
Number of Pixels in Processed Spectrum: 3648
>>>>>Begin Processed Spectral Data<<<<<
178.14	0.220
178.36	0.220
178.57	0.220
178.79	0.352
179.01	-0.000
179.22	0.368
179.44	-0.089
179.65	0.370
179.87	0.516
180.08	0.367
180.30	0.348
180.52	0.197
180.73	0.206
180.95	0.623
181.16	0.448
181.38	0.491
181.59	0.591
181.81	0.597
182.03	0.618
182.24	0.617
182.46	0.619
182.67	0.623
182.89	0.600
183.10	0.607
183.32	0.596
183.54	0.607
183.75	0.592
183.97	0.596
184.18	0.607
184.40	0.639
184.61	0.655
184.83	0.678
185.04	0.695
185.26	0.721
185.48	0.728
185.69	0.766
185.91	0.739
186.12	0.725
186.34	0.727
186.55	0.681
186.77	0.692
186.98	0.654
187.20	0.617
187.42	0.632
187.63	0.637
187.85	0.635
188.06	0.670
188.28	0.693
188.49	0.698
188.71	0.698
188.92	0.711
189.14	0.661
189.36	0.666
189.57	0.679
189.79	0.663
190.00	0.651
190.22	0.625
190.43	0.592
190.65	0.569
190.86	0.596
191.08	0.586
191.29	0.570
191.51	0.583
191.72	0.574
191.94	0.579
192.16	0.584
192.37	0.582
192.59	0.604
192.80	0.615
193.02	0.628
193.23	0.615
193.45	0.602
193.66	0.619
193.88	0.609
194.09	0.623
194.31	0.618
194.52	0.616
194.74	0.618
194.95	0.634
195.17	0.623
195.38	0.613
195.60	0.594
195.81	0.627
196.03	0.630
196.25	0.642
196.46	0.637
196.68	0.685
196.89	0.648
197.11	0.647
197.32	0.620
197.54	0.643
197.75	0.679
197.97	0.676
198.18	0.655
198.40	0.675
198.61	0.699
198.83	0.681
199.04	0.660
199.26	0.707
199.47	0.668
199.69	0.668
199.90	0.655
200.12	0.627
200.33	0.650
200.55	0.645
200.76	0.632
200.98	0.576
201.19	0.581
201.41	0.559
201.62	0.549
201.84	0.570
202.05	0.587
202.27	0.594
202.48	0.627
202.70	0.611
202.91	0.626
203.13	0.616
203.34	0.644
203.56	0.656
203.77	0.658
203.99	0.654
204.20	0.698
204.42	0.680
204.63	0.649
204.85	0.625
205.06	0.610
205.28	0.604
205.49	0.586
205.71	0.588
205.92	0.612
206.14	0.621
206.35	0.624
206.56	0.603
206.78	0.612
206.99	0.635
207.21	0.640
207.42	0.639
207.64	0.626
207.85	0.636
208.07	0.672
208.28	0.647
208.50	0.665
208.71	0.655
208.93	0.646
209.14	0.668
209.36	0.670
209.57	0.651
209.79	0.689
210.00	0.716
210.22	0.712
210.43	0.672
210.64	0.660
210.86	0.646
211.07	0.645
211.29	0.653
211.50	0.632
211.72	0.619
211.93	0.655
212.15	0.642
212.36	0.631
212.58	0.653
212.79	0.701
213.01	0.717
213.22	0.719
213.43	0.714
213.65	0.725
213.86	0.718
214.08	0.749
214.29	0.689
214.51	0.673
214.72	0.694
214.94	0.691
215.15	0.687
215.36	0.717
215.58	0.711
215.79	0.707
216.01	0.713
216.22	0.710
216.44	0.672
216.65	0.709
216.87	0.740
217.08	0.714
217.29	0.723
217.51	0.714
217.72	0.675
217.94	0.684
218.15	0.707
218.37	0.685
218.58	0.681
218.80	0.700
219.01	0.681
219.22	0.666
219.44	0.662
219.65	0.653
219.87	0.652
220.08	0.663
220.30	0.644
220.51	0.627
220.72	0.643
220.94	0.646
221.15	0.661
221.37	0.666
221.58	0.696
221.79	0.748
222.01	0.750
222.22	0.733
222.44	0.725
222.65	0.730
222.87	0.744
223.08	0.744
223.29	0.738
223.51	0.709
223.72	0.702
223.94	0.693
224.15	0.652
224.36	0.632
224.58	0.628
224.79	0.655
225.01	0.678
225.22	0.687
225.44	0.677
225.65	0.694
225.86	0.710
226.08	0.721
226.29	0.709
226.51	0.723
226.72	0.753
226.93	0.778
227.15	0.764
227.36	0.774
227.58	0.787
227.79	0.797
228.00	0.823
228.22	0.827
228.43	0.873
228.65	0.920
228.86	0.924
229.07	0.971
229.29	0.953
229.50	0.950
229.72	0.926
229.93	0.916
230.14	0.929
230.36	0.916
230.57	0.925
230.78	0.916
231.00	0.892
231.21	0.913
231.43	0.883
231.64	0.900
231.85	0.917
232.07	0.940
232.28	0.961
232.50	0.980
232.71	0.984
232.92	1.000
233.14	0.998
233.35	1.024
233.56	1.029
233.78	1.062
233.99	1.069
234.21	1.100
234.42	1.111
234.63	1.143
234.85	1.163
235.06	1.182
235.27	1.196
235.49	1.201
235.70	1.203
235.91	1.215
236.13	1.196
236.34	1.218
236.56	1.210
236.77	1.227
236.98	1.231
237.20	1.254
237.41	1.266
237.62	1.276
237.84	1.306
238.05	1.330
238.26	1.320
238.48	1.358
238.69	1.368
238.91	1.390
239.12	1.414
239.33	1.409
239.55	1.412
239.76	1.431
239.97	1.448
240.19	1.451
240.40	1.451
240.61	1.475
240.83	1.481
241.04	1.508
241.25	1.526
241.47	1.549
241.68	1.582
241.89	1.577
242.11	1.582
242.32	1.592
242.53	1.613
242.75	1.627
242.96	1.669
243.17	1.712
243.39	1.730
243.60	1.743
243.81	1.734
244.03	1.729
244.24	1.744
244.45	1.769
244.67	1.791
244.88	1.787
245.09	1.813
245.31	1.802
245.52	1.790
245.73	1.773
245.95	1.783
246.16	1.774
246.37	1.804
246.59	1.822
246.80	1.844
247.01	1.822
247.23	1.839
247.44	1.853
247.65	1.860
247.87	1.862
248.08	1.876
248.29	1.873
248.51	1.888
248.72	1.879
248.93	1.880
249.15	1.867
249.36	1.885
249.57	1.883
249.78	1.886
250.00	1.893
250.21	1.892
250.42	1.893
250.64	1.901
250.85	1.911
251.06	1.915
251.28	1.917
251.49	1.915
251.70	1.900
251.92	1.908
252.13	1.895
252.34	1.891
252.55	1.898
252.77	1.916
252.98	1.925
253.19	1.928
253.41	1.940
253.62	1.943
253.83	1.941
254.05	1.961
254.26	1.964
254.47	1.985
254.68	1.992
254.90	2.006
255.11	2.012
255.32	2.013
255.54	2.018
255.75	2.001
255.96	1.999
256.17	2.017
256.39	2.019
256.60	2.040
256.81	2.041
257.03	2.036
257.24	2.025
257.45	2.006
257.66	2.014
257.88	2.013
258.09	2.024
258.30	2.037
258.51	2.047
258.73	2.059
258.94	2.054
259.15	2.045
259.37	2.085
259.58	2.124
259.79	2.124
260.00	2.125
260.22	2.118
260.43	2.143
260.64	2.131
260.85	2.126
261.07	2.133
261.28	2.105
261.49	2.094
261.71	2.071
261.92	2.059
262.13	2.062
262.34	2.057
262.56	2.067
262.77	2.040
262.98	2.046
263.19	2.051
263.41	2.047
263.62	2.071
263.83	2.093
264.04	2.086
264.26	2.060
264.47	2.065
264.68	2.066
264.89	2.086
265.11	2.097
265.32	2.094
265.53	2.090
265.74	2.099
265.96	2.104
266.17	2.114
266.38	2.124
266.59	2.149
266.81	2.159
267.02	2.172
267.23	2.158
267.44	2.177
267.65	2.185
267.87	2.190
268.08	2.188
268.29	2.168
268.50	2.168
268.72	2.164
268.93	2.156
269.14	2.162
269.35	2.148
269.57	2.148
269.78	2.131
269.99	2.138
270.20	2.143
270.41	2.134
270.63	2.148
270.84	2.132
271.05	2.130
271.26	2.158
271.48	2.156
271.69	2.156
271.90	2.154
272.11	2.163
272.32	2.165
272.54	2.168
272.75	2.183
272.96	2.186
273.17	2.191
273.39	2.190
273.60	2.152
273.81	2.156
274.02	2.159
274.23	2.174
274.45	2.176
274.66	2.177
274.87	2.159
275.08	2.151
275.29	2.152
275.51	2.159
275.72	2.173
275.93	2.183
276.14	2.177
276.35	2.174
276.57	2.156
276.78	2.139
276.99	2.145
277.20	2.151
277.41	2.160
277.63	2.149
277.84	2.141
278.05	2.152
278.26	2.169
278.47	2.186
278.69	2.201
278.90	2.215
279.11	2.231
279.32	2.244
279.53	2.247
279.74	2.240
279.96	2.272
280.17	2.292
280.38	2.284
280.59	2.269
280.80	2.267
281.02	2.247
281.23	2.240
281.44	2.249
281.65	2.244
281.86	2.247
282.07	2.267
282.29	2.258
282.50	2.266
282.71	2.267
282.92	2.291
283.13	2.288
283.35	2.300
283.56	2.327
283.77	2.344
283.98	2.329
284.19	2.348
284.40	2.338
284.62	2.334
284.83	2.318
285.04	2.323
285.25	2.320
285.46	2.324
285.67	2.323
285.88	2.320
286.10	2.336
286.31	2.338
286.52	2.327
286.73	2.330
286.94	2.347
287.15	2.367
287.37	2.374
287.58	2.370
287.79	2.366
288.00	2.398
288.21	2.396
288.42	2.375
288.63	2.392
288.85	2.410
289.06	2.418
289.27	2.418
289.48	2.417
289.69	2.435
289.90	2.448
290.11	2.467
290.33	2.447
290.54	2.464
290.75	2.475
290.96	2.482
291.17	2.481
291.38	2.501
291.59	2.507
291.81	2.523
292.02	2.506
292.23	2.507
292.44	2.507
292.65	2.517
292.86	2.520
293.07	2.518
293.28	2.521
293.50	2.529
293.71	2.524
293.92	2.517
294.13	2.513
294.34	2.524
294.55	2.540
294.76	2.546
294.97	2.563
295.19	2.545
295.40	2.555
295.61	2.565
295.82	2.558
296.03	2.564
296.24	2.583
296.45	2.585
296.66	2.561
296.87	2.557
297.09	2.563
297.30	2.555
297.51	2.567
297.72	2.562
297.93	2.569
298.14	2.597
298.35	2.588
298.56	2.571
298.77	2.572
298.99	2.599
299.20	2.611
299.41	2.610
299.62	2.626
299.83	2.641
300.04	2.654
300.25	2.637
300.46	2.603
300.67	2.613
300.88	2.631
301.10	2.640
301.31	2.647
301.52	2.652
301.73	2.659
301.94	2.646
302.15	2.635
302.36	2.622
302.57	2.634
302.78	2.647
302.99	2.649
303.20	2.647
303.41	2.642
303.63	2.637
303.84	2.629
304.05	2.627
304.26	2.632
304.47	2.643
304.68	2.668
304.89	2.673
305.10	2.686
305.31	2.682
305.52	2.683
305.73	2.697
305.94	2.686
306.15	2.687
306.37	2.690
306.58	2.685
306.79	2.677
307.00	2.661
307.21	2.651
307.42	2.640
307.63	2.640
307.84	2.645
308.05	2.646
308.26	2.660
308.47	2.657
308.68	2.642
308.89	2.640
309.10	2.647
309.31	2.653
309.52	2.650
309.73	2.657
309.95	2.647
310.16	2.634
310.37	2.628
310.58	2.621
310.79	2.629
311.00	2.644
311.21	2.648
311.42	2.654
311.63	2.650
311.84	2.663
312.05	2.667
312.26	2.676
312.47	2.679
312.68	2.685
312.89	2.682
313.10	2.674
313.31	2.669
313.52	2.670
313.73	2.663
313.94	2.663
314.15	2.663
314.36	2.658
314.57	2.651
314.78	2.652
314.99	2.638
315.21	2.648
315.42	2.651
315.63	2.657
315.84	2.650
316.05	2.642
316.26	2.646
316.47	2.640
316.68	2.645
316.89	2.648
317.10	2.655
317.31	2.664
317.52	2.672
317.73	2.662
317.94	2.662
318.15	2.663
318.36	2.666
318.57	2.660
318.78	2.668
318.99	2.668
319.20	2.665
319.41	2.653
319.62	2.651
319.83	2.637
320.04	2.657
320.25	2.647
320.46	2.653
320.67	2.668
320.88	2.669
321.09	2.658
321.30	2.647
321.51	2.641
321.72	2.655
321.93	2.654
322.14	2.657
322.35	2.650
322.56	2.656
322.77	2.665
322.98	2.653
323.19	2.668
323.40	2.678
323.61	2.687
323.82	2.703
324.03	2.699
324.24	2.690
324.45	2.696
324.66	2.707
324.87	2.700
325.08	2.693
325.29	2.679
325.50	2.663
325.71	2.664
325.92	2.662
326.13	2.658
326.34	2.657
326.55	2.664
326.76	2.652
326.97	2.634
327.18	2.638
327.39	2.637
327.60	2.655
327.80	2.661
328.01	2.668
328.22	2.672
328.43	2.678
328.64	2.678
328.85	2.687
329.06	2.695
329.27	2.702
329.48	2.709
329.69	2.714
329.90	2.730
330.11	2.736
330.32	2.719
330.53	2.716
330.74	2.714
330.95	2.706
331.16	2.699
331.37	2.700
331.58	2.697
331.79	2.699
332.00	2.701
332.21	2.681
332.42	2.664
332.63	2.668
332.83	2.668
333.04	2.667
333.25	2.672
333.46	2.667
333.67	2.665
333.88	2.669
334.09	2.674
334.30	2.670
334.51	2.682
334.72	2.696
334.93	2.691
335.14	2.692
335.35	2.692
335.56	2.695
335.77	2.696
335.98	2.696
336.18	2.691
336.39	2.680
336.60	2.683
336.81	2.672
337.02	2.664
337.23	2.670
337.44	2.673
337.65	2.688
337.86	2.690
338.07	2.692
338.28	2.694
338.49	2.685
338.70	2.687
338.91	2.683
339.11	2.678
339.32	2.691
339.53	2.695
339.74	2.706
339.95	2.701
340.16	2.686
340.37	2.695
340.58	2.695
340.79	2.700
341.00	2.691
341.21	2.686
341.41	2.695
341.62	2.698
341.83	2.692
342.04	2.679
342.25	2.670
342.46	2.671
342.67	2.661
342.88	2.672
343.09	2.678
343.30	2.684
343.50	2.695
343.71	2.693
343.92	2.684
344.13	2.685
344.34	2.676
344.55	2.673
344.76	2.695
344.97	2.697
345.18	2.692
345.38	2.682
345.59	2.682
345.80	2.666
346.01	2.666
346.22	2.669
346.43	2.673
346.64	2.683
346.85	2.692
347.06	2.687
347.26	2.695
347.47	2.697
347.68	2.709
347.89	2.710
348.10	2.717
348.31	2.717
348.52	2.716
348.73	2.709
348.93	2.711
349.14	2.700
349.35	2.695
349.56	2.683
349.77	2.688
349.98	2.683
350.19	2.690
350.39	2.691
350.60	2.695
350.81	2.694
351.02	2.690
351.23	2.689
351.44	2.695
351.65	2.693
351.86	2.693
352.06	2.684
352.27	2.692
352.48	2.687
352.69	2.711
352.90	2.697
353.11	2.698
353.31	2.706
353.52	2.704
353.73	2.707
353.94	2.710
354.15	2.715
354.36	2.721
354.57	2.722
354.77	2.712
354.98	2.700
355.19	2.709
355.40	2.703
355.61	2.698
355.82	2.686
356.02	2.687
356.23	2.686
356.44	2.676
356.65	2.660
356.86	2.650
357.07	2.664
357.27	2.656
357.48	2.653
357.69	2.657
357.90	2.665
358.11	2.682
358.32	2.676
358.52	2.682
358.73	2.689
358.94	2.695
359.15	2.686
359.36	2.678
359.56	2.676
359.77	2.682
359.98	2.677
360.19	2.669
360.40	2.668
360.61	2.671
360.81	2.674
361.02	2.676
361.23	2.683
361.44	2.688
361.65	2.688
361.85	2.693
362.06	2.687
362.27	2.696
362.48	2.692
362.69	2.681
362.89	2.671
363.10	2.667
363.31	2.650
363.52	2.646
363.73	2.643
363.93	2.646
364.14	2.650
364.35	2.657
364.56	2.659
364.77	2.666
364.97	2.669
365.18	2.681
365.39	2.679
365.60	2.692
365.81	2.679
366.01	2.696
366.22	2.699
366.43	2.687
366.64	2.683
366.84	2.673
367.05	2.671
367.26	2.667
367.47	2.658
367.68	2.667
367.88	2.666
368.09	2.679
368.30	2.677
368.51	2.671
368.71	2.682
368.92	2.685
369.13	2.693
369.34	2.688
369.55	2.683
369.75	2.692
369.96	2.689
370.17	2.704
370.38	2.702
370.58	2.681
370.79	2.677
371.00	2.676
371.21	2.678
371.41	2.665
371.62	2.669
371.83	2.672
372.04	2.665
372.24	2.656
372.45	2.646
372.66	2.644
372.87	2.646
373.07	2.658
373.28	2.656
373.49	2.656
373.70	2.661
373.90	2.663
374.11	2.666
374.32	2.677
374.53	2.679
374.73	2.686
374.94	2.694
375.15	2.705
375.36	2.699
375.56	2.698
375.77	2.699
375.98	2.703
376.19	2.698
376.39	2.702
376.60	2.693
376.81	2.687
377.02	2.682
377.22	2.671
377.43	2.675
377.64	2.666
377.84	2.656
378.05	2.652
378.26	2.644
378.47	2.639
378.67	2.643
378.88	2.645
379.09	2.647
379.30	2.642
379.50	2.638
379.71	2.637
379.92	2.646
380.12	2.646
380.33	2.638
380.54	2.641
380.75	2.649
380.95	2.642
381.16	2.632
381.37	2.631
381.57	2.638
381.78	2.651
381.99	2.646
382.20	2.640
382.40	2.647
382.61	2.649
382.82	2.647
383.02	2.645
383.23	2.649
383.44	2.653
383.64	2.662
383.85	2.652
384.06	2.644
384.27	2.645
384.47	2.642
384.68	2.634
384.89	2.640
385.09	2.650
385.30	2.653
385.51	2.663
385.71	2.659
385.92	2.649
386.13	2.655
386.33	2.651
386.54	2.646
386.75	2.651
386.95	2.655
387.16	2.651
387.37	2.639
387.58	2.627
387.78	2.613
387.99	2.627
388.20	2.636
388.40	2.630
388.61	2.634
388.82	2.640
389.02	2.629
389.23	2.627
389.44	2.620
389.64	2.630
389.85	2.633
390.06	2.637
390.26	2.637
390.47	2.619
390.68	2.618
390.88	2.619
391.09	2.625
391.30	2.635
391.50	2.636
391.71	2.646
391.92	2.644
392.12	2.647
392.33	2.651
392.53	2.645
392.74	2.652
392.95	2.652
393.15	2.651
393.36	2.638
393.57	2.637
393.77	2.637
393.98	2.632
394.19	2.631
394.39	2.631
394.60	2.627
394.81	2.623
395.01	2.631
395.22	2.647
395.43	2.652
395.63	2.656
395.84	2.657
396.04	2.654
396.25	2.660
396.46	2.655
396.66	2.657
396.87	2.656
397.08	2.665
397.28	2.655
397.49	2.645
397.69	2.651
397.90	2.647
398.11	2.643
398.31	2.653
398.52	2.652
398.73	2.655
398.93	2.654
399.14	2.652
399.34	2.640
399.55	2.645
399.76	2.650
399.96	2.646
400.17	2.642
400.37	2.645
400.58	2.646
400.79	2.642
400.99	2.638
401.20	2.634
401.41	2.634
401.61	2.637
401.82	2.632
402.02	2.620
402.23	2.611
402.44	2.614
402.64	2.614
402.85	2.608
403.05	2.611
403.26	2.617
403.47	2.621
403.67	2.621
403.88	2.618
404.08	2.627
404.29	2.626
404.50	2.628
404.70	2.637
404.91	2.630
405.11	2.622
405.32	2.618
405.52	2.611
405.73	2.604
405.94	2.604
406.14	2.600
406.35	2.589
406.55	2.598
406.76	2.590
406.97	2.586
407.17	2.593
407.38	2.605
407.58	2.600
407.79	2.609
407.99	2.607
408.20	2.607
408.41	2.604
408.61	2.600
408.82	2.591
409.02	2.605
409.23	2.602
409.43	2.599
409.64	2.595
409.84	2.598
410.05	2.592
410.26	2.591
410.46	2.588
410.67	2.588
410.87	2.588
411.08	2.597
411.28	2.592
411.49	2.594
411.69	2.593
411.90	2.585
412.11	2.582
412.31	2.578
412.52	2.594
412.72	2.603
412.93	2.612
413.13	2.615
413.34	2.609
413.54	2.602
413.75	2.598
413.95	2.593
414.16	2.602
414.37	2.598
414.57	2.593
414.78	2.576
414.98	2.562
415.19	2.551
415.39	2.545
415.60	2.546
415.80	2.545
416.01	2.543
416.21	2.540
416.42	2.529
416.62	2.523
416.83	2.524
417.03	2.518
417.24	2.518
417.44	2.519
417.65	2.514
417.86	2.506
418.06	2.502
418.27	2.493
418.47	2.490
418.68	2.491
418.88	2.491
419.09	2.482
419.29	2.486
419.50	2.480
419.70	2.476
419.91	2.482
420.11	2.484
420.32	2.477
420.52	2.484
420.73	2.488
420.93	2.478
421.14	2.485
421.34	2.492
421.55	2.488
421.75	2.484
421.96	2.495
422.16	2.487
422.37	2.485
422.57	2.491
422.78	2.486
422.98	2.479
423.19	2.485
423.39	2.472
423.60	2.463
423.80	2.459
424.01	2.457
424.21	2.441
424.42	2.436
424.62	2.426
424.83	2.415
425.03	2.406
425.23	2.400
425.44	2.390
425.64	2.386
425.85	2.375
426.05	2.369
426.26	2.362
426.46	2.359
426.67	2.350
426.87	2.340
427.08	2.329
427.28	2.318
427.49	2.308
427.69	2.299
427.90	2.287
428.10	2.284
428.31	2.274
428.51	2.263
428.71	2.251
428.92	2.246
429.12	2.242
429.33	2.239
429.53	2.234
429.74	2.223
429.94	2.213
430.15	2.202
430.35	2.189
430.56	2.178
430.76	2.169
430.96	2.162
431.17	2.152
431.37	2.136
431.58	2.125
431.78	2.110
431.99	2.102
432.19	2.090
432.40	2.081
432.60	2.071
432.80	2.059
433.01	2.045
433.21	2.030
433.42	2.016
433.62	2.005
433.83	1.992
434.03	1.979
434.23	1.964
434.44	1.952
434.64	1.936
434.85	1.922
435.05	1.909
435.26	1.898
435.46	1.883
435.66	1.869
435.87	1.856
436.07	1.843
436.28	1.829
436.48	1.816
436.69	1.803
436.89	1.792
437.09	1.777
437.30	1.764
437.50	1.750
437.71	1.738
437.91	1.724
438.11	1.710
438.32	1.696
438.52	1.684
438.73	1.670
438.93	1.657
439.13	1.643
439.34	1.632
439.54	1.619
439.75	1.605
439.95	1.591
440.15	1.579
440.36	1.567
440.56	1.554
440.77	1.540
440.97	1.528
441.17	1.515
441.38	1.501
441.58	1.488
441.79	1.475
441.99	1.463
442.19	1.451
442.40	1.438
442.60	1.425
442.81	1.413
443.01	1.402
443.21	1.390
443.42	1.379
443.62	1.367
443.82	1.356
444.03	1.344
444.23	1.334
444.44	1.322
444.64	1.311
444.84	1.300
445.05	1.289
445.25	1.278
445.45	1.268
445.66	1.258
445.86	1.247
446.06	1.237
446.27	1.226
446.47	1.216
446.68	1.206
446.88	1.196
447.08	1.187
447.29	1.177
447.49	1.168
447.69	1.158
447.90	1.148
448.10	1.139
448.30	1.129
448.51	1.121
448.71	1.111
448.91	1.102
449.12	1.094
449.32	1.084
449.52	1.076
449.73	1.068
449.93	1.060
450.14	1.051
450.34	1.042
450.54	1.034
450.75	1.026
450.95	1.018
451.15	1.010
451.36	1.002
451.56	0.995
451.76	0.987
451.97	0.979
452.17	0.971
452.37	0.963
452.58	0.956
452.78	0.949
452.98	0.942
453.19	0.935
453.39	0.928
453.59	0.921
453.79	0.914
454.00	0.907
454.20	0.900
454.40	0.893
454.61	0.886
454.81	0.880
455.01	0.873
455.22	0.866
455.42	0.860
455.62	0.854
455.83	0.847
456.03	0.841
456.23	0.835
456.44	0.829
456.64	0.824
456.84	0.818
457.04	0.812
457.25	0.807
457.45	0.801
457.65	0.795
457.86	0.790
458.06	0.784
458.26	0.778
458.47	0.773
458.67	0.768
458.87	0.762
459.07	0.757
459.28	0.752
459.48	0.748
459.68	0.743
459.89	0.738
460.09	0.733
460.29	0.728
460.49	0.724
460.70	0.719
460.90	0.715
461.10	0.710
461.31	0.706
461.51	0.701
461.71	0.697
461.91	0.693
462.12	0.688
462.32	0.684
462.52	0.680
462.72	0.675
462.93	0.671
463.13	0.666
463.33	0.662
463.53	0.658
463.74	0.654
463.94	0.649
464.14	0.645
464.35	0.641
464.55	0.637
464.75	0.634
464.95	0.630
465.16	0.626
465.36	0.623
465.56	0.620
465.76	0.616
465.97	0.613
466.17	0.610
466.37	0.607
466.57	0.604
466.78	0.601
466.98	0.598
467.18	0.594
467.38	0.591
467.59	0.588
467.79	0.585
467.99	0.581
468.19	0.578
468.39	0.575
468.60	0.571
468.80	0.568
469.00	0.565
469.20	0.562
469.41	0.558
469.61	0.555
469.81	0.552
470.01	0.549
470.22	0.547
470.42	0.544
470.62	0.541
470.82	0.538
471.02	0.535
471.23	0.532
471.43	0.529
471.63	0.527
471.83	0.524
472.04	0.521
472.24	0.518
472.44	0.515
472.64	0.512
472.84	0.509
473.05	0.507
473.25	0.504
473.45	0.502
473.65	0.499
473.85	0.497
474.06	0.494
474.26	0.492
474.46	0.490
474.66	0.488
474.86	0.486
475.07	0.484
475.27	0.482
475.47	0.480
475.67	0.478
475.87	0.475
476.08	0.473
476.28	0.471
476.48	0.469
476.68	0.467
476.88	0.465
477.09	0.463
477.29	0.461
477.49	0.459
477.69	0.456
477.89	0.454
478.09	0.452
478.30	0.450
478.50	0.448
478.70	0.446
478.90	0.444
479.10	0.442
479.31	0.440
479.51	0.438
479.71	0.436
479.91	0.434
480.11	0.432
480.31	0.431
480.52	0.429
480.72	0.427
480.92	0.425
481.12	0.423
481.32	0.422
481.52	0.420
481.72	0.418
481.93	0.416
482.13	0.415
482.33	0.413
482.53	0.411
482.73	0.409
482.93	0.407
483.14	0.405
483.34	0.404
483.54	0.402
483.74	0.400
483.94	0.399
484.14	0.397
484.34	0.395
484.55	0.394
484.75	0.392
484.95	0.391
485.15	0.389
485.35	0.388
485.55	0.386
485.75	0.385
485.96	0.384
486.16	0.383
486.36	0.381
486.56	0.380
486.76	0.379
486.96	0.378
487.16	0.376
487.36	0.375
487.57	0.374
487.77	0.373
487.97	0.371
488.17	0.370
488.37	0.369
488.57	0.367
488.77	0.366
488.97	0.365
489.18	0.363
489.38	0.362
489.58	0.360
489.78	0.359
489.98	0.358
490.18	0.356
490.38	0.355
490.58	0.353
490.78	0.352
490.98	0.351
491.19	0.349
491.39	0.348
491.59	0.347
491.79	0.345
491.99	0.344
492.19	0.343
492.39	0.341
492.59	0.340
492.79	0.339
492.99	0.337
493.20	0.336
493.40	0.335
493.60	0.333
493.80	0.332
494.00	0.331
494.20	0.330
494.40	0.329
494.60	0.328
494.80	0.327
495.00	0.326
495.20	0.325
495.40	0.323
495.61	0.322
495.81	0.321
496.01	0.320
496.21	0.319
496.41	0.318
496.61	0.317
496.81	0.317
497.01	0.316
497.21	0.315
497.41	0.314
497.61	0.313
497.81	0.312
498.01	0.311
498.21	0.310
498.41	0.309
498.61	0.308
498.82	0.307
499.02	0.306
499.22	0.305
499.42	0.304
499.62	0.302
499.82	0.301
500.02	0.300
500.22	0.299
500.42	0.298
500.62	0.297
500.82	0.296
501.02	0.295
501.22	0.294
501.42	0.293
501.62	0.292
501.82	0.291
502.02	0.291
502.22	0.290
502.42	0.289
502.62	0.288
502.82	0.287
503.02	0.286
503.22	0.286
503.42	0.285
503.63	0.284
503.83	0.283
504.03	0.283
504.23	0.282
504.43	0.281
504.63	0.280
504.83	0.280
505.03	0.279
505.23	0.278
505.43	0.277
505.63	0.277
505.83	0.276
506.03	0.275
506.23	0.274
506.43	0.274
506.63	0.273
506.83	0.272
507.03	0.271
507.23	0.270
507.43	0.270
507.63	0.269
507.83	0.268
508.03	0.267
508.23	0.266
508.43	0.266
508.63	0.265
508.83	0.264
509.03	0.264
509.23	0.263
509.43	0.262
509.63	0.262
509.83	0.261
510.03	0.260
510.23	0.260
510.43	0.259
510.63	0.258
510.83	0.258
511.03	0.257
511.23	0.256
511.43	0.255
511.63	0.255
511.83	0.254
512.03	0.254
512.22	0.253
512.42	0.252
512.62	0.252
512.82	0.251
513.02	0.251
513.22	0.250
513.42	0.250
513.62	0.249
513.82	0.248
514.02	0.248
514.22	0.247
514.42	0.246
514.62	0.246
514.82	0.245
515.02	0.244
515.22	0.244
515.42	0.243
515.62	0.242
515.82	0.242
516.02	0.241
516.22	0.240
516.42	0.240
516.62	0.239
516.82	0.239
517.01	0.238
517.21	0.237
517.41	0.237
517.61	0.237
517.81	0.236
518.01	0.235
518.21	0.235
518.41	0.235
518.61	0.234
518.81	0.234
519.01	0.233
519.21	0.233
519.41	0.232
519.61	0.231
519.81	0.231
520.00	0.230
520.20	0.230
520.40	0.229
520.60	0.229
520.80	0.228
521.00	0.228
521.20	0.227
521.40	0.226
521.60	0.226
521.80	0.225
522.00	0.225
522.20	0.224
522.39	0.224
522.59	0.223
522.79	0.222
522.99	0.222
523.19	0.221
523.39	0.221
523.59	0.220
523.79	0.220
523.99	0.220
524.19	0.219
524.38	0.218
524.58	0.218
524.78	0.218
524.98	0.217
525.18	0.217
525.38	0.216
525.58	0.216
525.78	0.215
525.98	0.214
526.18	0.214
526.37	0.213
526.57	0.212
526.77	0.212
526.97	0.211
527.17	0.211
527.37	0.210
527.57	0.210
527.77	0.209
527.96	0.209
528.16	0.208
528.36	0.208
528.56	0.208
528.76	0.207
528.96	0.207
529.16	0.206
529.36	0.206
529.55	0.205
529.75	0.205
529.95	0.204
530.15	0.204
530.35	0.204
530.55	0.203
530.75	0.203
530.94	0.203
531.14	0.202
531.34	0.201
531.54	0.201
531.74	0.200
531.94	0.200
532.13	0.199
532.33	0.199
532.53	0.198
532.73	0.198
532.93	0.197
533.13	0.197
533.33	0.196
533.52	0.196
533.72	0.195
533.92	0.195
534.12	0.194
534.32	0.194
534.52	0.194
534.71	0.193
534.91	0.193
535.11	0.192
535.31	0.192
535.51	0.191
535.71	0.191
535.90	0.191
536.10	0.190
536.30	0.190
536.50	0.189
536.70	0.189
536.89	0.188
537.09	0.188
537.29	0.187
537.49	0.187
537.69	0.186
537.89	0.186
538.08	0.185
538.28	0.185
538.48	0.184
538.68	0.184
538.88	0.184
539.07	0.183
539.27	0.183
539.47	0.183
539.67	0.182
539.87	0.182
540.06	0.181
540.26	0.181
540.46	0.181
540.66	0.180
540.86	0.180
541.05	0.179
541.25	0.179
541.45	0.179
541.65	0.178
541.84	0.177
542.04	0.177
542.24	0.176
542.44	0.176
542.64	0.175
542.83	0.175
543.03	0.174
543.23	0.174
543.43	0.173
543.62	0.173
543.82	0.173
544.02	0.172
544.22	0.172
544.42	0.172
544.61	0.171
544.81	0.171
545.01	0.171
545.21	0.170
545.40	0.170
545.60	0.169
545.80	0.169
546.00	0.168
546.19	0.168
546.39	0.168
546.59	0.167
546.79	0.167
546.98	0.167
547.18	0.166
547.38	0.166
547.58	0.165
547.77	0.165
547.97	0.165
548.17	0.164
548.37	0.164
548.56	0.164
548.76	0.163
548.96	0.163
549.16	0.163
549.35	0.162
549.55	0.162
549.75	0.162
549.95	0.162
550.14	0.161
550.34	0.161
550.54	0.160
550.73	0.160
550.93	0.159
551.13	0.159
551.33	0.158
551.52	0.158
551.72	0.157
551.92	0.157
552.12	0.156
552.31	0.156
552.51	0.155
552.71	0.155
552.90	0.155
553.10	0.154
553.30	0.154
553.50	0.154
553.69	0.153
553.89	0.153
554.09	0.153
554.28	0.153
554.48	0.152
554.68	0.152
554.87	0.152
555.07	0.151
555.27	0.151
555.47	0.151
555.66	0.151
555.86	0.150
556.06	0.150
556.25	0.150
556.45	0.149
556.65	0.149
556.84	0.149
557.04	0.149
557.24	0.148
557.43	0.148
557.63	0.147
557.83	0.147
558.02	0.146
558.22	0.146
558.42	0.145
558.61	0.144
558.81	0.144
559.01	0.143
559.21	0.143
559.40	0.142
559.60	0.142
559.80	0.142
559.99	0.141
560.19	0.141
560.39	0.141
560.58	0.141
560.78	0.140
560.97	0.140
561.17	0.140
561.37	0.140
561.56	0.139
561.76	0.139
561.96	0.139
562.15	0.139
562.35	0.139
562.55	0.138
562.74	0.138
562.94	0.138
563.14	0.138
563.33	0.138
563.53	0.137
563.73	0.137
563.92	0.137
564.12	0.136
564.31	0.136
564.51	0.136
564.71	0.135
564.90	0.135
565.10	0.134
565.30	0.134
565.49	0.134
565.69	0.133
565.89	0.133
566.08	0.132
566.28	0.132
566.47	0.131
566.67	0.131
566.87	0.131
567.06	0.130
567.26	0.130
567.46	0.129
567.65	0.129
567.85	0.129
568.04	0.128
568.24	0.128
568.44	0.127
568.63	0.127
568.83	0.127
569.02	0.126
569.22	0.126
569.42	0.126
569.61	0.125
569.81	0.125
570.00	0.124
570.20	0.124
570.40	0.124
570.59	0.124
570.79	0.123
570.98	0.123
571.18	0.123
571.38	0.122
571.57	0.122
571.77	0.122
571.96	0.121
572.16	0.122
572.35	0.121
572.55	0.121
572.75	0.121
572.94	0.121
573.14	0.121
573.33	0.121
573.53	0.121
573.73	0.121
573.92	0.121
574.12	0.121
574.31	0.121
574.51	0.120
574.70	0.119
574.90	0.117
575.09	0.115
575.29	0.112
575.49	0.110
575.68	0.107
575.88	0.105
576.07	0.102
576.27	0.100
576.46	0.097
576.66	0.095
576.86	0.093
577.05	0.091
577.25	0.090
577.44	0.089
577.64	0.088
577.83	0.087
578.03	0.086
578.22	0.084
578.42	0.081
578.61	0.077
578.81	0.074
579.00	0.071
579.20	0.069
579.40	0.066
579.59	0.063
579.79	0.061
579.98	0.059
580.18	0.058
580.37	0.057
580.57	0.057
580.76	0.059
580.96	0.060
581.15	0.061
581.35	0.062
581.54	0.063
581.74	0.064
581.93	0.064
582.13	0.064
582.32	0.065
582.52	0.065
582.71	0.066
582.91	0.067
583.10	0.069
583.30	0.071
583.49	0.073
583.69	0.075
583.88	0.079
584.08	0.082
584.27	0.085
584.47	0.089
584.66	0.091
584.86	0.093
585.05	0.094
585.25	0.095
585.44	0.095
585.64	0.094
585.83	0.093
586.03	0.093
586.22	0.094
586.42	0.095
586.61	0.096
586.81	0.097
587.00	0.098
587.20	0.100
587.39	0.101
587.59	0.103
587.78	0.105
587.98	0.106
588.17	0.107
588.37	0.107
588.56	0.107
588.76	0.107
588.95	0.106
589.15	0.106
589.34	0.105
589.54	0.105
589.73	0.105
589.92	0.104
590.12	0.104
590.31	0.103
590.51	0.103
590.70	0.103
590.90	0.102
591.09	0.102
591.29	0.102
591.48	0.102
591.68	0.102
591.87	0.102
592.06	0.102
592.26	0.102
592.45	0.102
592.65	0.102
592.84	0.102
593.04	0.102
593.23	0.102
593.43	0.102
593.62	0.102
593.81	0.102
594.01	0.102
594.20	0.102
594.40	0.102
594.59	0.102
594.79	0.102
594.98	0.102
595.17	0.102
595.37	0.102
595.56	0.101
595.76	0.101
595.95	0.100
596.14	0.099
596.34	0.099
596.53	0.098
596.73	0.098
596.92	0.097
597.12	0.097
597.31	0.096
597.50	0.096
597.70	0.096
597.89	0.096
598.09	0.096
598.28	0.095
598.47	0.095
598.67	0.095
598.86	0.096
599.06	0.096
599.25	0.096
599.44	0.096
599.64	0.097
599.83	0.097
600.03	0.097
600.22	0.097
600.41	0.097
600.61	0.097
600.80	0.098
601.00	0.098
601.19	0.098
601.38	0.098
601.58	0.098
601.77	0.097
601.96	0.097
602.16	0.097
602.35	0.096
602.55	0.096
602.74	0.095
602.93	0.095
603.13	0.094
603.32	0.094
603.51	0.094
603.71	0.093
603.90	0.093
604.09	0.092
604.29	0.092
604.48	0.092
604.68	0.092
604.87	0.092
605.06	0.092
605.26	0.092
605.45	0.092
605.64	0.092
605.84	0.092
606.03	0.093
606.22	0.093
606.42	0.093
606.61	0.093
606.80	0.093
607.00	0.093
607.19	0.094
607.38	0.094
607.58	0.094
607.77	0.094
607.96	0.094
608.16	0.094
608.35	0.094
608.54	0.094
608.74	0.094
608.93	0.094
609.12	0.094
609.32	0.093
609.51	0.094
609.70	0.093
609.90	0.093
610.09	0.093
610.28	0.092
610.48	0.092
610.67	0.092
610.86	0.091
611.06	0.091
611.25	0.091
611.44	0.091
611.64	0.091
611.83	0.091
612.02	0.090
612.21	0.090
612.41	0.090
612.60	0.090
612.79	0.090
612.99	0.090
613.18	0.090
613.37	0.090
613.57	0.090
613.76	0.090
613.95	0.091
614.14	0.091
614.34	0.091
614.53	0.091
614.72	0.091
614.92	0.091
615.11	0.091
615.30	0.091
615.49	0.091
615.69	0.091
615.88	0.091
616.07	0.091
616.26	0.091
616.46	0.091
616.65	0.091
616.84	0.091
617.04	0.091
617.23	0.091
617.42	0.091
617.61	0.091
617.81	0.091
618.00	0.091
618.19	0.091
618.38	0.090
618.58	0.090
618.77	0.090
618.96	0.090
619.15	0.090
619.35	0.090
619.54	0.090
619.73	0.090
619.92	0.090
620.12	0.090
620.31	0.090
620.50	0.090
620.69	0.090
620.89	0.090
621.08	0.090
621.27	0.089
621.46	0.089
621.66	0.089
621.85	0.089
622.04	0.089
622.23	0.089
622.43	0.089
622.62	0.088
622.81	0.088
623.00	0.088
623.19	0.089
623.39	0.089
623.58	0.089
623.77	0.089
623.96	0.088
624.16	0.088
624.35	0.088
624.54	0.088
624.73	0.088
624.92	0.088
625.12	0.088
625.31	0.088
625.50	0.088
625.69	0.088
625.88	0.088
626.08	0.089
626.27	0.089
626.46	0.089
626.65	0.089
626.84	0.089
627.04	0.089
627.23	0.089
627.42	0.089
627.61	0.089
627.80	0.089
628.00	0.089
628.19	0.089
628.38	0.089
628.57	0.089
628.76	0.089
628.96	0.089
629.15	0.089
629.34	0.089
629.53	0.089
629.72	0.089
629.91	0.089
630.11	0.089
630.30	0.089
630.49	0.089
630.68	0.089
630.87	0.089
631.06	0.089
631.26	0.089
631.45	0.088
631.64	0.089
631.83	0.089
632.02	0.089
632.21	0.089
632.41	0.089
632.60	0.089
632.79	0.089
632.98	0.089
633.17	0.089
633.36	0.089
633.55	0.089
633.75	0.088
633.94	0.088
634.13	0.088
634.32	0.088
634.51	0.088
634.70	0.088
634.89	0.088
635.09	0.088
635.28	0.088
635.47	0.088
635.66	0.088
635.85	0.088
636.04	0.088
636.23	0.089
636.43	0.089
636.62	0.088
636.81	0.088
637.00	0.088
637.19	0.088
637.38	0.088
637.57	0.088
637.76	0.088
637.95	0.088
638.15	0.088
638.34	0.088
638.53	0.088
638.72	0.088
638.91	0.088
639.10	0.087
639.29	0.087
639.48	0.087
639.67	0.087
639.87	0.087
640.06	0.087
640.25	0.087
640.44	0.087
640.63	0.087
640.82	0.087
641.01	0.087
641.20	0.087
641.39	0.087
641.58	0.088
641.78	0.088
641.97	0.088
642.16	0.088
642.35	0.088
642.54	0.088
642.73	0.088
642.92	0.088
643.11	0.088
643.30	0.088
643.49	0.087
643.68	0.087
643.87	0.087
644.06	0.087
644.25	0.087
644.45	0.087
644.64	0.087
644.83	0.087
645.02	0.087
645.21	0.087
645.40	0.087
645.59	0.087
645.78	0.087
645.97	0.086
646.16	0.086
646.35	0.086
646.54	0.085
646.73	0.085
646.92	0.085
647.11	0.085
647.30	0.085
647.49	0.084
647.68	0.084
647.88	0.084
648.07	0.084
648.26	0.084
648.45	0.084
648.64	0.084
648.83	0.084
649.02	0.084
649.21	0.084
649.40	0.085
649.59	0.085
649.78	0.085
649.97	0.085
650.16	0.085
650.35	0.085
650.54	0.085
650.73	0.086
650.92	0.086
651.11	0.086
651.30	0.086
651.49	0.086
651.68	0.086
651.87	0.086
652.06	0.086
652.25	0.086
652.44	0.085
652.63	0.084
652.82	0.082
653.01	0.081
653.20	0.080
653.39	0.079
653.58	0.078
653.77	0.077
653.96	0.077
654.15	0.076
654.34	0.076
654.53	0.076
654.72	0.077
654.91	0.077
655.10	0.078
655.29	0.078
655.48	0.078
655.67	0.078
655.86	0.079
656.05	0.079
656.24	0.079
656.43	0.079
656.62	0.079
656.81	0.080
657.00	0.081
657.19	0.082
657.38	0.083
657.57	0.084
657.76	0.084
657.95	0.085
658.14	0.086
658.33	0.086
658.51	0.087
658.70	0.087
658.89	0.088
659.08	0.087
659.27	0.086
659.46	0.085
659.65	0.085
659.84	0.085
660.03	0.085
660.22	0.085
660.41	0.085
660.60	0.084
660.79	0.084
660.98	0.084
661.17	0.084
661.36	0.084
661.55	0.084
661.74	0.083
661.92	0.083
662.11	0.083
662.30	0.083
662.49	0.083
662.68	0.082
662.87	0.082
663.06	0.082
663.25	0.082
663.44	0.082
663.63	0.082
663.82	0.082
664.01	0.082
664.20	0.082
664.38	0.082
664.57	0.082
664.76	0.082
664.95	0.083
665.14	0.083
665.33	0.083
665.52	0.083
665.71	0.083
665.90	0.083
666.09	0.083
666.28	0.083
666.46	0.083
666.65	0.083
666.84	0.083
667.03	0.083
667.22	0.083
667.41	0.083
667.60	0.083
667.79	0.083
667.98	0.083
668.16	0.083
668.35	0.083
668.54	0.083
668.73	0.083
668.92	0.082
669.11	0.082
669.30	0.082
669.49	0.082
669.67	0.082
669.86	0.082
670.05	0.081
670.24	0.081
670.43	0.081
670.62	0.081
670.81	0.081
671.00	0.081
671.18	0.081
671.37	0.080
671.56	0.080
671.75	0.080
671.94	0.080
672.13	0.080
672.32	0.080
672.50	0.080
672.69	0.080
672.88	0.080
673.07	0.081
673.26	0.081
673.45	0.081
673.63	0.082
673.82	0.082
674.01	0.082
674.20	0.082
674.39	0.082
674.58	0.082
674.76	0.082
674.95	0.082
675.14	0.082
675.33	0.082
675.52	0.082
675.71	0.082
675.89	0.082
676.08	0.082
676.27	0.082
676.46	0.082
676.65	0.082
676.84	0.082
677.02	0.082
677.21	0.082
677.40	0.082
677.59	0.082
677.78	0.081
677.96	0.081
678.15	0.081
678.34	0.081
678.53	0.081
678.72	0.081
678.90	0.080
679.09	0.080
679.28	0.080
679.47	0.080
679.66	0.080
679.84	0.080
680.03	0.080
680.22	0.080
680.41	0.080
680.60	0.080
680.78	0.080
680.97	0.080
681.16	0.080
681.35	0.080
681.53	0.080
681.72	0.080
681.91	0.080
682.10	0.079
682.29	0.079
682.47	0.079
682.66	0.080
682.85	0.080
683.04	0.080
683.22	0.080
683.41	0.080
683.60	0.080
683.79	0.080
683.97	0.080
684.16	0.080
684.35	0.080
684.54	0.080
684.72	0.080
684.91	0.080
685.10	0.080
685.29	0.080
685.47	0.080
685.66	0.080
685.85	0.080
686.04	0.080
686.22	0.080
686.41	0.080
686.60	0.080
686.79	0.080
686.97	0.080
687.16	0.080
687.35	0.080
687.54	0.080
687.72	0.080
687.91	0.080
688.10	0.080
688.29	0.079
688.47	0.079
688.66	0.079
688.85	0.079
689.03	0.079
689.22	0.079
689.41	0.078
689.60	0.078
689.78	0.078
689.97	0.078
690.16	0.078
690.34	0.078
690.53	0.079
690.72	0.079
690.91	0.079
691.09	0.079
691.28	0.079
691.47	0.079
691.65	0.079
691.84	0.080
692.03	0.080
692.21	0.080
692.40	0.080
692.59	0.080
692.77	0.080
692.96	0.080
693.15	0.080
693.34	0.080
693.52	0.080
693.71	0.081
693.90	0.080
694.08	0.080
694.27	0.080
694.46	0.080
694.64	0.080
694.83	0.080
695.02	0.079
695.20	0.079
695.39	0.079
695.58	0.079
695.76	0.078
695.95	0.078
696.14	0.078
696.32	0.078
696.51	0.078
696.70	0.078
696.88	0.078
697.07	0.078
697.26	0.078
697.44	0.078
697.63	0.078
697.81	0.078
698.00	0.078
698.19	0.078
698.37	0.078
698.56	0.078
698.75	0.078
698.93	0.078
699.12	0.078
699.31	0.078
699.49	0.079
699.68	0.079
699.87	0.079
700.05	0.079
700.24	0.079
700.42	0.079
700.61	0.079
700.80	0.079
700.98	0.079
701.17	0.079
701.36	0.079
701.54	0.079
701.73	0.079
701.91	0.079
702.10	0.079
702.29	0.079
702.47	0.079
702.66	0.079
702.84	0.080
703.03	0.080
703.22	0.080
703.40	0.080
703.59	0.080
703.77	0.080
703.96	0.080
704.15	0.080
704.33	0.079
704.52	0.079
704.70	0.079
704.89	0.079
705.08	0.078
705.26	0.078
705.45	0.078
705.63	0.078
705.82	0.077
706.00	0.077
706.19	0.077
706.38	0.077
706.56	0.076
706.75	0.076
706.93	0.076
707.12	0.076
707.30	0.076
707.49	0.076
707.68	0.076
707.86	0.076
708.05	0.075
708.23	0.076
708.42	0.076
708.60	0.076
708.79	0.076
708.98	0.076
709.16	0.076
709.35	0.076
709.53	0.077
709.72	0.077
709.90	0.077
710.09	0.077
710.27	0.077
710.46	0.077
710.64	0.077
710.83	0.077
711.02	0.077
711.20	0.077
711.39	0.077
711.57	0.077
711.76	0.077
711.94	0.077
712.13	0.077
712.31	0.077
712.50	0.076
712.68	0.076
712.87	0.076
713.05	0.076
713.24	0.076
713.42	0.076
713.61	0.076
713.79	0.076
713.98	0.076
714.16	0.075
714.35	0.075
714.54	0.075
714.72	0.075
714.91	0.075
715.09	0.075
715.28	0.075
715.46	0.075
715.65	0.075
715.83	0.075
716.02	0.074
716.20	0.074
716.39	0.074
716.57	0.074
716.76	0.074
716.94	0.074
717.12	0.073
717.31	0.073
717.49	0.073
717.68	0.073
717.86	0.073
718.05	0.073
718.23	0.073
718.42	0.073
718.60	0.073
718.79	0.072
718.97	0.072
719.16	0.072
719.34	0.072
719.53	0.072
719.71	0.072
719.90	0.072
720.08	0.072
720.27	0.073
720.45	0.073
720.63	0.073
720.82	0.073
721.00	0.073
721.19	0.073
721.37	0.073
721.56	0.072
721.74	0.072
721.93	0.072
722.11	0.072
722.30	0.072
722.48	0.072
722.66	0.072
722.85	0.071
723.03	0.071
723.22	0.071
723.40	0.071
723.59	0.071
723.77	0.071
723.95	0.070
724.14	0.070
724.32	0.070
724.51	0.070
724.69	0.069
724.88	0.069
725.06	0.069
725.24	0.069
725.43	0.068
725.61	0.068
725.80	0.068
725.98	0.068
726.16	0.068
726.35	0.068
726.53	0.068
726.72	0.068
726.90	0.068
727.09	0.068
727.27	0.068
727.45	0.068
727.64	0.068
727.82	0.068
728.01	0.067
728.19	0.067
728.37	0.067
728.56	0.067
728.74	0.067
728.92	0.067
729.11	0.067
729.29	0.067
729.48	0.067
729.66	0.066
729.84	0.066
730.03	0.066
730.21	0.066
730.40	0.066
730.58	0.066
730.76	0.065
730.95	0.065
731.13	0.065
731.31	0.064
731.50	0.064
731.68	0.064
731.86	0.063
732.05	0.064
732.23	0.063
732.42	0.063
732.60	0.063
732.78	0.062
732.97	0.062
733.15	0.061
733.33	0.061
733.52	0.060
733.70	0.060
733.88	0.060
734.07	0.059
734.25	0.059
734.43	0.058
734.62	0.058
734.80	0.058
734.98	0.057
735.17	0.057
735.35	0.057
735.53	0.057
735.72	0.057
735.90	0.057
736.08	0.057
736.27	0.057
736.45	0.056
736.63	0.056
736.82	0.056
737.00	0.057
737.18	0.057
737.37	0.057
737.55	0.057
737.73	0.057
737.92	0.057
738.10	0.057
738.28	0.056
738.46	0.057
738.65	0.057
738.83	0.057
739.01	0.057
739.20	0.057
739.38	0.057
739.56	0.057
739.75	0.057
739.93	0.058
740.11	0.057
740.29	0.058
740.48	0.059
740.66	0.059
740.84	0.058
741.03	0.058
741.21	0.058
741.39	0.059
741.57	0.058
741.76	0.058
741.94	0.057
742.12	0.058
742.31	0.057
742.49	0.056
742.67	0.056
742.85	0.056
743.04	0.056
743.22	0.056
743.40	0.055
743.58	0.056
743.77	0.056
743.95	0.056
744.13	0.056
744.31	0.057
744.50	0.057
744.68	0.057
744.86	0.058
745.04	0.059
745.23	0.058
745.41	0.058
745.59	0.059
745.77	0.059
745.96	0.059
746.14	0.060
746.32	0.060
746.50	0.061
746.69	0.061
746.87	0.060
747.05	0.061
747.23	0.060
747.42	0.061
747.60	0.061
747.78	0.061
747.96	0.061
748.14	0.062
748.33	0.062
748.51	0.062
748.69	0.062
748.87	0.063
749.06	0.063
749.24	0.064
749.42	0.064
749.60	0.063
749.78	0.064
749.97	0.064
750.15	0.063
750.33	0.064
750.51	0.064
750.69	0.064
750.88	0.063
751.06	0.063
751.24	0.063
751.42	0.063
751.60	0.063
751.79	0.064
751.97	0.064
752.15	0.063
752.33	0.062
752.51	0.062
752.69	0.063
752.88	0.063
753.06	0.063
753.24	0.064
753.42	0.063
753.60	0.064
753.78	0.063
753.97	0.062
754.15	0.063
754.33	0.063
754.51	0.063
754.69	0.063
754.87	0.063
755.06	0.063
755.24	0.062
755.42	0.063
755.60	0.063
755.78	0.064
755.96	0.065
756.15	0.065
756.33	0.064
756.51	0.065
756.69	0.065
756.87	0.065
757.05	0.066
757.23	0.066
757.42	0.066
757.60	0.066
757.78	0.066
757.96	0.066
758.14	0.066
758.32	0.066
758.50	0.066
758.69	0.067
758.87	0.067
759.05	0.067
759.23	0.068
759.41	0.069
759.59	0.069
759.77	0.070
759.95	0.070
760.13	0.070
760.32	0.070
760.50	0.070
760.68	0.070
760.86	0.070
761.04	0.070
761.22	0.070
761.40	0.069
761.58	0.069
761.76	0.069
761.95	0.069
762.13	0.069
762.31	0.069
762.49	0.069
762.67	0.070
762.85	0.069
763.03	0.068
763.21	0.068
763.39	0.068
763.57	0.068
763.75	0.069
763.94	0.068
764.12	0.068
764.30	0.067
764.48	0.067
764.66	0.066
764.84	0.067
765.02	0.068
765.20	0.067
765.38	0.067
765.56	0.068
765.74	0.067
765.92	0.068
766.10	0.069
766.28	0.069
766.46	0.069
766.65	0.070
766.83	0.070
767.01	0.070
767.19	0.071
767.37	0.072
767.55	0.072
767.73	0.072
767.91	0.072
768.09	0.072
768.27	0.072
768.45	0.073
768.63	0.072
768.81	0.072
768.99	0.073
769.17	0.073
769.35	0.073
769.53	0.073
769.71	0.074
769.89	0.075
770.07	0.075
770.25	0.075
770.43	0.075
770.61	0.076
770.79	0.076
770.97	0.076
771.15	0.077
771.33	0.076
771.51	0.077
771.69	0.077
771.87	0.076
772.05	0.077
772.24	0.077
772.42	0.077
772.60	0.077
772.78	0.077
772.96	0.077
773.14	0.077
773.32	0.077
773.49	0.077
773.67	0.076
773.85	0.076
774.03	0.076
774.21	0.076
774.39	0.075
774.57	0.075
774.75	0.075
774.93	0.074
775.11	0.074
775.29	0.074
775.47	0.074
775.65	0.074
775.83	0.073
776.01	0.073
776.19	0.073
776.37	0.073
776.55	0.073
776.73	0.073
776.91	0.074
777.09	0.074
777.27	0.074
777.45	0.074
777.63	0.075
777.81	0.075
777.99	0.075
778.17	0.076
778.35	0.077
778.53	0.077
778.71	0.077
778.89	0.078
779.07	0.078
779.24	0.078
779.42	0.078
779.60	0.079
779.78	0.078
779.96	0.079
780.14	0.079
780.32	0.078
780.50	0.078
780.68	0.077
780.86	0.077
781.04	0.078
781.22	0.078
781.40	0.079
781.58	0.079
781.75	0.079
781.93	0.079
782.11	0.080
782.29	0.081
782.47	0.081
782.65	0.082
782.83	0.083
783.01	0.083
783.19	0.083
783.37	0.083
783.55	0.082
783.72	0.082
783.90	0.082
784.08	0.083
784.26	0.082
784.44	0.082
784.62	0.081
784.80	0.081
784.98	0.081
785.16	0.081
785.33	0.081
785.51	0.080
785.69	0.080
785.87	0.080
786.05	0.079
786.23	0.078
786.41	0.078
786.59	0.078
786.77	0.078
786.94	0.077
787.12	0.077
787.30	0.077
787.48	0.077
787.66	0.077
787.84	0.077
788.02	0.078
788.19	0.078
788.37	0.078
788.55	0.078
788.73	0.078
788.91	0.079
789.09	0.079
789.27	0.079
789.44	0.079
789.62	0.080
789.80	0.080
789.98	0.080
790.16	0.080
790.34	0.080
790.51	0.080
790.69	0.080
790.87	0.081
791.05	0.081
791.23	0.081
791.41	0.080
791.58	0.080
791.76	0.080
791.94	0.080
792.12	0.080
792.30	0.081
792.48	0.080
792.65	0.080
792.83	0.080
793.01	0.081
793.19	0.081
793.37	0.081
793.54	0.081
793.72	0.081
793.90	0.082
794.08	0.082
794.26	0.082
794.43	0.082
794.61	0.083
794.79	0.083
794.97	0.083
795.15	0.083
795.32	0.083
795.50	0.083
795.68	0.084
795.86	0.084
796.04	0.084
796.21	0.084
796.39	0.084
796.57	0.083
796.75	0.083
796.92	0.083
797.10	0.083
797.28	0.083
797.46	0.082
797.64	0.081
797.81	0.081
797.99	0.081
798.17	0.080
798.35	0.081
798.52	0.081
798.70	0.081
798.88	0.080
799.06	0.080
799.23	0.080
799.41	0.081
799.59	0.081
799.77	0.081
799.94	0.081
800.12	0.081
800.30	0.081
800.48	0.081
800.65	0.081
800.83	0.080
801.01	0.081
801.19	0.081
801.36	0.081
801.54	0.081
801.72	0.081
801.90	0.081
802.07	0.081
802.25	0.081
802.43	0.081
802.60	0.081
802.78	0.082
802.96	0.081
803.14	0.081
803.31	0.080
803.49	0.081
803.67	0.081
803.84	0.081
804.02	0.081
804.20	0.081
804.38	0.081
804.55	0.080
804.73	0.080
804.91	0.081
805.08	0.081
805.26	0.082
805.44	0.082
805.61	0.082
805.79	0.083
805.97	0.083
806.15	0.082
806.32	0.082
806.50	0.082
806.68	0.082
806.85	0.082
807.03	0.082
807.21	0.082
807.38	0.082
807.56	0.081
807.74	0.081
807.91	0.082
808.09	0.081
808.27	0.081
808.44	0.081
808.62	0.081
808.80	0.081
808.97	0.081
809.15	0.081
809.33	0.080
809.50	0.080
809.68	0.080
809.86	0.079
810.03	0.079
810.21	0.080
810.39	0.079
810.56	0.079
810.74	0.079
810.91	0.078
811.09	0.078
811.27	0.078
811.44	0.078
811.62	0.078
811.80	0.078
811.97	0.078
812.15	0.078
812.33	0.078
812.50	0.078
812.68	0.078
812.85	0.078
813.03	0.078
813.21	0.078
813.38	0.078
813.56	0.078
813.74	0.077
813.91	0.077
814.09	0.077
814.26	0.077
814.44	0.077
814.62	0.077
814.79	0.077
814.97	0.077
815.14	0.077
815.32	0.077
815.50	0.077
815.67	0.077
815.85	0.077
816.02	0.077
816.20	0.078
816.38	0.078
816.55	0.078
816.73	0.078
816.90	0.078
817.08	0.078
817.26	0.078
817.43	0.078
817.61	0.079
817.78	0.078
817.96	0.078
818.13	0.078
818.31	0.078
818.49	0.078
818.66	0.078
818.84	0.078
819.01	0.077
819.19	0.077
819.36	0.077
819.54	0.077
819.71	0.077
819.89	0.077
820.07	0.076
820.24	0.076
820.42	0.076
820.59	0.076
820.77	0.076
820.94	0.076
821.12	0.076
821.29	0.075
821.47	0.075
821.64	0.075
821.82	0.076
822.00	0.076
822.17	0.075
822.35	0.075
822.52	0.074
822.70	0.074
822.87	0.073
823.05	0.072
823.22	0.072
823.40	0.071
823.57	0.071
823.75	0.070
823.92	0.069
824.10	0.069
824.27	0.069
824.45	0.069
824.62	0.069
824.80	0.069
824.97	0.070
825.15	0.070
825.32	0.070
825.50	0.070
825.67	0.070
825.85	0.070
826.02	0.071
826.20	0.071
826.37	0.071
826.55	0.071
826.72	0.072
826.90	0.072
827.07	0.073
827.25	0.073
827.42	0.073
827.60	0.072
827.77	0.072
827.95	0.072
828.12	0.072
828.30	0.071
828.47	0.071
828.65	0.070
828.82	0.070
829.00	0.070
829.17	0.070
829.34	0.069
829.52	0.069
829.69	0.070
829.87	0.070
830.04	0.069
830.22	0.069
830.39	0.068
830.57	0.070
830.74	0.070
830.92	0.070
831.09	0.070
831.26	0.071
831.44	0.073
831.61	0.073
831.79	0.074
831.96	0.074
832.14	0.073
832.31	0.073
832.49	0.071
832.66	0.070
832.83	0.070
833.01	0.068
833.18	0.066
833.36	0.063
833.53	0.062
833.70	0.060
833.88	0.059
834.05	0.059
834.23	0.058
834.40	0.058
834.58	0.057
834.75	0.056
834.92	0.057
835.10	0.057
835.27	0.056
835.45	0.055
835.62	0.056
835.79	0.055
835.97	0.056
836.14	0.055
836.32	0.055
836.49	0.055
836.66	0.054
836.84	0.053
837.01	0.053
837.18	0.055
837.36	0.055
837.53	0.055
837.71	0.055
837.88	0.056
838.05	0.055
838.23	0.056
838.40	0.057
838.58	0.057
838.75	0.057
838.92	0.058
839.10	0.057
839.27	0.056
839.44	0.056
839.62	0.057
839.79	0.057
839.96	0.061
840.14	0.061
840.31	0.061
840.48	0.062
840.66	0.067
840.83	0.065
841.01	0.065
841.18	0.067
841.35	0.068
841.53	0.068
841.70	0.068
841.87	0.068
842.05	0.067
842.22	0.068
842.39	0.067
842.57	0.064
842.74	0.066
842.91	0.066
843.09	0.068
843.26	0.068
843.43	0.071
843.60	0.071
843.78	0.073
843.95	0.075
844.12	0.075
844.30	0.075
844.47	0.074
844.64	0.075
844.82	0.073
844.99	0.071
845.16	0.072
845.34	0.068
845.51	0.068
845.68	0.067
845.85	0.067
846.03	0.064
846.20	0.064
846.37	0.065
846.55	0.063
846.72	0.064
846.89	0.065
847.06	0.063
847.24	0.064
847.41	0.061
847.58	0.060
847.76	0.060
847.93	0.062
848.10	0.060
848.27	0.058
848.45	0.058
848.62	0.057
848.79	0.054
848.97	0.055
849.14	0.054
849.31	0.056
849.48	0.055
849.66	0.055
849.83	0.053
850.00	0.055
850.17	0.055
850.35	0.053
850.52	0.053
850.69	0.055
850.86	0.054
851.04	0.057
851.21	0.057
851.38	0.057
851.55	0.054
851.72	0.058
851.90	0.059
852.07	0.061
852.24	0.064
852.41	0.064
852.59	0.066
852.76	0.067
852.93	0.067
853.10	0.070
853.28	0.071
853.45	0.072
853.62	0.071
853.79	0.073
853.96	0.072
854.14	0.074
854.31	0.077
854.48	0.077
854.65	0.074
854.82	0.077
855.00	0.075
855.17	0.076
855.34	0.079
855.51	0.080
855.68	0.077
855.86	0.079
856.03	0.077
856.20	0.074
856.37	0.073
856.54	0.075
856.72	0.072
856.89	0.074
857.06	0.073
857.23	0.074
857.40	0.073
857.57	0.070
857.75	0.069
857.92	0.071
858.09	0.074
858.26	0.074
858.43	0.072
858.60	0.074
858.78	0.073
858.95	0.072
859.12	0.072
859.29	0.073
859.46	0.075
859.63	0.077
859.81	0.077
859.98	0.076
860.15	0.076
860.32	0.080
860.49	0.075
860.66	0.074
860.83	0.074
861.01	0.068
861.18	0.067
861.35	0.068
861.52	0.063
861.69	0.062
861.86	0.059
862.03	0.057
862.21	0.059
862.38	0.061
862.55	0.061
862.72	0.059
862.89	0.065
863.06	0.065
863.23	0.065
863.40	0.066
863.58	0.063
863.75	0.061
863.92	0.062
864.09	0.059
864.26	0.059
864.43	0.059
864.60	0.063
864.77	0.060
864.94	0.066
865.11	0.065
865.29	0.066
865.46	0.068
865.63	0.071
865.80	0.073
865.97	0.074
866.14	0.079
866.31	0.082
866.48	0.081
866.65	0.085
866.82	0.080
866.99	0.082
867.16	0.080
867.34	0.084
867.51	0.090
867.68	0.093
867.85	0.095
868.02	0.090
868.19	0.087
868.36	0.088
868.53	0.080
868.70	0.084
868.87	0.079
869.04	0.086
869.21	0.086
869.38	0.082
869.55	0.080
869.72	0.079
869.89	0.081
870.06	0.082
870.24	0.084
870.41	0.087
870.58	0.084
870.75	0.095
870.92	0.096
871.09	0.096
871.26	0.099
871.43	0.102
871.60	0.110
871.77	0.108
871.94	0.113
872.11	0.111
872.28	0.109
872.45	0.107
872.62	0.101
872.79	0.095
872.96	0.092
873.13	0.085
873.30	0.082
873.47	0.074
873.64	0.071
873.81	0.067
873.98	0.065
874.15	0.076
874.32	0.078
874.49	0.082
874.66	0.084
874.83	0.091
875.00	0.093
875.17	0.094
875.34	0.091
875.51	0.095
875.68	0.093
875.85	0.098
876.02	0.091
876.19	0.090
876.36	0.087
876.53	0.092
876.70	0.081
876.87	0.082
877.04	0.080
877.21	0.088
877.38	0.089
877.55	0.095
877.72	0.089
877.89	0.085
878.06	0.083
878.23	0.085
878.39	0.081
878.56	0.090
878.73	0.091
878.90	0.092
879.07	0.084
879.24	0.080
879.41	0.081
879.58	0.086
879.75	0.089
879.92	0.091
880.09	0.085
880.26	0.093
880.43	0.091
880.60	0.093
880.77	0.099
880.94	0.105
881.11	0.107
881.27	0.105
881.44	0.098
881.61	0.103
881.78	0.106
881.95	0.109
882.12	0.099
882.29	0.098
882.46	0.090
882.63	0.090
882.80	0.094
882.97	0.092
883.14	0.084
883.30	0.087
883.47	0.082
883.64	0.075
883.81	0.085
883.98	0.089
884.15	0.088
884.32	0.097
884.49	0.094
884.66	0.092
884.82	0.099
884.99	0.109
885.16	0.108
885.33	0.104
885.50	0.110
885.67	0.103
885.84	0.107
886.01	0.094
886.17	0.094
886.34	0.096
886.51	0.101
886.68	0.099
886.85	0.094
887.02	0.106
887.19	0.111
887.36	0.108
887.52	0.112
887.69	0.117
887.86	0.126
888.03	0.124
888.20	0.122
888.37	0.120
888.54	0.121
888.70	0.126
888.87	0.121
889.04	0.118
889.21	0.111
889.38	0.106
889.55	0.097
889.71	0.204
889.88	0.049
890.05	-0.036
890.22	0.131
890.39	0.085
>>>>>End Processed Spectral Data<<<<<
