SpectraSuite Data File
++++++++++++++++++++++++++++++++++++
Date: Mon Jun 15 06:35:32 PDT 2015
User: introlabs
Dark Spectrum Present: Yes
Reference Spectrum Present: Yes
Number of Sampled Component Spectra: 1
Spectrometers: USB4H08886
Integration Time (usec): 44366 (USB4H08886)
Spectra Averaged: 20 (USB4H08886)
Boxcar Smoothing: 5 (USB4H08886)
Correct for Electrical Dark: Yes (USB4H08886)
Strobe/Lamp Enabled: No (USB4H08886)
Correct for Detector Non-linearity: Yes (USB4H08886)
Correct for Stray Light: Yes (USB4H08886)
Number of Pixels in Processed Spectrum: 3648
>>>>>Begin Processed Spectral Data<<<<<
178.14	-0.266
178.36	-0.266
178.57	-0.266
178.79	-0.000
179.01	-0.245
179.22	-1.769
179.44	-0.869
179.65	-0.000
179.87	-0.000
180.08	-0.000
180.30	0.822
180.52	0.891
180.73	0.327
180.95	0.094
181.16	0.054
181.38	0.061
181.59	0.044
181.81	0.043
182.03	0.034
182.24	0.015
182.46	-0.002
182.67	-0.007
182.89	-0.018
183.10	-0.025
183.32	-0.016
183.54	-0.019
183.75	-0.029
183.97	-0.028
184.18	-0.030
184.40	-0.035
184.61	-0.026
184.83	-0.030
185.04	-0.025
185.26	-0.015
185.48	-0.019
185.69	-0.018
185.91	-0.014
186.12	-0.011
186.34	-0.002
186.55	-0.012
186.77	-0.010
186.98	-0.016
187.20	-0.011
187.42	-0.015
187.63	-0.024
187.85	-0.022
188.06	-0.029
188.28	-0.031
188.49	-0.025
188.71	-0.037
188.92	-0.031
189.14	-0.039
189.36	-0.023
189.57	-0.027
189.79	-0.017
190.00	-0.016
190.22	-0.008
190.43	-0.002
190.65	0.001
190.86	-0.001
191.08	-0.002
191.29	-0.006
191.51	-0.005
191.72	-0.016
191.94	-0.007
192.16	-0.020
192.37	-0.020
192.59	-0.022
192.80	-0.037
193.02	-0.039
193.23	-0.031
193.45	-0.026
193.66	-0.020
193.88	-0.018
194.09	-0.013
194.31	-0.020
194.52	-0.007
194.74	-0.003
194.95	-0.009
195.17	-0.003
195.38	-0.003
195.60	0.001
195.81	0.003
196.03	0.003
196.25	0.012
196.46	0.001
196.68	0.007
196.89	-0.002
197.11	0.001
197.32	0.003
197.54	0.002
197.75	0.008
197.97	0.003
198.18	-0.001
198.40	-0.003
198.61	-0.010
198.83	-0.008
199.04	-0.015
199.26	-0.013
199.47	-0.017
199.69	-0.015
199.90	-0.016
200.12	-0.023
200.33	-0.030
200.55	-0.023
200.76	-0.023
200.98	-0.026
201.19	-0.020
201.41	-0.013
201.62	-0.018
201.84	-0.018
202.05	-0.021
202.27	-0.021
202.48	-0.028
202.70	-0.023
202.91	-0.031
203.13	-0.029
203.34	-0.019
203.56	-0.022
203.77	-0.021
203.99	-0.023
204.20	-0.021
204.42	-0.021
204.63	-0.020
204.85	-0.014
205.06	-0.025
205.28	-0.016
205.49	-0.020
205.71	-0.023
205.92	-0.024
206.14	-0.029
206.35	-0.023
206.56	-0.026
206.78	-0.023
206.99	-0.018
207.21	-0.012
207.42	0.001
207.64	-0.011
207.85	-0.005
208.07	-0.008
208.28	-0.013
208.50	-0.014
208.71	-0.017
208.93	-0.015
209.14	-0.019
209.36	-0.023
209.57	-0.030
209.79	-0.032
210.00	-0.021
210.22	-0.022
210.43	-0.022
210.64	-0.017
210.86	-0.013
211.07	-0.008
211.29	-0.007
211.50	-0.008
211.72	-0.007
211.93	-0.009
212.15	-0.011
212.36	-0.011
212.58	-0.012
212.79	-0.009
213.01	-0.015
213.22	-0.019
213.43	-0.018
213.65	-0.017
213.86	-0.021
214.08	-0.028
214.29	-0.028
214.51	-0.033
214.72	-0.037
214.94	-0.040
215.15	-0.039
215.36	-0.035
215.58	-0.036
215.79	-0.043
216.01	-0.048
216.22	-0.036
216.44	-0.033
216.65	-0.026
216.87	-0.015
217.08	-0.015
217.29	-0.007
217.51	-0.012
217.72	-0.013
217.94	-0.011
218.15	-0.006
218.37	-0.005
218.58	-0.008
218.80	-0.006
219.01	-0.007
219.22	-0.014
219.44	-0.019
219.65	-0.028
219.87	-0.023
220.08	-0.014
220.30	-0.013
220.51	-0.016
220.72	-0.012
220.94	-0.015
221.15	-0.013
221.37	-0.012
221.58	-0.014
221.79	-0.009
222.01	-0.006
222.22	-0.006
222.44	-0.017
222.65	-0.011
222.87	-0.014
223.08	-0.020
223.29	-0.022
223.51	-0.032
223.72	-0.031
223.94	-0.036
224.15	-0.041
224.36	-0.040
224.58	-0.040
224.79	-0.035
225.01	-0.043
225.22	-0.043
225.44	-0.038
225.65	-0.035
225.86	-0.030
226.08	-0.031
226.29	-0.024
226.51	-0.022
226.72	-0.024
226.93	-0.028
227.15	-0.037
227.36	-0.033
227.58	-0.032
227.79	-0.037
228.00	-0.040
228.22	-0.047
228.43	-0.052
228.65	-0.059
228.86	-0.057
229.07	-0.058
229.29	-0.058
229.50	-0.055
229.72	-0.064
229.93	-0.069
230.14	-0.067
230.36	-0.062
230.57	-0.060
230.78	-0.060
231.00	-0.058
231.21	-0.061
231.43	-0.061
231.64	-0.062
231.85	-0.061
232.07	-0.055
232.28	-0.055
232.50	-0.056
232.71	-0.057
232.92	-0.057
233.14	-0.057
233.35	-0.061
233.56	-0.063
233.78	-0.062
233.99	-0.062
234.21	-0.060
234.42	-0.059
234.63	-0.059
234.85	-0.060
235.06	-0.062
235.27	-0.064
235.49	-0.066
235.70	-0.064
235.91	-0.063
236.13	-0.067
236.34	-0.068
236.56	-0.069
236.77	-0.071
236.98	-0.070
237.20	-0.072
237.41	-0.070
237.62	-0.070
237.84	-0.069
238.05	-0.068
238.26	-0.067
238.48	-0.067
238.69	-0.066
238.91	-0.066
239.12	-0.065
239.33	-0.065
239.55	-0.064
239.76	-0.064
239.97	-0.064
240.19	-0.064
240.40	-0.064
240.61	-0.063
240.83	-0.061
241.04	-0.061
241.25	-0.060
241.47	-0.061
241.68	-0.061
241.89	-0.060
242.11	-0.059
242.32	-0.058
242.53	-0.057
242.75	-0.056
242.96	-0.056
243.17	-0.055
243.39	-0.054
243.60	-0.054
243.81	-0.053
244.03	-0.052
244.24	-0.051
244.45	-0.051
244.67	-0.051
244.88	-0.050
245.09	-0.050
245.31	-0.050
245.52	-0.050
245.73	-0.050
245.95	-0.050
246.16	-0.049
246.37	-0.049
246.59	-0.049
246.80	-0.048
247.01	-0.048
247.23	-0.048
247.44	-0.047
247.65	-0.047
247.87	-0.047
248.08	-0.047
248.29	-0.046
248.51	-0.046
248.72	-0.046
248.93	-0.045
249.15	-0.045
249.36	-0.045
249.57	-0.045
249.78	-0.044
250.00	-0.044
250.21	-0.043
250.42	-0.043
250.64	-0.042
250.85	-0.042
251.06	-0.041
251.28	-0.041
251.49	-0.040
251.70	-0.040
251.92	-0.040
252.13	-0.040
252.34	-0.040
252.55	-0.039
252.77	-0.039
252.98	-0.039
253.19	-0.039
253.41	-0.039
253.62	-0.039
253.83	-0.039
254.05	-0.038
254.26	-0.038
254.47	-0.038
254.68	-0.037
254.90	-0.037
255.11	-0.037
255.32	-0.037
255.54	-0.037
255.75	-0.037
255.96	-0.036
256.17	-0.036
256.39	-0.036
256.60	-0.036
256.81	-0.036
257.03	-0.036
257.24	-0.036
257.45	-0.036
257.66	-0.036
257.88	-0.035
258.09	-0.035
258.30	-0.035
258.51	-0.035
258.73	-0.035
258.94	-0.034
259.15	-0.034
259.37	-0.034
259.58	-0.034
259.79	-0.034
260.00	-0.034
260.22	-0.034
260.43	-0.034
260.64	-0.034
260.85	-0.034
261.07	-0.034
261.28	-0.034
261.49	-0.034
261.71	-0.034
261.92	-0.034
262.13	-0.034
262.34	-0.035
262.56	-0.035
262.77	-0.035
262.98	-0.035
263.19	-0.034
263.41	-0.035
263.62	-0.035
263.83	-0.035
264.04	-0.036
264.26	-0.036
264.47	-0.036
264.68	-0.036
264.89	-0.036
265.11	-0.036
265.32	-0.036
265.53	-0.036
265.74	-0.036
265.96	-0.036
266.17	-0.036
266.38	-0.036
266.59	-0.037
266.81	-0.037
267.02	-0.037
267.23	-0.037
267.44	-0.037
267.65	-0.037
267.87	-0.038
268.08	-0.038
268.29	-0.038
268.50	-0.038
268.72	-0.039
268.93	-0.039
269.14	-0.039
269.35	-0.039
269.57	-0.039
269.78	-0.039
269.99	-0.040
270.20	-0.040
270.41	-0.040
270.63	-0.040
270.84	-0.040
271.05	-0.040
271.26	-0.040
271.48	-0.040
271.69	-0.040
271.90	-0.040
272.11	-0.040
272.32	-0.040
272.54	-0.040
272.75	-0.040
272.96	-0.040
273.17	-0.040
273.39	-0.040
273.60	-0.040
273.81	-0.040
274.02	-0.041
274.23	-0.041
274.45	-0.041
274.66	-0.041
274.87	-0.041
275.08	-0.042
275.29	-0.042
275.51	-0.042
275.72	-0.042
275.93	-0.042
276.14	-0.042
276.35	-0.042
276.57	-0.043
276.78	-0.043
276.99	-0.042
277.20	-0.043
277.41	-0.043
277.63	-0.042
277.84	-0.042
278.05	-0.043
278.26	-0.043
278.47	-0.043
278.69	-0.042
278.90	-0.042
279.11	-0.042
279.32	-0.042
279.53	-0.042
279.74	-0.041
279.96	-0.041
280.17	-0.041
280.38	-0.041
280.59	-0.041
280.80	-0.041
281.02	-0.041
281.23	-0.041
281.44	-0.041
281.65	-0.041
281.86	-0.040
282.07	-0.040
282.29	-0.040
282.50	-0.040
282.71	-0.040
282.92	-0.040
283.13	-0.040
283.35	-0.040
283.56	-0.039
283.77	-0.039
283.98	-0.038
284.19	-0.038
284.40	-0.038
284.62	-0.037
284.83	-0.037
285.04	-0.037
285.25	-0.036
285.46	-0.036
285.67	-0.035
285.88	-0.035
286.10	-0.035
286.31	-0.034
286.52	-0.034
286.73	-0.034
286.94	-0.033
287.15	-0.033
287.37	-0.033
287.58	-0.032
287.79	-0.032
288.00	-0.032
288.21	-0.031
288.42	-0.031
288.63	-0.030
288.85	-0.030
289.06	-0.029
289.27	-0.028
289.48	-0.028
289.69	-0.027
289.90	-0.026
290.11	-0.026
290.33	-0.025
290.54	-0.025
290.75	-0.025
290.96	-0.025
291.17	-0.024
291.38	-0.024
291.59	-0.024
291.81	-0.024
292.02	-0.024
292.23	-0.024
292.44	-0.023
292.65	-0.023
292.86	-0.023
293.07	-0.023
293.28	-0.023
293.50	-0.022
293.71	-0.022
293.92	-0.022
294.13	-0.021
294.34	-0.021
294.55	-0.021
294.76	-0.021
294.97	-0.021
295.19	-0.020
295.40	-0.020
295.61	-0.020
295.82	-0.020
296.03	-0.020
296.24	-0.020
296.45	-0.020
296.66	-0.020
296.87	-0.020
297.09	-0.020
297.30	-0.020
297.51	-0.020
297.72	-0.020
297.93	-0.020
298.14	-0.020
298.35	-0.020
298.56	-0.020
298.77	-0.020
298.99	-0.019
299.20	-0.019
299.41	-0.019
299.62	-0.019
299.83	-0.019
300.04	-0.019
300.25	-0.019
300.46	-0.019
300.67	-0.019
300.88	-0.019
301.10	-0.019
301.31	-0.019
301.52	-0.019
301.73	-0.019
301.94	-0.019
302.15	-0.019
302.36	-0.019
302.57	-0.019
302.78	-0.019
302.99	-0.019
303.20	-0.019
303.41	-0.019
303.63	-0.019
303.84	-0.019
304.05	-0.019
304.26	-0.019
304.47	-0.019
304.68	-0.019
304.89	-0.019
305.10	-0.019
305.31	-0.019
305.52	-0.019
305.73	-0.019
305.94	-0.019
306.15	-0.019
306.37	-0.018
306.58	-0.018
306.79	-0.018
307.00	-0.018
307.21	-0.018
307.42	-0.018
307.63	-0.018
307.84	-0.018
308.05	-0.018
308.26	-0.018
308.47	-0.018
308.68	-0.018
308.89	-0.018
309.10	-0.018
309.31	-0.018
309.52	-0.018
309.73	-0.018
309.95	-0.018
310.16	-0.017
310.37	-0.017
310.58	-0.018
310.79	-0.018
311.00	-0.018
311.21	-0.018
311.42	-0.018
311.63	-0.018
311.84	-0.018
312.05	-0.018
312.26	-0.018
312.47	-0.018
312.68	-0.018
312.89	-0.018
313.10	-0.018
313.31	-0.017
313.52	-0.017
313.73	-0.017
313.94	-0.017
314.15	-0.017
314.36	-0.017
314.57	-0.017
314.78	-0.017
314.99	-0.017
315.21	-0.017
315.42	-0.017
315.63	-0.018
315.84	-0.018
316.05	-0.018
316.26	-0.018
316.47	-0.018
316.68	-0.018
316.89	-0.018
317.10	-0.018
317.31	-0.018
317.52	-0.017
317.73	-0.017
317.94	-0.017
318.15	-0.017
318.36	-0.017
318.57	-0.017
318.78	-0.017
318.99	-0.017
319.20	-0.017
319.41	-0.016
319.62	-0.017
319.83	-0.017
320.04	-0.017
320.25	-0.017
320.46	-0.017
320.67	-0.017
320.88	-0.017
321.09	-0.017
321.30	-0.017
321.51	-0.017
321.72	-0.017
321.93	-0.017
322.14	-0.017
322.35	-0.016
322.56	-0.016
322.77	-0.016
322.98	-0.016
323.19	-0.016
323.40	-0.016
323.61	-0.016
323.82	-0.016
324.03	-0.016
324.24	-0.016
324.45	-0.016
324.66	-0.016
324.87	-0.016
325.08	-0.016
325.29	-0.016
325.50	-0.016
325.71	-0.016
325.92	-0.016
326.13	-0.016
326.34	-0.016
326.55	-0.016
326.76	-0.016
326.97	-0.016
327.18	-0.016
327.39	-0.016
327.60	-0.016
327.80	-0.015
328.01	-0.015
328.22	-0.015
328.43	-0.015
328.64	-0.015
328.85	-0.015
329.06	-0.015
329.27	-0.015
329.48	-0.015
329.69	-0.015
329.90	-0.015
330.11	-0.015
330.32	-0.015
330.53	-0.015
330.74	-0.015
330.95	-0.015
331.16	-0.015
331.37	-0.015
331.58	-0.015
331.79	-0.015
332.00	-0.015
332.21	-0.015
332.42	-0.015
332.63	-0.015
332.83	-0.015
333.04	-0.015
333.25	-0.014
333.46	-0.014
333.67	-0.014
333.88	-0.014
334.09	-0.014
334.30	-0.014
334.51	-0.014
334.72	-0.014
334.93	-0.014
335.14	-0.014
335.35	-0.014
335.56	-0.014
335.77	-0.014
335.98	-0.014
336.18	-0.014
336.39	-0.014
336.60	-0.014
336.81	-0.014
337.02	-0.014
337.23	-0.014
337.44	-0.014
337.65	-0.014
337.86	-0.014
338.07	-0.014
338.28	-0.014
338.49	-0.014
338.70	-0.014
338.91	-0.014
339.11	-0.014
339.32	-0.014
339.53	-0.014
339.74	-0.014
339.95	-0.014
340.16	-0.014
340.37	-0.014
340.58	-0.014
340.79	-0.014
341.00	-0.014
341.21	-0.014
341.41	-0.014
341.62	-0.014
341.83	-0.013
342.04	-0.014
342.25	-0.014
342.46	-0.013
342.67	-0.013
342.88	-0.013
343.09	-0.013
343.30	-0.013
343.50	-0.013
343.71	-0.013
343.92	-0.013
344.13	-0.013
344.34	-0.013
344.55	-0.013
344.76	-0.013
344.97	-0.013
345.18	-0.013
345.38	-0.013
345.59	-0.013
345.80	-0.013
346.01	-0.013
346.22	-0.013
346.43	-0.013
346.64	-0.013
346.85	-0.013
347.06	-0.013
347.26	-0.013
347.47	-0.013
347.68	-0.013
347.89	-0.013
348.10	-0.013
348.31	-0.013
348.52	-0.013
348.73	-0.013
348.93	-0.013
349.14	-0.013
349.35	-0.013
349.56	-0.013
349.77	-0.012
349.98	-0.012
350.19	-0.012
350.39	-0.012
350.60	-0.012
350.81	-0.012
351.02	-0.012
351.23	-0.012
351.44	-0.012
351.65	-0.012
351.86	-0.012
352.06	-0.012
352.27	-0.012
352.48	-0.012
352.69	-0.012
352.90	-0.012
353.11	-0.012
353.31	-0.012
353.52	-0.012
353.73	-0.012
353.94	-0.012
354.15	-0.011
354.36	-0.011
354.57	-0.011
354.77	-0.011
354.98	-0.011
355.19	-0.011
355.40	-0.011
355.61	-0.011
355.82	-0.011
356.02	-0.011
356.23	-0.011
356.44	-0.011
356.65	-0.011
356.86	-0.011
357.07	-0.011
357.27	-0.011
357.48	-0.011
357.69	-0.011
357.90	-0.011
358.11	-0.011
358.32	-0.011
358.52	-0.011
358.73	-0.011
358.94	-0.011
359.15	-0.011
359.36	-0.011
359.56	-0.011
359.77	-0.011
359.98	-0.011
360.19	-0.011
360.40	-0.011
360.61	-0.011
360.81	-0.011
361.02	-0.011
361.23	-0.011
361.44	-0.011
361.65	-0.011
361.85	-0.011
362.06	-0.011
362.27	-0.011
362.48	-0.011
362.69	-0.011
362.89	-0.011
363.10	-0.011
363.31	-0.011
363.52	-0.011
363.73	-0.011
363.93	-0.011
364.14	-0.011
364.35	-0.011
364.56	-0.011
364.77	-0.011
364.97	-0.011
365.18	-0.011
365.39	-0.011
365.60	-0.011
365.81	-0.011
366.01	-0.011
366.22	-0.011
366.43	-0.010
366.64	-0.010
366.84	-0.010
367.05	-0.010
367.26	-0.010
367.47	-0.011
367.68	-0.010
367.88	-0.010
368.09	-0.010
368.30	-0.010
368.51	-0.010
368.71	-0.010
368.92	-0.010
369.13	-0.010
369.34	-0.010
369.55	-0.010
369.75	-0.010
369.96	-0.010
370.17	-0.010
370.38	-0.010
370.58	-0.010
370.79	-0.010
371.00	-0.010
371.21	-0.010
371.41	-0.010
371.62	-0.010
371.83	-0.010
372.04	-0.010
372.24	-0.010
372.45	-0.010
372.66	-0.010
372.87	-0.010
373.07	-0.010
373.28	-0.010
373.49	-0.010
373.70	-0.010
373.90	-0.010
374.11	-0.010
374.32	-0.010
374.53	-0.010
374.73	-0.010
374.94	-0.010
375.15	-0.010
375.36	-0.010
375.56	-0.010
375.77	-0.010
375.98	-0.010
376.19	-0.010
376.39	-0.010
376.60	-0.010
376.81	-0.010
377.02	-0.010
377.22	-0.010
377.43	-0.010
377.64	-0.010
377.84	-0.010
378.05	-0.010
378.26	-0.010
378.47	-0.010
378.67	-0.010
378.88	-0.010
379.09	-0.010
379.30	-0.010
379.50	-0.010
379.71	-0.009
379.92	-0.009
380.12	-0.009
380.33	-0.009
380.54	-0.009
380.75	-0.009
380.95	-0.009
381.16	-0.009
381.37	-0.009
381.57	-0.009
381.78	-0.009
381.99	-0.009
382.20	-0.009
382.40	-0.009
382.61	-0.009
382.82	-0.009
383.02	-0.009
383.23	-0.009
383.44	-0.009
383.64	-0.009
383.85	-0.009
384.06	-0.009
384.27	-0.009
384.47	-0.009
384.68	-0.009
384.89	-0.009
385.09	-0.009
385.30	-0.009
385.51	-0.009
385.71	-0.009
385.92	-0.009
386.13	-0.009
386.33	-0.009
386.54	-0.009
386.75	-0.009
386.95	-0.009
387.16	-0.009
387.37	-0.009
387.58	-0.009
387.78	-0.009
387.99	-0.009
388.20	-0.009
388.40	-0.009
388.61	-0.009
388.82	-0.009
389.02	-0.009
389.23	-0.009
389.44	-0.009
389.64	-0.009
389.85	-0.009
390.06	-0.009
390.26	-0.009
390.47	-0.009
390.68	-0.009
390.88	-0.009
391.09	-0.009
391.30	-0.009
391.50	-0.009
391.71	-0.009
391.92	-0.009
392.12	-0.009
392.33	-0.009
392.53	-0.009
392.74	-0.009
392.95	-0.009
393.15	-0.009
393.36	-0.009
393.57	-0.009
393.77	-0.009
393.98	-0.009
394.19	-0.009
394.39	-0.009
394.60	-0.009
394.81	-0.009
395.01	-0.008
395.22	-0.008
395.43	-0.008
395.63	-0.009
395.84	-0.009
396.04	-0.009
396.25	-0.009
396.46	-0.009
396.66	-0.009
396.87	-0.009
397.08	-0.009
397.28	-0.008
397.49	-0.008
397.69	-0.008
397.90	-0.008
398.11	-0.008
398.31	-0.008
398.52	-0.008
398.73	-0.008
398.93	-0.008
399.14	-0.008
399.34	-0.008
399.55	-0.008
399.76	-0.008
399.96	-0.008
400.17	-0.008
400.37	-0.008
400.58	-0.008
400.79	-0.008
400.99	-0.008
401.20	-0.008
401.41	-0.008
401.61	-0.008
401.82	-0.008
402.02	-0.008
402.23	-0.008
402.44	-0.008
402.64	-0.008
402.85	-0.008
403.05	-0.008
403.26	-0.008
403.47	-0.008
403.67	-0.008
403.88	-0.008
404.08	-0.008
404.29	-0.008
404.50	-0.008
404.70	-0.008
404.91	-0.008
405.11	-0.008
405.32	-0.008
405.52	-0.008
405.73	-0.008
405.94	-0.008
406.14	-0.008
406.35	-0.008
406.55	-0.008
406.76	-0.008
406.97	-0.008
407.17	-0.008
407.38	-0.008
407.58	-0.008
407.79	-0.008
407.99	-0.008
408.20	-0.008
408.41	-0.008
408.61	-0.008
408.82	-0.008
409.02	-0.008
409.23	-0.008
409.43	-0.008
409.64	-0.008
409.84	-0.008
410.05	-0.008
410.26	-0.008
410.46	-0.008
410.67	-0.008
410.87	-0.008
411.08	-0.008
411.28	-0.008
411.49	-0.008
411.69	-0.008
411.90	-0.008
412.11	-0.008
412.31	-0.008
412.52	-0.008
412.72	-0.008
412.93	-0.008
413.13	-0.008
413.34	-0.008
413.54	-0.008
413.75	-0.008
413.95	-0.008
414.16	-0.008
414.37	-0.008
414.57	-0.008
414.78	-0.008
414.98	-0.008
415.19	-0.008
415.39	-0.008
415.60	-0.008
415.80	-0.008
416.01	-0.008
416.21	-0.008
416.42	-0.007
416.62	-0.007
416.83	-0.007
417.03	-0.007
417.24	-0.007
417.44	-0.007
417.65	-0.007
417.86	-0.007
418.06	-0.007
418.27	-0.007
418.47	-0.007
418.68	-0.007
418.88	-0.008
419.09	-0.008
419.29	-0.007
419.50	-0.007
419.70	-0.007
419.91	-0.007
420.11	-0.008
420.32	-0.007
420.52	-0.007
420.73	-0.007
420.93	-0.007
421.14	-0.007
421.34	-0.007
421.55	-0.007
421.75	-0.007
421.96	-0.007
422.16	-0.007
422.37	-0.007
422.57	-0.007
422.78	-0.007
422.98	-0.007
423.19	-0.007
423.39	-0.007
423.60	-0.007
423.80	-0.007
424.01	-0.007
424.21	-0.007
424.42	-0.007
424.62	-0.007
424.83	-0.007
425.03	-0.007
425.23	-0.007
425.44	-0.007
425.64	-0.007
425.85	-0.007
426.05	-0.007
426.26	-0.007
426.46	-0.007
426.67	-0.007
426.87	-0.007
427.08	-0.007
427.28	-0.007
427.49	-0.007
427.69	-0.007
427.90	-0.007
428.10	-0.007
428.31	-0.007
428.51	-0.007
428.71	-0.007
428.92	-0.007
429.12	-0.007
429.33	-0.007
429.53	-0.007
429.74	-0.007
429.94	-0.007
430.15	-0.007
430.35	-0.007
430.56	-0.007
430.76	-0.007
430.96	-0.007
431.17	-0.007
431.37	-0.007
431.58	-0.007
431.78	-0.007
431.99	-0.007
432.19	-0.007
432.40	-0.007
432.60	-0.007
432.80	-0.007
433.01	-0.007
433.21	-0.007
433.42	-0.007
433.62	-0.007
433.83	-0.007
434.03	-0.007
434.23	-0.007
434.44	-0.007
434.64	-0.007
434.85	-0.007
435.05	-0.007
435.26	-0.007
435.46	-0.007
435.66	-0.007
435.87	-0.007
436.07	-0.007
436.28	-0.007
436.48	-0.007
436.69	-0.007
436.89	-0.007
437.09	-0.007
437.30	-0.007
437.50	-0.007
437.71	-0.007
437.91	-0.007
438.11	-0.007
438.32	-0.007
438.52	-0.007
438.73	-0.007
438.93	-0.006
439.13	-0.007
439.34	-0.007
439.54	-0.007
439.75	-0.007
439.95	-0.007
440.15	-0.007
440.36	-0.007
440.56	-0.007
440.77	-0.007
440.97	-0.007
441.17	-0.007
441.38	-0.006
441.58	-0.006
441.79	-0.006
441.99	-0.006
442.19	-0.006
442.40	-0.006
442.60	-0.006
442.81	-0.006
443.01	-0.006
443.21	-0.006
443.42	-0.007
443.62	-0.007
443.82	-0.006
444.03	-0.007
444.23	-0.007
444.44	-0.007
444.64	-0.007
444.84	-0.007
445.05	-0.007
445.25	-0.007
445.45	-0.007
445.66	-0.007
445.86	-0.007
446.06	-0.007
446.27	-0.007
446.47	-0.007
446.68	-0.007
446.88	-0.007
447.08	-0.007
447.29	-0.007
447.49	-0.006
447.69	-0.006
447.90	-0.006
448.10	-0.006
448.30	-0.006
448.51	-0.006
448.71	-0.006
448.91	-0.006
449.12	-0.006
449.32	-0.006
449.52	-0.006
449.73	-0.006
449.93	-0.006
450.14	-0.006
450.34	-0.006
450.54	-0.006
450.75	-0.006
450.95	-0.006
451.15	-0.006
451.36	-0.006
451.56	-0.006
451.76	-0.006
451.97	-0.006
452.17	-0.006
452.37	-0.006
452.58	-0.006
452.78	-0.006
452.98	-0.006
453.19	-0.006
453.39	-0.006
453.59	-0.006
453.79	-0.006
454.00	-0.006
454.20	-0.006
454.40	-0.006
454.61	-0.006
454.81	-0.006
455.01	-0.006
455.22	-0.006
455.42	-0.006
455.62	-0.006
455.83	-0.006
456.03	-0.006
456.23	-0.006
456.44	-0.006
456.64	-0.006
456.84	-0.006
457.04	-0.006
457.25	-0.006
457.45	-0.006
457.65	-0.006
457.86	-0.006
458.06	-0.006
458.26	-0.006
458.47	-0.006
458.67	-0.006
458.87	-0.006
459.07	-0.006
459.28	-0.006
459.48	-0.006
459.68	-0.006
459.89	-0.006
460.09	-0.006
460.29	-0.006
460.49	-0.006
460.70	-0.006
460.90	-0.006
461.10	-0.006
461.31	-0.006
461.51	-0.006
461.71	-0.006
461.91	-0.006
462.12	-0.006
462.32	-0.006
462.52	-0.006
462.72	-0.006
462.93	-0.006
463.13	-0.006
463.33	-0.006
463.53	-0.006
463.74	-0.006
463.94	-0.006
464.14	-0.006
464.35	-0.006
464.55	-0.006
464.75	-0.006
464.95	-0.006
465.16	-0.006
465.36	-0.006
465.56	-0.006
465.76	-0.006
465.97	-0.006
466.17	-0.006
466.37	-0.006
466.57	-0.006
466.78	-0.006
466.98	-0.006
467.18	-0.006
467.38	-0.006
467.59	-0.005
467.79	-0.005
467.99	-0.005
468.19	-0.005
468.39	-0.005
468.60	-0.005
468.80	-0.006
469.00	-0.006
469.20	-0.006
469.41	-0.006
469.61	-0.006
469.81	-0.006
470.01	-0.006
470.22	-0.006
470.42	-0.006
470.62	-0.006
470.82	-0.006
471.02	-0.006
471.23	-0.006
471.43	-0.006
471.63	-0.006
471.83	-0.006
472.04	-0.006
472.24	-0.006
472.44	-0.006
472.64	-0.006
472.84	-0.006
473.05	-0.006
473.25	-0.006
473.45	-0.006
473.65	-0.006
473.85	-0.006
474.06	-0.006
474.26	-0.006
474.46	-0.006
474.66	-0.006
474.86	-0.006
475.07	-0.006
475.27	-0.006
475.47	-0.006
475.67	-0.006
475.87	-0.006
476.08	-0.006
476.28	-0.006
476.48	-0.006
476.68	-0.006
476.88	-0.006
477.09	-0.006
477.29	-0.006
477.49	-0.006
477.69	-0.006
477.89	-0.006
478.09	-0.006
478.30	-0.006
478.50	-0.006
478.70	-0.006
478.90	-0.006
479.10	-0.006
479.31	-0.006
479.51	-0.006
479.71	-0.006
479.91	-0.006
480.11	-0.006
480.31	-0.006
480.52	-0.006
480.72	-0.006
480.92	-0.006
481.12	-0.006
481.32	-0.006
481.52	-0.006
481.72	-0.006
481.93	-0.006
482.13	-0.006
482.33	-0.006
482.53	-0.006
482.73	-0.006
482.93	-0.006
483.14	-0.006
483.34	-0.006
483.54	-0.006
483.74	-0.006
483.94	-0.006
484.14	-0.006
484.34	-0.006
484.55	-0.006
484.75	-0.006
484.95	-0.006
485.15	-0.006
485.35	-0.006
485.55	-0.006
485.75	-0.006
485.96	-0.006
486.16	-0.005
486.36	-0.005
486.56	-0.005
486.76	-0.005
486.96	-0.005
487.16	-0.005
487.36	-0.005
487.57	-0.005
487.77	-0.005
487.97	-0.005
488.17	-0.005
488.37	-0.005
488.57	-0.005
488.77	-0.005
488.97	-0.005
489.18	-0.005
489.38	-0.005
489.58	-0.005
489.78	-0.005
489.98	-0.005
490.18	-0.005
490.38	-0.005
490.58	-0.005
490.78	-0.005
490.98	-0.005
491.19	-0.005
491.39	-0.005
491.59	-0.005
491.79	-0.005
491.99	-0.005
492.19	-0.005
492.39	-0.005
492.59	-0.005
492.79	-0.005
492.99	-0.005
493.20	-0.005
493.40	-0.005
493.60	-0.005
493.80	-0.005
494.00	-0.005
494.20	-0.005
494.40	-0.005
494.60	-0.005
494.80	-0.005
495.00	-0.005
495.20	-0.005
495.40	-0.005
495.61	-0.005
495.81	-0.005
496.01	-0.005
496.21	-0.005
496.41	-0.005
496.61	-0.005
496.81	-0.005
497.01	-0.005
497.21	-0.005
497.41	-0.005
497.61	-0.005
497.81	-0.005
498.01	-0.005
498.21	-0.005
498.41	-0.005
498.61	-0.005
498.82	-0.005
499.02	-0.005
499.22	-0.005
499.42	-0.005
499.62	-0.005
499.82	-0.005
500.02	-0.005
500.22	-0.005
500.42	-0.005
500.62	-0.005
500.82	-0.005
501.02	-0.005
501.22	-0.005
501.42	-0.005
501.62	-0.005
501.82	-0.005
502.02	-0.005
502.22	-0.005
502.42	-0.005
502.62	-0.005
502.82	-0.005
503.02	-0.005
503.22	-0.005
503.42	-0.005
503.63	-0.005
503.83	-0.005
504.03	-0.005
504.23	-0.005
504.43	-0.005
504.63	-0.005
504.83	-0.005
505.03	-0.005
505.23	-0.005
505.43	-0.005
505.63	-0.005
505.83	-0.005
506.03	-0.005
506.23	-0.005
506.43	-0.005
506.63	-0.005
506.83	-0.005
507.03	-0.005
507.23	-0.005
507.43	-0.005
507.63	-0.005
507.83	-0.005
508.03	-0.005
508.23	-0.005
508.43	-0.005
508.63	-0.005
508.83	-0.005
509.03	-0.004
509.23	-0.005
509.43	-0.004
509.63	-0.004
509.83	-0.005
510.03	-0.004
510.23	-0.004
510.43	-0.004
510.63	-0.004
510.83	-0.004
511.03	-0.004
511.23	-0.005
511.43	-0.005
511.63	-0.004
511.83	-0.004
512.03	-0.004
512.22	-0.004
512.42	-0.004
512.62	-0.004
512.82	-0.004
513.02	-0.004
513.22	-0.004
513.42	-0.004
513.62	-0.004
513.82	-0.004
514.02	-0.004
514.22	-0.004
514.42	-0.004
514.62	-0.004
514.82	-0.004
515.02	-0.004
515.22	-0.004
515.42	-0.004
515.62	-0.004
515.82	-0.005
516.02	-0.005
516.22	-0.005
516.42	-0.005
516.62	-0.005
516.82	-0.005
517.01	-0.005
517.21	-0.005
517.41	-0.005
517.61	-0.005
517.81	-0.005
518.01	-0.005
518.21	-0.005
518.41	-0.005
518.61	-0.005
518.81	-0.004
519.01	-0.004
519.21	-0.004
519.41	-0.004
519.61	-0.004
519.81	-0.004
520.00	-0.004
520.20	-0.004
520.40	-0.005
520.60	-0.005
520.80	-0.005
521.00	-0.005
521.20	-0.004
521.40	-0.005
521.60	-0.005
521.80	-0.005
522.00	-0.005
522.20	-0.005
522.39	-0.005
522.59	-0.005
522.79	-0.004
522.99	-0.004
523.19	-0.004
523.39	-0.005
523.59	-0.005
523.79	-0.004
523.99	-0.004
524.19	-0.004
524.38	-0.004
524.58	-0.004
524.78	-0.004
524.98	-0.004
525.18	-0.004
525.38	-0.004
525.58	-0.004
525.78	-0.004
525.98	-0.004
526.18	-0.004
526.37	-0.004
526.57	-0.004
526.77	-0.004
526.97	-0.004
527.17	-0.004
527.37	-0.004
527.57	-0.004
527.77	-0.004
527.96	-0.004
528.16	-0.004
528.36	-0.004
528.56	-0.004
528.76	-0.004
528.96	-0.004
529.16	-0.004
529.36	-0.004
529.55	-0.004
529.75	-0.004
529.95	-0.004
530.15	-0.004
530.35	-0.004
530.55	-0.004
530.75	-0.004
530.94	-0.004
531.14	-0.004
531.34	-0.004
531.54	-0.004
531.74	-0.004
531.94	-0.004
532.13	-0.004
532.33	-0.004
532.53	-0.004
532.73	-0.004
532.93	-0.004
533.13	-0.004
533.33	-0.004
533.52	-0.004
533.72	-0.004
533.92	-0.004
534.12	-0.004
534.32	-0.004
534.52	-0.004
534.71	-0.004
534.91	-0.004
535.11	-0.004
535.31	-0.004
535.51	-0.004
535.71	-0.004
535.90	-0.004
536.10	-0.004
536.30	-0.004
536.50	-0.004
536.70	-0.004
536.89	-0.004
537.09	-0.004
537.29	-0.004
537.49	-0.004
537.69	-0.004
537.89	-0.004
538.08	-0.004
538.28	-0.004
538.48	-0.004
538.68	-0.004
538.88	-0.004
539.07	-0.004
539.27	-0.004
539.47	-0.004
539.67	-0.004
539.87	-0.004
540.06	-0.004
540.26	-0.004
540.46	-0.004
540.66	-0.004
540.86	-0.004
541.05	-0.004
541.25	-0.004
541.45	-0.004
541.65	-0.004
541.84	-0.004
542.04	-0.004
542.24	-0.004
542.44	-0.004
542.64	-0.004
542.83	-0.004
543.03	-0.004
543.23	-0.004
543.43	-0.004
543.62	-0.004
543.82	-0.004
544.02	-0.004
544.22	-0.004
544.42	-0.004
544.61	-0.004
544.81	-0.004
545.01	-0.004
545.21	-0.004
545.40	-0.004
545.60	-0.004
545.80	-0.004
546.00	-0.004
546.19	-0.004
546.39	-0.004
546.59	-0.004
546.79	-0.004
546.98	-0.003
547.18	-0.004
547.38	-0.003
547.58	-0.003
547.77	-0.003
547.97	-0.003
548.17	-0.003
548.37	-0.003
548.56	-0.004
548.76	-0.004
548.96	-0.003
549.16	-0.004
549.35	-0.004
549.55	-0.004
549.75	-0.004
549.95	-0.004
550.14	-0.004
550.34	-0.004
550.54	-0.004
550.73	-0.004
550.93	-0.004
551.13	-0.004
551.33	-0.004
551.52	-0.004
551.72	-0.004
551.92	-0.004
552.12	-0.004
552.31	-0.004
552.51	-0.004
552.71	-0.004
552.90	-0.004
553.10	-0.004
553.30	-0.004
553.50	-0.004
553.69	-0.004
553.89	-0.004
554.09	-0.004
554.28	-0.004
554.48	-0.004
554.68	-0.004
554.87	-0.004
555.07	-0.004
555.27	-0.004
555.47	-0.004
555.66	-0.004
555.86	-0.004
556.06	-0.004
556.25	-0.004
556.45	-0.004
556.65	-0.004
556.84	-0.004
557.04	-0.004
557.24	-0.004
557.43	-0.004
557.63	-0.004
557.83	-0.004
558.02	-0.004
558.22	-0.004
558.42	-0.004
558.61	-0.004
558.81	-0.004
559.01	-0.004
559.21	-0.004
559.40	-0.004
559.60	-0.003
559.80	-0.004
559.99	-0.004
560.19	-0.004
560.39	-0.004
560.58	-0.004
560.78	-0.004
560.97	-0.004
561.17	-0.004
561.37	-0.004
561.56	-0.004
561.76	-0.004
561.96	-0.004
562.15	-0.004
562.35	-0.004
562.55	-0.004
562.74	-0.004
562.94	-0.004
563.14	-0.003
563.33	-0.003
563.53	-0.003
563.73	-0.003
563.92	-0.003
564.12	-0.003
564.31	-0.003
564.51	-0.003
564.71	-0.003
564.90	-0.003
565.10	-0.003
565.30	-0.003
565.49	-0.003
565.69	-0.003
565.89	-0.003
566.08	-0.003
566.28	-0.003
566.47	-0.003
566.67	-0.003
566.87	-0.003
567.06	-0.004
567.26	-0.003
567.46	-0.004
567.65	-0.004
567.85	-0.004
568.04	-0.004
568.24	-0.004
568.44	-0.004
568.63	-0.004
568.83	-0.004
569.02	-0.004
569.22	-0.004
569.42	-0.004
569.61	-0.004
569.81	-0.004
570.00	-0.004
570.20	-0.004
570.40	-0.004
570.59	-0.004
570.79	-0.004
570.98	-0.004
571.18	-0.004
571.38	-0.004
571.57	-0.004
571.77	-0.004
571.96	-0.004
572.16	-0.004
572.35	-0.004
572.55	-0.004
572.75	-0.004
572.94	-0.004
573.14	-0.004
573.33	-0.004
573.53	-0.004
573.73	-0.004
573.92	-0.004
574.12	-0.004
574.31	-0.004
574.51	-0.004
574.70	-0.003
574.90	-0.003
575.09	-0.003
575.29	-0.003
575.49	-0.002
575.68	-0.002
575.88	-0.001
576.07	-0.001
576.27	-0.001
576.46	-0.000
576.66	-0.000
576.86	-0.000
577.05	-0.000
577.25	-0.000
577.44	-0.000
577.64	-0.000
577.83	-0.000
578.03	-0.000
578.22	-0.000
578.42	-0.000
578.61	-0.000
578.81	-0.000
579.00	-0.000
579.20	-0.000
579.40	-0.000
579.59	-0.000
579.79	-0.000
579.98	-0.000
580.18	-0.000
580.37	-0.000
580.57	-0.000
580.76	-0.000
580.96	-0.000
581.15	-0.000
581.35	-0.000
581.54	-0.000
581.74	-0.000
581.93	-0.000
582.13	-0.000
582.32	-0.000
582.52	-0.000
582.71	-0.000
582.91	-0.000
583.10	-0.000
583.30	-0.000
583.49	-0.000
583.69	-0.000
583.88	-0.000
584.08	-0.000
584.27	-0.000
584.47	-0.000
584.66	-0.000
584.86	-0.000
585.05	-0.000
585.25	-0.000
585.44	-0.000
585.64	-0.000
585.83	-0.000
586.03	-0.000
586.22	-0.000
586.42	-0.000
586.61	-0.001
586.81	-0.001
587.00	-0.001
587.20	-0.001
587.39	-0.002
587.59	-0.002
587.78	-0.002
587.98	-0.002
588.17	-0.003
588.37	-0.003
588.56	-0.003
588.76	-0.003
588.95	-0.003
589.15	-0.003
589.34	-0.003
589.54	-0.003
589.73	-0.003
589.92	-0.003
590.12	-0.003
590.31	-0.003
590.51	-0.003
590.70	-0.003
590.90	-0.003
591.09	-0.003
591.29	-0.004
591.48	-0.004
591.68	-0.004
591.87	-0.004
592.06	-0.004
592.26	-0.004
592.45	-0.004
592.65	-0.003
592.84	-0.004
593.04	-0.004
593.23	-0.003
593.43	-0.003
593.62	-0.003
593.81	-0.003
594.01	-0.003
594.20	-0.003
594.40	-0.003
594.59	-0.003
594.79	-0.003
594.98	-0.003
595.17	-0.003
595.37	-0.003
595.56	-0.003
595.76	-0.003
595.95	-0.003
596.14	-0.003
596.34	-0.003
596.53	-0.003
596.73	-0.003
596.92	-0.003
597.12	-0.004
597.31	-0.004
597.50	-0.004
597.70	-0.004
597.89	-0.004
598.09	-0.004
598.28	-0.004
598.47	-0.004
598.67	-0.004
598.86	-0.004
599.06	-0.004
599.25	-0.003
599.44	-0.003
599.64	-0.003
599.83	-0.003
600.03	-0.003
600.22	-0.003
600.41	-0.003
600.61	-0.003
600.80	-0.003
601.00	-0.002
601.19	-0.002
601.38	-0.002
601.58	-0.002
601.77	-0.002
601.96	-0.003
602.16	-0.003
602.35	-0.003
602.55	-0.003
602.74	-0.003
602.93	-0.003
603.13	-0.003
603.32	-0.003
603.51	-0.003
603.71	-0.003
603.90	-0.003
604.09	-0.003
604.29	-0.004
604.48	-0.004
604.68	-0.004
604.87	-0.004
605.06	-0.004
605.26	-0.004
605.45	-0.003
605.64	-0.003
605.84	-0.003
606.03	-0.003
606.22	-0.003
606.42	-0.003
606.61	-0.003
606.80	-0.003
607.00	-0.003
607.19	-0.003
607.38	-0.003
607.58	-0.003
607.77	-0.003
607.96	-0.002
608.16	-0.002
608.35	-0.002
608.54	-0.002
608.74	-0.002
608.93	-0.002
609.12	-0.002
609.32	-0.002
609.51	-0.002
609.70	-0.002
609.90	-0.003
610.09	-0.003
610.28	-0.002
610.48	-0.003
610.67	-0.003
610.86	-0.003
611.06	-0.003
611.25	-0.003
611.44	-0.003
611.64	-0.003
611.83	-0.003
612.02	-0.003
612.21	-0.003
612.41	-0.003
612.60	-0.003
612.79	-0.003
612.99	-0.003
613.18	-0.003
613.37	-0.003
613.57	-0.003
613.76	-0.003
613.95	-0.003
614.14	-0.003
614.34	-0.003
614.53	-0.003
614.72	-0.003
614.92	-0.003
615.11	-0.002
615.30	-0.003
615.49	-0.002
615.69	-0.002
615.88	-0.003
616.07	-0.003
616.26	-0.003
616.46	-0.002
616.65	-0.002
616.84	-0.002
617.04	-0.003
617.23	-0.002
617.42	-0.002
617.61	-0.002
617.81	-0.002
618.00	-0.002
618.19	-0.002
618.38	-0.002
618.58	-0.002
618.77	-0.003
618.96	-0.003
619.15	-0.003
619.35	-0.003
619.54	-0.002
619.73	-0.003
619.92	-0.002
620.12	-0.003
620.31	-0.003
620.50	-0.002
620.69	-0.002
620.89	-0.002
621.08	-0.002
621.27	-0.002
621.46	-0.002
621.66	-0.003
621.85	-0.003
622.04	-0.003
622.23	-0.003
622.43	-0.003
622.62	-0.003
622.81	-0.003
623.00	-0.003
623.19	-0.003
623.39	-0.003
623.58	-0.003
623.77	-0.003
623.96	-0.003
624.16	-0.003
624.35	-0.003
624.54	-0.003
624.73	-0.003
624.92	-0.003
625.12	-0.003
625.31	-0.003
625.50	-0.003
625.69	-0.002
625.88	-0.002
626.08	-0.002
626.27	-0.002
626.46	-0.002
626.65	-0.002
626.84	-0.002
627.04	-0.002
627.23	-0.002
627.42	-0.002
627.61	-0.002
627.80	-0.002
628.00	-0.002
628.19	-0.002
628.38	-0.002
628.57	-0.002
628.76	-0.002
628.96	-0.002
629.15	-0.002
629.34	-0.002
629.53	-0.002
629.72	-0.002
629.91	-0.002
630.11	-0.002
630.30	-0.002
630.49	-0.002
630.68	-0.002
630.87	-0.002
631.06	-0.002
631.26	-0.002
631.45	-0.002
631.64	-0.002
631.83	-0.002
632.02	-0.001
632.21	-0.001
632.41	-0.001
632.60	-0.002
632.79	-0.002
632.98	-0.002
633.17	-0.002
633.36	-0.002
633.55	-0.002
633.75	-0.002
633.94	-0.002
634.13	-0.002
634.32	-0.002
634.51	-0.002
634.70	-0.002
634.89	-0.002
635.09	-0.002
635.28	-0.002
635.47	-0.002
635.66	-0.002
635.85	-0.002
636.04	-0.002
636.23	-0.002
636.43	-0.002
636.62	-0.002
636.81	-0.002
637.00	-0.002
637.19	-0.002
637.38	-0.002
637.57	-0.002
637.76	-0.002
637.95	-0.002
638.15	-0.002
638.34	-0.002
638.53	-0.002
638.72	-0.002
638.91	-0.002
639.10	-0.002
639.29	-0.002
639.48	-0.002
639.67	-0.002
639.87	-0.002
640.06	-0.002
640.25	-0.002
640.44	-0.002
640.63	-0.002
640.82	-0.002
641.01	-0.002
641.20	-0.002
641.39	-0.002
641.58	-0.002
641.78	-0.002
641.97	-0.002
642.16	-0.002
642.35	-0.002
642.54	-0.002
642.73	-0.002
642.92	-0.002
643.11	-0.002
643.30	-0.002
643.49	-0.002
643.68	-0.002
643.87	-0.002
644.06	-0.002
644.25	-0.002
644.45	-0.002
644.64	-0.002
644.83	-0.002
645.02	-0.002
645.21	-0.002
645.40	-0.002
645.59	-0.002
645.78	-0.002
645.97	-0.002
646.16	-0.002
646.35	-0.002
646.54	-0.002
646.73	-0.002
646.92	-0.002
647.11	-0.002
647.30	-0.002
647.49	-0.003
647.68	-0.002
647.88	-0.002
648.07	-0.002
648.26	-0.002
648.45	-0.002
648.64	-0.002
648.83	-0.002
649.02	-0.002
649.21	-0.002
649.40	-0.002
649.59	-0.002
649.78	-0.002
649.97	-0.002
650.16	-0.002
650.35	-0.002
650.54	-0.002
650.73	-0.002
650.92	-0.002
651.11	-0.002
651.30	-0.001
651.49	-0.001
651.68	-0.001
651.87	-0.001
652.06	-0.001
652.25	-0.001
652.44	-0.002
652.63	-0.002
652.82	-0.003
653.01	-0.003
653.20	-0.003
653.39	-0.004
653.58	-0.004
653.77	-0.004
653.96	-0.004
654.15	-0.004
654.34	-0.004
654.53	-0.004
654.72	-0.004
654.91	-0.004
655.10	-0.003
655.29	-0.003
655.48	-0.003
655.67	-0.003
655.86	-0.003
656.05	-0.003
656.24	-0.003
656.43	-0.003
656.62	-0.002
656.81	-0.002
657.00	-0.002
657.19	-0.001
657.38	-0.001
657.57	-0.001
657.76	-0.001
657.95	-0.001
658.14	-0.000
658.33	-0.000
658.51	-0.000
658.70	0.000
658.89	0.000
659.08	-0.000
659.27	-0.001
659.46	-0.001
659.65	-0.001
659.84	-0.001
660.03	-0.001
660.22	-0.001
660.41	-0.001
660.60	-0.001
660.79	-0.001
660.98	-0.001
661.17	-0.002
661.36	-0.002
661.55	-0.002
661.74	-0.002
661.92	-0.002
662.11	-0.002
662.30	-0.002
662.49	-0.002
662.68	-0.002
662.87	-0.002
663.06	-0.002
663.25	-0.002
663.44	-0.002
663.63	-0.002
663.82	-0.002
664.01	-0.002
664.20	-0.002
664.38	-0.002
664.57	-0.002
664.76	-0.002
664.95	-0.002
665.14	-0.002
665.33	-0.001
665.52	-0.001
665.71	-0.001
665.90	-0.001
666.09	-0.001
666.28	-0.001
666.46	-0.001
666.65	-0.001
666.84	-0.001
667.03	-0.001
667.22	-0.001
667.41	-0.002
667.60	-0.001
667.79	-0.001
667.98	-0.002
668.16	-0.002
668.35	-0.002
668.54	-0.002
668.73	-0.002
668.92	-0.002
669.11	-0.002
669.30	-0.002
669.49	-0.002
669.67	-0.002
669.86	-0.002
670.05	-0.002
670.24	-0.002
670.43	-0.002
670.62	-0.002
670.81	-0.002
671.00	-0.002
671.18	-0.002
671.37	-0.002
671.56	-0.002
671.75	-0.002
671.94	-0.002
672.13	-0.002
672.32	-0.002
672.50	-0.002
672.69	-0.002
672.88	-0.002
673.07	-0.002
673.26	-0.002
673.45	-0.002
673.63	-0.002
673.82	-0.002
674.01	-0.002
674.20	-0.002
674.39	-0.002
674.58	-0.002
674.76	-0.002
674.95	-0.002
675.14	-0.002
675.33	-0.002
675.52	-0.002
675.71	-0.002
675.89	-0.002
676.08	-0.002
676.27	-0.002
676.46	-0.002
676.65	-0.002
676.84	-0.002
677.02	-0.002
677.21	-0.002
677.40	-0.002
677.59	-0.002
677.78	-0.002
677.96	-0.002
678.15	-0.002
678.34	-0.002
678.53	-0.002
678.72	-0.002
678.90	-0.002
679.09	-0.002
679.28	-0.002
679.47	-0.002
679.66	-0.002
679.84	-0.002
680.03	-0.002
680.22	-0.002
680.41	-0.002
680.60	-0.002
680.78	-0.002
680.97	-0.001
681.16	-0.001
681.35	-0.001
681.53	-0.001
681.72	-0.001
681.91	-0.001
682.10	-0.001
682.29	-0.001
682.47	-0.001
682.66	-0.001
682.85	-0.001
683.04	-0.001
683.22	-0.001
683.41	-0.001
683.60	-0.001
683.79	-0.001
683.97	-0.002
684.16	-0.001
684.35	-0.001
684.54	-0.002
684.72	-0.002
684.91	-0.002
685.10	-0.001
685.29	-0.001
685.47	-0.001
685.66	-0.001
685.85	-0.001
686.04	-0.001
686.22	-0.001
686.41	-0.001
686.60	-0.001
686.79	-0.001
686.97	-0.001
687.16	-0.001
687.35	-0.001
687.54	-0.001
687.72	-0.001
687.91	-0.001
688.10	-0.001
688.29	-0.001
688.47	-0.001
688.66	-0.001
688.85	-0.001
689.03	-0.001
689.22	-0.001
689.41	-0.001
689.60	-0.001
689.78	-0.001
689.97	-0.001
690.16	-0.001
690.34	-0.001
690.53	-0.001
690.72	-0.001
690.91	-0.001
691.09	-0.001
691.28	-0.001
691.47	-0.001
691.65	-0.001
691.84	-0.001
692.03	-0.001
692.21	-0.001
692.40	-0.001
692.59	-0.001
692.77	-0.001
692.96	-0.001
693.15	-0.001
693.34	-0.001
693.52	-0.001
693.71	-0.001
693.90	-0.001
694.08	-0.001
694.27	-0.001
694.46	-0.001
694.64	-0.001
694.83	-0.002
695.02	-0.001
695.20	-0.001
695.39	-0.001
695.58	-0.001
695.76	-0.001
695.95	-0.001
696.14	-0.001
696.32	-0.001
696.51	-0.001
696.70	-0.002
696.88	-0.002
697.07	-0.002
697.26	-0.002
697.44	-0.002
697.63	-0.002
697.81	-0.002
698.00	-0.002
698.19	-0.002
698.37	-0.002
698.56	-0.002
698.75	-0.001
698.93	-0.001
699.12	-0.002
699.31	-0.002
699.49	-0.002
699.68	-0.002
699.87	-0.002
700.05	-0.002
700.24	-0.002
700.42	-0.001
700.61	-0.001
700.80	-0.001
700.98	-0.001
701.17	-0.001
701.36	-0.001
701.54	-0.001
701.73	-0.001
701.91	-0.001
702.10	-0.001
702.29	-0.001
702.47	-0.001
702.66	-0.001
702.84	-0.001
703.03	-0.001
703.22	-0.001
703.40	-0.001
703.59	-0.001
703.77	-0.001
703.96	-0.001
704.15	-0.001
704.33	-0.001
704.52	-0.001
704.70	-0.001
704.89	-0.001
705.08	-0.001
705.26	-0.001
705.45	-0.001
705.63	-0.002
705.82	-0.001
706.00	-0.001
706.19	-0.001
706.38	-0.001
706.56	-0.001
706.75	-0.001
706.93	-0.001
707.12	-0.001
707.30	-0.001
707.49	-0.001
707.68	-0.001
707.86	-0.001
708.05	-0.001
708.23	-0.001
708.42	-0.001
708.60	-0.001
708.79	-0.001
708.98	-0.001
709.16	-0.001
709.35	-0.001
709.53	-0.001
709.72	-0.001
709.90	-0.002
710.09	-0.002
710.27	-0.002
710.46	-0.002
710.64	-0.002
710.83	-0.002
711.02	-0.002
711.20	-0.001
711.39	-0.001
711.57	-0.001
711.76	-0.001
711.94	-0.001
712.13	-0.001
712.31	-0.001
712.50	-0.001
712.68	-0.001
712.87	-0.001
713.05	-0.001
713.24	-0.001
713.42	-0.001
713.61	-0.001
713.79	-0.001
713.98	-0.001
714.16	-0.001
714.35	-0.001
714.54	-0.001
714.72	-0.001
714.91	-0.001
715.09	-0.001
715.28	-0.001
715.46	-0.001
715.65	-0.001
715.83	-0.001
716.02	-0.001
716.20	-0.001
716.39	-0.002
716.57	-0.002
716.76	-0.002
716.94	-0.002
717.12	-0.001
717.31	-0.001
717.49	-0.001
717.68	-0.001
717.86	-0.001
718.05	-0.001
718.23	-0.001
718.42	-0.001
718.60	-0.001
718.79	-0.001
718.97	-0.001
719.16	-0.001
719.34	-0.001
719.53	-0.001
719.71	-0.001
719.90	-0.001
720.08	-0.001
720.27	-0.001
720.45	-0.001
720.63	-0.001
720.82	-0.001
721.00	-0.001
721.19	-0.001
721.37	-0.001
721.56	-0.001
721.74	-0.001
721.93	-0.001
722.11	-0.001
722.30	-0.001
722.48	-0.001
722.66	-0.001
722.85	-0.001
723.03	-0.001
723.22	-0.001
723.40	-0.001
723.59	-0.001
723.77	-0.001
723.95	-0.001
724.14	-0.001
724.32	-0.001
724.51	-0.001
724.69	-0.001
724.88	-0.001
725.06	-0.001
725.24	-0.001
725.43	-0.001
725.61	-0.001
725.80	-0.001
725.98	-0.001
726.16	-0.001
726.35	-0.001
726.53	-0.001
726.72	-0.001
726.90	-0.001
727.09	-0.001
727.27	-0.001
727.45	-0.001
727.64	-0.001
727.82	-0.001
728.01	-0.001
728.19	-0.001
728.37	-0.001
728.56	-0.002
728.74	-0.002
728.92	-0.002
729.11	-0.002
729.29	-0.002
729.48	-0.002
729.66	-0.002
729.84	-0.002
730.03	-0.002
730.21	-0.002
730.40	-0.002
730.58	-0.002
730.76	-0.002
730.95	-0.003
731.13	-0.003
731.31	-0.003
731.50	-0.002
731.68	-0.002
731.86	-0.002
732.05	-0.002
732.23	-0.002
732.42	-0.002
732.60	-0.002
732.78	-0.002
732.97	-0.001
733.15	-0.001
733.33	-0.001
733.52	-0.001
733.70	-0.002
733.88	-0.002
734.07	-0.002
734.25	-0.002
734.43	-0.002
734.62	-0.002
734.80	-0.002
734.98	-0.002
735.17	-0.002
735.35	-0.002
735.53	-0.002
735.72	-0.002
735.90	-0.002
736.08	-0.001
736.27	-0.002
736.45	-0.002
736.63	-0.002
736.82	-0.001
737.00	-0.002
737.18	-0.002
737.37	-0.002
737.55	-0.002
737.73	-0.002
737.92	-0.002
738.10	-0.002
738.28	-0.003
738.46	-0.002
738.65	-0.002
738.83	-0.002
739.01	-0.002
739.20	-0.002
739.38	-0.002
739.56	-0.001
739.75	-0.001
739.93	-0.001
740.11	-0.001
740.29	-0.001
740.48	-0.001
740.66	-0.001
740.84	-0.002
741.03	-0.001
741.21	-0.002
741.39	-0.002
741.57	-0.002
741.76	-0.002
741.94	-0.002
742.12	-0.002
742.31	-0.002
742.49	-0.001
742.67	-0.002
742.85	-0.002
743.04	-0.002
743.22	-0.002
743.40	-0.001
743.58	-0.001
743.77	-0.002
743.95	-0.002
744.13	-0.002
744.31	-0.002
744.50	-0.003
744.68	-0.003
744.86	-0.003
745.04	-0.004
745.23	-0.004
745.41	-0.004
745.59	-0.004
745.77	-0.004
745.96	-0.004
746.14	-0.003
746.32	-0.004
746.50	-0.003
746.69	-0.003
746.87	-0.003
747.05	-0.002
747.23	-0.002
747.42	-0.001
747.60	-0.002
747.78	-0.002
747.96	-0.001
748.14	-0.001
748.33	-0.001
748.51	-0.001
748.69	-0.002
748.87	-0.002
749.06	-0.002
749.24	-0.001
749.42	-0.002
749.60	-0.001
749.78	-0.001
749.97	-0.002
750.15	-0.002
750.33	-0.002
750.51	-0.002
750.69	-0.002
750.88	-0.002
751.06	-0.002
751.24	-0.002
751.42	-0.002
751.60	-0.003
751.79	-0.003
751.97	-0.003
752.15	-0.003
752.33	-0.002
752.51	-0.002
752.69	-0.002
752.88	-0.003
753.06	-0.003
753.24	-0.002
753.42	-0.002
753.60	-0.002
753.78	-0.002
753.97	-0.003
754.15	-0.003
754.33	-0.003
754.51	-0.004
754.69	-0.004
754.87	-0.003
755.06	-0.004
755.24	-0.004
755.42	-0.005
755.60	-0.005
755.78	-0.005
755.96	-0.005
756.15	-0.005
756.33	-0.005
756.51	-0.004
756.69	-0.004
756.87	-0.004
757.05	-0.004
757.23	-0.003
757.42	-0.002
757.60	-0.002
757.78	-0.002
757.96	-0.002
758.14	-0.001
758.32	-0.002
758.50	-0.002
758.69	-0.002
758.87	-0.002
759.05	-0.001
759.23	-0.002
759.41	-0.002
759.59	-0.002
759.77	-0.002
759.95	-0.002
760.13	-0.002
760.32	-0.001
760.50	-0.001
760.68	-0.002
760.86	-0.002
761.04	-0.001
761.22	-0.002
761.40	-0.002
761.58	-0.002
761.76	-0.002
761.95	-0.002
762.13	-0.002
762.31	-0.002
762.49	-0.002
762.67	-0.002
762.85	-0.002
763.03	-0.002
763.21	-0.002
763.39	-0.002
763.57	-0.002
763.75	-0.002
763.94	-0.002
764.12	-0.002
764.30	-0.002
764.48	-0.003
764.66	-0.003
764.84	-0.003
765.02	-0.003
765.20	-0.003
765.38	-0.003
765.56	-0.002
765.74	-0.002
765.92	-0.002
766.10	-0.002
766.28	-0.001
766.46	-0.001
766.65	-0.001
766.83	-0.001
767.01	-0.000
767.19	0.000
767.37	-0.001
767.55	-0.000
767.73	0.000
767.91	0.000
768.09	0.000
768.27	-0.001
768.45	-0.001
768.63	-0.001
768.81	-0.001
768.99	-0.001
769.17	-0.001
769.35	-0.001
769.53	-0.002
769.71	-0.002
769.89	-0.002
770.07	-0.001
770.25	-0.001
770.43	-0.001
770.61	-0.002
770.79	-0.002
770.97	-0.001
771.15	-0.002
771.33	-0.001
771.51	-0.001
771.69	-0.001
771.87	-0.001
772.05	-0.001
772.24	0.000
772.42	0.001
772.60	0.001
772.78	0.002
772.96	0.001
773.14	0.001
773.32	0.001
773.49	0.001
773.67	0.000
773.85	0.000
774.03	-0.000
774.21	-0.000
774.39	-0.001
774.57	-0.001
774.75	-0.001
774.93	-0.001
775.11	-0.001
775.29	-0.002
775.47	-0.002
775.65	-0.001
775.83	-0.001
776.01	-0.001
776.19	-0.001
776.37	-0.001
776.55	-0.001
776.73	-0.001
776.91	-0.001
777.09	-0.001
777.27	-0.001
777.45	-0.002
777.63	-0.002
777.81	-0.002
777.99	-0.002
778.17	-0.003
778.35	-0.003
778.53	-0.003
778.71	-0.003
778.89	-0.003
779.07	-0.003
779.24	-0.003
779.42	-0.002
779.60	-0.002
779.78	-0.002
779.96	-0.002
780.14	-0.002
780.32	-0.002
780.50	-0.002
780.68	-0.002
780.86	-0.002
781.04	-0.002
781.22	-0.002
781.40	-0.001
781.58	-0.001
781.75	-0.001
781.93	-0.001
782.11	-0.001
782.29	-0.001
782.47	-0.001
782.65	-0.000
782.83	-0.000
783.01	-0.000
783.19	-0.001
783.37	-0.001
783.55	-0.001
783.72	-0.001
783.90	-0.001
784.08	-0.001
784.26	-0.001
784.44	-0.001
784.62	-0.000
784.80	0.000
784.98	0.000
785.16	0.000
785.33	0.000
785.51	0.000
785.69	-0.000
785.87	-0.000
786.05	0.000
786.23	-0.000
786.41	-0.001
786.59	-0.001
786.77	-0.002
786.94	-0.002
787.12	-0.002
787.30	-0.002
787.48	-0.002
787.66	-0.002
787.84	-0.001
788.02	-0.002
788.19	-0.002
788.37	-0.001
788.55	-0.001
788.73	-0.001
788.91	-0.001
789.09	-0.001
789.27	-0.000
789.44	-0.000
789.62	-0.000
789.80	-0.000
789.98	0.000
790.16	0.000
790.34	0.000
790.51	0.000
790.69	0.000
790.87	-0.000
791.05	-0.000
791.23	-0.001
791.41	-0.000
791.58	-0.001
791.76	-0.001
791.94	-0.001
792.12	-0.001
792.30	-0.001
792.48	-0.001
792.65	-0.001
792.83	-0.001
793.01	-0.001
793.19	-0.001
793.37	-0.001
793.54	-0.001
793.72	-0.001
793.90	-0.001
794.08	-0.001
794.26	-0.001
794.43	-0.001
794.61	-0.001
794.79	-0.001
794.97	-0.001
795.15	-0.001
795.32	-0.001
795.50	-0.001
795.68	-0.001
795.86	-0.001
796.04	-0.001
796.21	-0.001
796.39	-0.001
796.57	-0.002
796.75	-0.001
796.92	-0.001
797.10	-0.001
797.28	-0.001
797.46	-0.001
797.64	-0.001
797.81	-0.000
797.99	-0.000
798.17	0.000
798.35	0.000
798.52	0.001
798.70	0.000
798.88	-0.000
799.06	-0.000
799.23	-0.000
799.41	-0.000
799.59	0.000
799.77	-0.001
799.94	-0.001
800.12	-0.001
800.30	-0.001
800.48	-0.000
800.65	-0.000
800.83	-0.000
801.01	-0.000
801.19	-0.001
801.36	-0.001
801.54	-0.001
801.72	-0.001
801.90	-0.000
802.07	-0.000
802.25	-0.001
802.43	-0.001
802.60	-0.001
802.78	-0.000
802.96	-0.000
803.14	-0.000
803.31	0.000
803.49	-0.000
803.67	-0.000
803.84	-0.001
804.02	-0.001
804.20	-0.001
804.38	-0.001
804.55	-0.001
804.73	-0.001
804.91	-0.001
805.08	-0.001
805.26	-0.001
805.44	-0.001
805.61	-0.001
805.79	-0.001
805.97	-0.002
806.15	-0.002
806.32	-0.001
806.50	-0.001
806.68	-0.002
806.85	-0.002
807.03	-0.001
807.21	-0.001
807.38	-0.002
807.56	-0.002
807.74	-0.002
807.91	-0.001
808.09	-0.001
808.27	-0.002
808.44	-0.002
808.62	-0.001
808.80	-0.001
808.97	-0.001
809.15	-0.001
809.33	-0.000
809.50	-0.000
809.68	-0.000
809.86	-0.001
810.03	-0.000
810.21	-0.001
810.39	-0.001
810.56	-0.001
810.74	-0.001
810.91	-0.001
811.09	-0.001
811.27	-0.001
811.44	-0.001
811.62	-0.001
811.80	-0.001
811.97	-0.001
812.15	-0.001
812.33	-0.000
812.50	-0.000
812.68	-0.001
812.85	-0.001
813.03	-0.001
813.21	-0.001
813.38	-0.001
813.56	-0.001
813.74	-0.001
813.91	-0.000
814.09	-0.000
814.26	-0.001
814.44	-0.001
814.62	0.000
814.79	0.000
814.97	0.000
815.14	0.000
815.32	0.000
815.50	0.000
815.67	0.000
815.85	-0.000
816.02	-0.001
816.20	-0.000
816.38	-0.001
816.55	-0.001
816.73	-0.001
816.90	-0.001
817.08	-0.001
817.26	-0.001
817.43	-0.001
817.61	-0.001
817.78	-0.001
817.96	-0.001
818.13	-0.001
818.31	-0.000
818.49	-0.001
818.66	-0.001
818.84	-0.001
819.01	-0.001
819.19	-0.001
819.36	-0.000
819.54	-0.001
819.71	-0.001
819.89	-0.000
820.07	0.000
820.24	0.000
820.42	0.001
820.59	0.001
820.77	0.000
820.94	0.001
821.12	0.001
821.29	0.001
821.47	0.001
821.64	0.000
821.82	-0.000
822.00	-0.001
822.17	-0.001
822.35	-0.001
822.52	-0.001
822.70	-0.001
822.87	-0.001
823.05	-0.002
823.22	-0.002
823.40	-0.002
823.57	-0.001
823.75	-0.001
823.92	-0.000
824.10	-0.000
824.27	-0.000
824.45	-0.001
824.62	-0.000
824.80	0.000
824.97	0.000
825.15	0.000
825.32	0.000
825.50	0.001
825.67	0.001
825.85	0.001
826.02	0.001
826.20	0.001
826.37	0.001
826.55	0.001
826.72	0.001
826.90	0.001
827.07	0.001
827.25	0.001
827.42	0.001
827.60	0.000
827.77	0.000
827.95	0.000
828.12	-0.000
828.30	-0.000
828.47	-0.000
828.65	-0.002
828.82	-0.001
829.00	-0.001
829.17	-0.001
829.34	-0.000
829.52	0.000
829.69	0.001
829.87	0.000
830.04	0.000
830.22	0.000
830.39	-0.001
830.57	-0.001
830.74	-0.002
830.92	-0.002
831.09	-0.002
831.26	-0.003
831.44	-0.003
831.61	-0.004
831.79	-0.003
831.96	-0.003
832.14	-0.002
832.31	-0.000
832.49	0.002
832.66	0.003
832.83	0.003
833.01	0.004
833.18	0.004
833.36	0.005
833.53	0.005
833.70	0.005
833.88	0.003
834.05	0.002
834.23	0.001
834.40	-0.000
834.58	-0.000
834.75	-0.001
834.92	-0.003
835.10	-0.004
835.27	-0.004
835.45	-0.003
835.62	-0.005
835.79	-0.004
835.97	-0.003
836.14	-0.002
836.32	-0.002
836.49	-0.002
836.66	-0.001
836.84	-0.001
837.01	-0.001
837.18	-0.000
837.36	-0.001
837.53	0.001
837.71	0.002
837.88	0.003
838.05	0.003
838.23	0.003
838.40	0.004
838.58	0.002
838.75	0.003
838.92	0.003
839.10	0.003
839.27	0.002
839.44	0.003
839.62	0.002
839.79	0.001
839.96	-0.001
840.14	0.001
840.31	0.000
840.48	-0.001
840.66	-0.000
840.83	-0.000
841.01	0.001
841.18	0.001
841.35	-0.001
841.53	-0.000
841.70	-0.001
841.87	0.001
842.05	-0.002
842.22	-0.002
842.39	-0.001
842.57	-0.001
842.74	-0.002
842.91	-0.003
843.09	-0.002
843.26	-0.003
843.43	-0.004
843.60	-0.002
843.78	-0.002
843.95	0.001
844.12	0.001
844.30	0.002
844.47	0.000
844.64	0.001
844.82	0.001
844.99	0.003
845.16	0.003
845.34	0.004
845.51	0.002
845.68	0.002
845.85	0.001
846.03	0.002
846.20	0.002
846.37	0.004
846.55	0.003
846.72	0.003
846.89	0.002
847.06	0.005
847.24	0.004
847.41	0.004
847.58	0.003
847.76	0.004
847.93	0.005
848.10	0.005
848.27	0.002
848.45	0.005
848.62	0.006
848.79	0.004
848.97	-0.002
849.14	-0.000
849.31	0.001
849.48	0.001
849.66	-0.002
849.83	-0.004
850.00	-0.002
850.17	-0.001
850.35	-0.004
850.52	-0.008
850.69	-0.008
850.86	-0.005
851.04	-0.007
851.21	-0.008
851.38	-0.005
851.55	-0.005
851.72	-0.005
851.90	-0.007
852.07	-0.007
852.24	-0.005
852.41	-0.003
852.59	-0.000
852.76	-0.002
852.93	-0.003
853.10	-0.004
853.28	-0.007
853.45	-0.005
853.62	-0.004
853.79	-0.003
853.96	-0.003
854.14	-0.002
854.31	-0.002
854.48	-0.001
854.65	0.000
854.82	0.000
855.00	0.001
855.17	-0.000
855.34	0.000
855.51	-0.001
855.68	-0.003
855.86	-0.003
856.03	-0.004
856.20	-0.005
856.37	-0.006
856.54	-0.006
856.72	-0.004
856.89	-0.002
857.06	-0.001
857.23	-0.003
857.40	-0.001
857.57	-0.001
857.75	0.004
857.92	0.003
858.09	0.004
858.26	0.005
858.43	0.007
858.60	0.009
858.78	0.006
858.95	0.005
859.12	0.005
859.29	0.003
859.46	0.003
859.63	0.001
859.81	0.000
859.98	0.002
860.15	0.002
860.32	0.004
860.49	0.002
860.66	0.004
860.83	0.005
861.01	0.007
861.18	0.006
861.35	0.004
861.52	0.004
861.69	0.004
861.86	0.004
862.03	0.002
862.21	-0.003
862.38	-0.006
862.55	-0.007
862.72	-0.008
862.89	-0.008
863.06	-0.006
863.23	-0.006
863.40	-0.008
863.58	-0.007
863.75	-0.004
863.92	-0.007
864.09	-0.007
864.26	-0.005
864.43	-0.005
864.60	-0.003
864.77	-0.006
864.94	-0.006
865.11	-0.003
865.29	-0.004
865.46	-0.007
865.63	-0.011
865.80	-0.009
865.97	-0.005
866.14	-0.009
866.31	-0.006
866.48	-0.008
866.65	-0.005
866.82	-0.004
866.99	-0.007
867.16	-0.009
867.34	-0.006
867.51	-0.005
867.68	-0.006
867.85	-0.008
868.02	-0.004
868.19	-0.006
868.36	-0.004
868.53	-0.005
868.70	-0.002
868.87	0.001
869.04	0.008
869.21	0.008
869.38	0.005
869.55	0.010
869.72	0.008
869.89	0.005
870.06	0.004
870.24	-0.000
870.41	0.002
870.58	-0.000
870.75	-0.005
870.92	-0.008
871.09	-0.004
871.26	-0.001
871.43	-0.004
871.60	-0.002
871.77	0.001
871.94	0.003
872.11	0.008
872.28	0.006
872.45	0.002
872.62	0.002
872.79	0.005
872.96	-0.004
873.13	-0.004
873.30	-0.004
873.47	-0.005
873.64	-0.004
873.81	-0.008
873.98	-0.006
874.15	-0.008
874.32	-0.007
874.49	-0.006
874.66	-0.003
874.83	0.006
875.00	0.007
875.17	0.011
875.34	0.010
875.51	0.006
875.68	0.008
875.85	-0.000
876.02	0.005
876.19	0.009
876.36	0.016
876.53	0.012
876.70	0.008
876.87	0.005
877.04	0.001
877.21	0.001
877.38	0.000
877.55	-0.002
877.72	-0.000
877.89	-0.002
878.06	-0.004
878.23	-0.015
878.39	-0.010
878.56	-0.011
878.73	-0.008
878.90	-0.006
879.07	-0.009
879.24	-0.007
879.41	-0.003
879.58	-0.002
879.75	-0.008
879.92	-0.003
880.09	0.005
880.26	-0.004
880.43	0.000
880.60	-0.001
880.77	-0.010
880.94	-0.004
881.11	-0.004
881.27	0.001
881.44	-0.001
881.61	-0.000
881.78	-0.009
881.95	-0.013
882.12	-0.010
882.29	-0.003
882.46	0.003
882.63	0.013
882.80	0.010
882.97	0.006
883.14	-0.000
883.30	-0.001
883.47	0.006
883.64	0.006
883.81	0.009
883.98	0.003
884.15	-0.004
884.32	-0.014
884.49	-0.021
884.66	-0.015
884.82	-0.005
884.99	-0.004
885.16	-0.003
885.33	-0.003
885.50	-0.001
885.67	0.004
885.84	0.012
886.01	0.008
886.17	0.005
886.34	0.008
886.51	0.003
886.68	-0.003
886.85	-0.004
887.02	-0.002
887.19	-0.010
887.36	-0.006
887.52	-0.007
887.69	-0.011
887.86	-0.009
888.03	-0.009
888.20	0.002
888.37	0.000
888.54	-0.001
888.70	0.005
888.87	0.007
889.04	0.019
889.21	0.014
889.38	0.011
889.55	0.001
889.71	-0.008
889.88	0.070
890.05	-0.019
890.22	0.000
890.39	-0.146
>>>>>End Processed Spectral Data<<<<<
