SpectraSuite Data File
++++++++++++++++++++++++++++++++++++
Date: Mon Jun 15 09:49:11 PDT 2015
User: introlabs
Dark Spectrum Present: Yes
Reference Spectrum Present: Yes
Number of Sampled Component Spectra: 1
Spectrometers: USB4H08886
Integration Time (usec): 44366 (USB4H08886)
Spectra Averaged: 20 (USB4H08886)
Boxcar Smoothing: 5 (USB4H08886)
Correct for Electrical Dark: Yes (USB4H08886)
Strobe/Lamp Enabled: No (USB4H08886)
Correct for Detector Non-linearity: Yes (USB4H08886)
Correct for Stray Light: Yes (USB4H08886)
Number of Pixels in Processed Spectrum: 3648
>>>>>Begin Processed Spectral Data<<<<<
178.14	0.931
178.36	0.931
178.57	0.931
178.79	-0.000
179.01	-0.546
179.22	-0.000
179.44	-0.000
179.65	-0.256
179.87	0.181
180.08	0.688
180.30	0.916
180.52	-0.000
180.73	0.433
180.95	0.455
181.16	0.921
181.38	0.996
181.59	1.591
181.81	2.200
182.03	-0.000
182.24	1.973
182.46	1.723
182.67	1.397
182.89	1.440
183.10	1.359
183.32	1.438
183.54	1.401
183.75	1.363
183.97	1.204
184.18	1.210
184.40	1.409
184.61	1.402
184.83	1.470
185.04	1.726
185.26	1.903
185.48	2.259
185.69	-0.000
185.91	-0.000
186.12	-0.000
186.34	-0.000
186.55	3.516
186.77	1.839
186.98	2.090
187.20	-0.000
187.42	-0.000
187.63	-0.000
187.85	-0.000
188.06	-0.000
188.28	-0.000
188.49	-0.000
188.71	-0.000
188.92	-0.000
189.14	-0.000
189.36	-0.000
189.57	-0.000
189.79	2.262
190.00	-0.000
190.22	1.813
190.43	1.596
190.65	1.274
190.86	1.665
191.08	1.874
191.29	1.972
191.51	3.236
191.72	2.434
191.94	2.225
192.16	2.287
192.37	1.731
192.59	1.916
192.80	2.822
193.02	-0.000
193.23	1.745
193.45	1.563
193.66	1.475
193.88	1.511
194.09	2.409
194.31	1.885
194.52	-0.000
194.74	-0.000
194.95	-0.000
195.17	-0.000
195.38	-0.000
195.60	-0.000
195.81	-0.000
196.03	-0.000
196.25	-0.000
196.46	-0.000
196.68	-0.000
196.89	-0.000
197.11	-0.000
197.32	-0.000
197.54	-0.000
197.75	-0.000
197.97	-0.000
198.18	-0.000
198.40	-0.000
198.61	-0.000
198.83	-0.000
199.04	-0.000
199.26	-0.000
199.47	-0.000
199.69	-0.000
199.90	-0.000
200.12	-0.000
200.33	-0.000
200.55	1.863
200.76	1.605
200.98	1.352
201.19	1.305
201.41	1.454
201.62	1.366
201.84	1.504
202.05	2.087
202.27	-0.000
202.48	-0.000
202.70	-0.000
202.91	-0.000
203.13	2.389
203.34	2.704
203.56	-0.000
203.77	-0.000
203.99	-0.000
204.20	-0.000
204.42	-0.000
204.63	-0.000
204.85	2.108
205.06	2.319
205.28	2.389
205.49	2.572
205.71	2.375
205.92	2.009
206.14	1.619
206.35	1.612
206.56	1.326
206.78	1.437
206.99	1.537
207.21	1.566
207.42	1.369
207.64	1.324
207.85	1.471
208.07	1.818
208.28	1.695
208.50	1.592
208.71	1.679
208.93	2.046
209.14	1.838
209.36	1.699
209.57	1.579
209.79	2.220
210.00	2.263
210.22	1.677
210.43	1.456
210.64	1.415
210.86	1.543
211.07	1.376
211.29	1.391
211.50	1.459
211.72	1.412
211.93	1.594
212.15	1.427
212.36	1.921
212.58	-0.000
212.79	-0.000
213.01	-0.000
213.22	-0.000
213.43	-0.000
213.65	-0.000
213.86	-0.000
214.08	-0.000
214.29	-0.000
214.51	-0.000
214.72	-0.000
214.94	3.034
215.15	2.380
215.36	-0.000
215.58	-0.000
215.79	-0.000
216.01	-0.000
216.22	-0.000
216.44	-0.000
216.65	-0.000
216.87	-0.000
217.08	-0.000
217.29	-0.000
217.51	-0.000
217.72	-0.000
217.94	-0.000
218.15	-0.000
218.37	-0.000
218.58	-0.000
218.80	-0.000
219.01	-0.000
219.22	-0.000
219.44	-0.000
219.65	-0.000
219.87	2.447
220.08	2.356
220.30	2.120
220.51	1.837
220.72	1.935
220.94	1.993
221.15	2.132
221.37	2.017
221.58	3.039
221.79	-0.000
222.01	-0.000
222.22	-0.000
222.44	-0.000
222.65	-0.000
222.87	-0.000
223.08	-0.000
223.29	-0.000
223.51	-0.000
223.72	-0.000
223.94	-0.000
224.15	2.290
224.36	2.070
224.58	1.781
224.79	1.638
225.01	1.548
225.22	1.548
225.44	1.520
225.65	1.541
225.86	1.583
226.08	1.490
226.29	1.468
226.51	1.629
226.72	1.616
226.93	1.808
227.15	2.180
227.36	-0.000
227.58	-0.000
227.79	-0.000
228.00	-0.000
228.22	-0.000
228.43	-0.000
228.65	-0.000
228.86	-0.000
229.07	-0.000
229.29	-0.000
229.50	-0.000
229.72	-0.000
229.93	2.649
230.14	2.370
230.36	2.585
230.57	1.879
230.78	1.786
231.00	1.749
231.21	1.714
231.43	1.512
231.64	1.568
231.85	1.648
232.07	1.623
232.28	1.675
232.50	1.726
232.71	1.822
232.92	2.078
233.14	2.163
233.35	2.137
233.56	2.188
233.78	2.979
233.99	2.486
234.21	2.569
234.42	3.332
234.63	-0.000
234.85	-0.000
235.06	3.173
235.27	3.003
235.49	2.285
235.70	2.218
235.91	2.354
236.13	2.785
236.34	2.652
236.56	2.537
236.77	2.409
236.98	2.087
237.20	2.190
237.41	2.314
237.62	2.447
237.84	2.533
238.05	3.049
238.26	2.544
238.48	2.242
238.69	2.206
238.91	2.275
239.12	2.325
239.33	2.386
239.55	2.216
239.76	2.155
239.97	2.070
240.19	2.131
240.40	2.098
240.61	2.082
240.83	2.050
241.04	2.146
241.25	2.127
241.47	2.238
241.68	2.446
241.89	2.595
242.11	2.610
242.32	2.563
242.53	2.759
242.75	2.802
242.96	-0.000
243.17	-0.000
243.39	-0.000
243.60	-0.000
243.81	-0.000
244.03	-0.000
244.24	-0.000
244.45	-0.000
244.67	-0.000
244.88	-0.000
245.09	-0.000
245.31	-0.000
245.52	-0.000
245.73	3.590
245.95	3.147
246.16	2.953
246.37	3.285
246.59	2.901
246.80	2.834
247.01	2.787
247.23	2.996
247.44	3.505
247.65	3.442
247.87	3.194
248.08	3.596
248.29	3.424
248.51	-0.000
248.72	3.214
248.93	3.356
249.15	2.951
249.36	4.659
249.57	2.950
249.78	2.873
250.00	2.896
250.21	2.790
250.42	2.631
250.64	2.722
250.85	2.663
251.06	2.651
251.28	2.605
251.49	2.699
251.70	2.554
251.92	2.562
252.13	2.487
252.34	2.450
252.55	2.474
252.77	2.563
252.98	2.507
253.19	2.526
253.41	2.564
253.62	2.589
253.83	2.544
254.05	2.555
254.26	2.591
254.47	2.659
254.68	2.716
254.90	2.813
255.11	2.864
255.32	3.022
255.54	3.269
255.75	3.384
255.96	3.297
256.17	3.312
256.39	3.364
256.60	3.743
256.81	-0.000
257.03	-0.000
257.24	-0.000
257.45	-0.000
257.66	-0.000
257.88	3.367
258.09	3.080
258.30	3.127
258.51	3.386
258.73	-0.000
258.94	-0.000
259.15	-0.000
259.37	-0.000
259.58	-0.000
259.79	-0.000
260.00	-0.000
260.22	-0.000
260.43	-0.000
260.64	-0.000
260.85	-0.000
261.07	-0.000
261.28	-0.000
261.49	-0.000
261.71	4.384
261.92	3.296
262.13	3.221
262.34	3.362
262.56	3.487
262.77	2.968
262.98	2.929
263.19	2.850
263.41	2.780
263.62	2.862
263.83	2.954
264.04	2.918
264.26	2.897
264.47	2.895
264.68	2.850
264.89	2.907
265.11	2.974
265.32	2.931
265.53	2.972
265.74	3.089
265.96	3.078
266.17	3.110
266.38	3.145
266.59	3.327
266.81	3.809
267.02	3.584
267.23	3.597
267.44	-0.000
267.65	-0.000
267.87	-0.000
268.08	4.581
268.29	4.177
268.50	3.464
268.72	3.686
268.93	3.645
269.14	3.450
269.35	3.477
269.57	3.352
269.78	3.212
269.99	3.593
270.20	3.692
270.41	3.531
270.63	3.365
270.84	3.397
271.05	3.381
271.26	3.763
271.48	3.803
271.69	4.986
271.90	3.571
272.11	3.314
272.32	3.242
272.54	3.217
272.75	3.237
272.96	3.480
273.17	3.560
273.39	3.565
273.60	3.283
273.81	3.169
274.02	2.990
274.23	3.161
274.45	3.234
274.66	3.219
274.87	3.053
275.08	2.998
275.29	2.964
275.51	2.965
275.72	3.004
275.93	2.962
276.14	2.993
276.35	2.963
276.57	2.940
276.78	2.876
276.99	2.896
277.20	2.970
277.41	3.078
277.63	3.067
277.84	2.984
278.05	3.053
278.26	3.171
278.47	3.286
278.69	3.653
278.90	3.579
279.11	3.552
279.32	4.007
279.53	4.271
279.74	3.926
279.96	3.867
280.17	4.022
280.38	3.426
280.59	3.248
280.80	3.172
281.02	3.168
281.23	3.284
281.44	3.396
281.65	3.248
281.86	3.063
282.07	3.105
282.29	3.153
282.50	3.264
282.71	3.247
282.92	3.457
283.13	3.620
283.35	3.551
283.56	3.452
283.77	3.814
283.98	3.623
284.19	-0.000
284.40	3.913
284.62	3.418
284.83	3.273
285.04	3.339
285.25	3.279
285.46	3.318
285.67	3.246
285.88	3.198
286.10	3.277
286.31	3.263
286.52	3.155
286.73	3.238
286.94	3.370
287.15	3.407
287.37	3.481
287.58	3.440
287.79	3.348
288.00	3.503
288.21	3.663
288.42	3.378
288.63	3.396
288.85	3.754
289.06	3.974
289.27	4.037
289.48	4.422
289.69	-0.000
289.90	5.630
290.11	-0.000
290.33	4.859
290.54	4.369
290.75	3.922
290.96	3.896
291.17	3.609
291.38	3.718
291.59	3.784
291.81	3.756
292.02	3.513
292.23	3.485
292.44	3.439
292.65	3.364
292.86	3.351
293.07	3.370
293.28	3.423
293.50	3.475
293.71	3.437
293.92	3.416
294.13	3.451
294.34	3.466
294.55	3.627
294.76	3.706
294.97	3.795
295.19	3.664
295.40	3.800
295.61	3.729
295.82	3.601
296.03	3.563
296.24	3.707
296.45	3.645
296.66	3.496
296.87	3.450
297.09	3.444
297.30	3.536
297.51	3.644
297.72	3.625
297.93	3.713
298.14	3.815
298.35	3.710
298.56	3.466
298.77	3.405
298.99	3.530
299.20	3.692
299.41	3.585
299.62	3.612
299.83	3.651
300.04	3.693
300.25	3.590
300.46	3.521
300.67	3.587
300.88	3.637
301.10	3.573
301.31	3.667
301.52	3.566
301.73	3.718
301.94	3.720
302.15	3.605
302.36	3.442
302.57	3.565
302.78	3.666
302.99	3.730
303.20	3.746
303.41	4.121
303.63	3.861
303.84	3.725
304.05	3.631
304.26	3.585
304.47	3.673
304.68	3.896
304.89	3.789
305.10	3.863
305.31	3.661
305.52	3.695
305.73	3.687
305.94	3.714
306.15	3.699
306.37	3.590
306.58	3.530
306.79	3.539
307.00	3.502
307.21	3.409
307.42	3.297
307.63	3.364
307.84	3.376
308.05	3.345
308.26	3.394
308.47	3.487
308.68	3.462
308.89	3.443
309.10	3.436
309.31	3.451
309.52	3.498
309.73	3.615
309.95	3.514
310.16	3.457
310.37	3.476
310.58	3.463
310.79	3.414
311.00	3.452
311.21	3.488
311.42	3.521
311.63	3.499
311.84	3.577
312.05	3.561
312.26	3.557
312.47	3.574
312.68	3.488
312.89	3.444
313.10	3.462
313.31	3.513
313.52	3.491
313.73	3.413
313.94	3.428
314.15	3.383
314.36	3.366
314.57	3.310
314.78	3.346
314.99	3.358
315.21	3.393
315.42	3.354
315.63	3.326
315.84	3.291
316.05	3.335
316.26	3.314
316.47	3.314
316.68	3.313
316.89	3.383
317.10	3.356
317.31	3.454
317.52	3.442
317.73	3.413
317.94	3.458
318.15	3.420
318.36	3.467
318.57	3.445
318.78	3.440
318.99	3.438
319.20	3.427
319.41	3.345
319.62	3.261
319.83	3.264
320.04	3.316
320.25	3.251
320.46	3.322
320.67	3.274
320.88	3.266
321.09	3.205
321.30	3.168
321.51	3.167
321.72	3.262
321.93	3.282
322.14	3.258
322.35	3.237
322.56	3.237
322.77	3.256
322.98	3.248
323.19	3.292
323.40	3.404
323.61	3.509
323.82	3.554
324.03	3.543
324.24	3.563
324.45	3.579
324.66	3.668
324.87	3.751
325.08	3.713
325.29	3.617
325.50	3.596
325.71	3.637
325.92	3.592
326.13	3.555
326.34	3.518
326.55	3.474
326.76	3.419
326.97	3.346
327.18	3.333
327.39	3.374
327.60	3.431
327.80	3.492
328.01	3.534
328.22	3.600
328.43	3.627
328.64	3.627
328.85	3.629
329.06	3.713
329.27	3.651
329.48	3.699
329.69	3.666
329.90	3.738
330.11	3.701
330.32	3.538
330.53	3.440
330.74	3.472
330.95	3.454
331.16	3.502
331.37	3.481
331.58	3.518
331.79	3.559
332.00	3.609
332.21	3.541
332.42	3.501
332.63	3.539
332.83	3.574
333.04	3.482
333.25	3.491
333.46	3.424
333.67	3.450
333.88	3.483
334.09	3.483
334.30	3.416
334.51	3.506
334.72	3.496
334.93	3.461
335.14	3.498
335.35	3.482
335.56	3.414
335.77	3.476
335.98	3.394
336.18	3.407
336.39	3.393
336.60	3.354
336.81	3.280
337.02	3.264
337.23	3.295
337.44	3.290
337.65	3.355
337.86	3.437
338.07	3.423
338.28	3.522
338.49	3.465
338.70	3.465
338.91	3.544
339.11	3.552
339.32	3.705
339.53	3.595
339.74	3.584
339.95	3.569
340.16	3.482
340.37	3.555
340.58	3.554
340.79	3.590
341.00	3.532
341.21	3.486
341.41	3.563
341.62	3.424
341.83	3.486
342.04	3.472
342.25	3.412
342.46	3.417
342.67	3.416
342.88	3.448
343.09	3.447
343.30	3.455
343.50	3.498
343.71	3.503
343.92	3.566
344.13	3.533
344.34	3.541
344.55	3.564
344.76	3.679
344.97	3.594
345.18	3.628
345.38	3.595
345.59	3.635
345.80	3.515
346.01	3.432
346.22	3.445
346.43	3.441
346.64	3.453
346.85	3.487
347.06	3.441
347.26	3.512
347.47	3.530
347.68	3.566
347.89	3.539
348.10	3.612
348.31	3.627
348.52	3.616
348.73	3.610
348.93	3.611
349.14	3.555
349.35	3.562
349.56	3.534
349.77	3.480
349.98	3.463
350.19	3.454
350.39	3.433
350.60	3.461
350.81	3.486
351.02	3.513
351.23	3.486
351.44	3.500
351.65	3.477
351.86	3.455
352.06	3.388
352.27	3.424
352.48	3.457
352.69	3.594
352.90	3.531
353.11	3.562
353.31	3.556
353.52	3.648
353.73	3.643
353.94	3.613
354.15	3.632
354.36	3.708
354.57	3.696
354.77	3.672
354.98	3.612
355.19	3.669
355.40	3.609
355.61	3.557
355.82	3.485
356.02	3.526
356.23	3.533
356.44	3.435
356.65	3.412
356.86	3.431
357.07	3.481
357.27	3.419
357.48	3.430
357.69	3.437
357.90	3.448
358.11	3.494
358.32	3.464
358.52	3.499
358.73	3.549
358.94	3.533
359.15	3.409
359.36	3.400
359.56	3.395
359.77	3.417
359.98	3.384
360.19	3.438
360.40	3.421
360.61	3.421
360.81	3.463
361.02	3.507
361.23	3.483
361.44	3.533
361.65	3.497
361.85	3.504
362.06	3.479
362.27	3.571
362.48	3.481
362.69	3.472
362.89	3.453
363.10	3.397
363.31	3.325
363.52	3.333
363.73	3.283
363.93	3.309
364.14	3.321
364.35	3.293
364.56	3.291
364.77	3.314
364.97	3.311
365.18	3.364
365.39	3.398
365.60	3.468
365.81	3.462
366.01	3.611
366.22	3.591
366.43	3.538
366.64	3.509
366.84	3.425
367.05	3.444
367.26	3.397
367.47	3.375
367.68	3.398
367.88	3.394
368.09	3.445
368.30	3.452
368.51	3.455
368.71	3.444
368.92	3.520
369.13	3.598
369.34	3.567
369.55	3.642
369.75	3.652
369.96	3.622
370.17	3.673
370.38	3.623
370.58	3.496
370.79	3.434
371.00	3.515
371.21	3.505
371.41	3.445
371.62	3.435
371.83	3.414
372.04	3.382
372.24	3.355
372.45	3.326
372.66	3.354
372.87	3.383
373.07	3.445
373.28	3.458
373.49	3.470
373.70	3.451
373.90	3.461
374.11	3.483
374.32	3.493
374.53	3.478
374.73	3.505
374.94	3.581
375.15	3.638
375.36	3.589
375.56	3.555
375.77	3.539
375.98	3.661
376.19	3.669
376.39	3.662
376.60	3.552
376.81	3.540
377.02	3.545
377.22	3.438
377.43	3.447
377.64	3.432
377.84	3.411
378.05	3.386
378.26	3.314
378.47	3.304
378.67	3.289
378.88	3.340
379.09	3.354
379.30	3.309
379.50	3.353
379.71	3.345
379.92	3.365
380.12	3.365
380.33	3.333
380.54	3.350
380.75	3.398
380.95	3.394
381.16	3.405
381.37	3.392
381.57	3.477
381.78	3.430
381.99	3.432
382.20	3.422
382.40	3.438
382.61	3.483
382.82	3.479
383.02	3.431
383.23	3.430
383.44	3.389
383.64	3.425
383.85	3.380
384.06	3.421
384.27	3.380
384.47	3.383
384.68	3.370
384.89	3.369
385.09	3.381
385.30	3.382
385.51	3.467
385.71	3.529
385.92	3.549
386.13	3.520
386.33	3.429
386.54	3.470
386.75	3.513
386.95	3.524
387.16	3.551
387.37	3.558
387.58	3.484
387.78	3.407
387.99	3.486
388.20	3.495
388.40	3.474
388.61	3.491
388.82	3.498
389.02	3.415
389.23	3.381
389.44	3.356
389.64	3.375
389.85	3.433
390.06	3.490
390.26	3.456
390.47	3.410
390.68	3.438
390.88	3.428
391.09	3.484
391.30	3.558
391.50	3.563
391.71	3.566
391.92	3.564
392.12	3.585
392.33	3.506
392.53	3.486
392.74	3.446
392.95	3.438
393.15	3.455
393.36	3.382
393.57	3.369
393.77	3.361
393.98	3.399
394.19	3.363
394.39	3.345
394.60	3.333
394.81	3.308
395.01	3.374
395.22	3.461
395.43	3.523
395.63	3.524
395.84	3.508
396.04	3.500
396.25	3.498
396.46	3.528
396.66	3.520
396.87	3.568
397.08	3.559
397.28	3.524
397.49	3.440
397.69	3.446
397.90	3.470
398.11	3.483
398.31	3.577
398.52	3.521
398.73	3.459
398.93	3.456
399.14	3.465
399.34	3.485
399.55	3.407
399.76	3.421
399.96	3.403
400.17	3.366
400.37	3.365
400.58	3.382
400.79	3.373
400.99	3.420
401.20	3.426
401.41	3.401
401.61	3.412
401.82	3.406
402.02	3.385
402.23	3.356
402.44	3.349
402.64	3.329
402.85	3.278
403.05	3.318
403.26	3.353
403.47	3.397
403.67	3.386
403.88	3.412
404.08	3.518
404.29	3.510
404.50	3.468
404.70	3.555
404.91	3.524
405.11	3.551
405.32	3.523
405.52	3.499
405.73	3.405
405.94	3.415
406.14	3.322
406.35	3.276
406.55	3.279
406.76	3.288
406.97	3.270
407.17	3.359
407.38	3.417
407.58	3.416
407.79	3.411
407.99	3.427
408.20	3.455
408.41	3.517
408.61	3.506
408.82	3.528
409.02	3.525
409.23	3.530
409.43	3.436
409.64	3.407
409.84	3.420
410.05	3.433
410.26	3.473
410.46	3.477
410.67	3.473
410.87	3.506
411.08	3.500
411.28	3.542
411.49	3.513
411.69	3.517
411.90	3.484
412.11	3.477
412.31	3.432
412.52	3.473
412.72	3.464
412.93	3.503
413.13	3.548
413.34	3.516
413.54	3.547
413.75	3.504
413.95	3.493
414.16	3.554
414.37	3.505
414.57	3.465
414.78	3.429
414.98	3.428
415.19	3.352
415.39	3.316
415.60	3.380
415.80	3.333
416.01	3.383
416.21	3.403
416.42	3.335
416.62	3.329
416.83	3.393
417.03	3.351
417.24	3.353
417.44	3.415
417.65	3.434
417.86	3.354
418.06	3.424
418.27	3.445
418.47	3.388
418.68	3.412
418.88	3.488
419.09	3.408
419.29	3.399
419.50	3.351
419.70	3.358
419.91	3.365
420.11	3.359
420.32	3.318
420.52	3.304
420.73	3.360
420.93	3.320
421.14	3.333
421.34	3.437
421.55	3.479
421.75	3.524
421.96	3.535
422.16	3.469
422.37	3.498
422.57	3.500
422.78	3.436
422.98	3.430
423.19	3.476
423.39	3.395
423.60	3.353
423.80	3.352
424.01	3.358
424.21	3.330
424.42	3.390
424.62	3.411
424.83	3.377
425.03	3.407
425.23	3.411
425.44	3.438
425.64	3.473
425.85	3.469
426.05	3.460
426.26	3.513
426.46	3.517
426.67	3.481
426.87	3.369
427.08	3.350
427.28	3.336
427.49	3.338
427.69	3.297
427.90	3.270
428.10	3.267
428.31	3.272
428.51	3.227
428.71	3.197
428.92	3.205
429.12	3.278
429.33	3.263
429.53	3.317
429.74	3.276
429.94	3.320
430.15	3.331
430.35	3.292
430.56	3.257
430.76	3.288
430.96	3.359
431.17	3.393
431.37	3.362
431.58	3.416
431.78	3.360
431.99	3.455
432.19	3.393
432.40	3.424
432.60	3.456
432.80	3.500
433.01	3.431
433.21	3.346
433.42	3.283
433.62	3.267
433.83	3.296
434.03	3.312
434.23	3.260
434.44	3.271
434.64	3.248
434.85	3.245
435.05	3.258
435.26	3.291
435.46	3.294
435.66	3.317
435.87	3.357
436.07	3.364
436.28	3.360
436.48	3.332
436.69	3.345
436.89	3.423
437.09	3.472
437.30	3.423
437.50	3.432
437.71	3.542
437.91	3.557
438.11	3.567
438.32	3.596
438.52	3.690
438.73	3.764
438.93	3.716
439.13	3.600
439.34	3.607
439.54	3.776
439.75	3.752
439.95	3.639
440.15	3.654
440.36	3.675
440.56	3.658
440.77	3.520
440.97	3.548
441.17	3.573
441.38	3.604
441.58	3.636
441.79	3.521
441.99	3.515
442.19	3.485
442.40	3.419
442.60	3.322
442.81	3.289
443.01	3.317
443.21	3.302
443.42	3.284
443.62	3.257
443.82	3.212
444.03	3.215
444.23	3.209
444.44	3.236
444.64	3.264
444.84	3.283
445.05	3.304
445.25	3.306
445.45	3.350
445.66	3.364
445.86	3.388
446.06	3.404
446.27	3.381
446.47	3.410
446.68	3.386
446.88	3.382
447.08	3.399
447.29	3.398
447.49	3.383
447.69	3.368
447.90	3.359
448.10	3.356
448.30	3.337
448.51	3.384
448.71	3.361
448.91	3.396
449.12	3.398
449.32	3.441
449.52	3.469
449.73	3.446
449.93	3.481
450.14	3.434
450.34	3.407
450.54	3.428
450.75	3.404
450.95	3.392
451.15	3.397
451.36	3.449
451.56	3.504
451.76	3.406
451.97	3.510
452.17	3.483
452.37	3.550
452.58	3.528
452.78	3.536
452.98	3.558
453.19	3.528
453.39	3.442
453.59	3.414
453.79	3.322
454.00	3.339
454.20	3.301
454.40	3.206
454.61	3.181
454.81	3.194
455.01	3.213
455.22	3.203
455.42	3.242
455.62	3.269
455.83	3.280
456.03	3.305
456.23	3.274
456.44	3.267
456.64	3.301
456.84	3.378
457.04	3.386
457.25	3.339
457.45	3.375
457.65	3.366
457.86	3.398
458.06	3.356
458.26	3.367
458.47	3.375
458.67	3.391
458.87	3.410
459.07	3.404
459.28	3.445
459.48	3.434
459.68	3.418
459.89	3.384
460.09	3.334
460.29	3.342
460.49	3.350
460.70	3.374
460.90	3.366
461.10	3.398
461.31	3.370
461.51	3.334
461.71	3.299
461.91	3.261
462.12	3.251
462.32	3.241
462.52	3.217
462.72	3.246
462.93	3.273
463.13	3.270
463.33	3.257
463.53	3.251
463.74	3.218
463.94	3.297
464.14	3.344
464.35	3.386
464.55	3.429
464.75	3.441
464.95	3.375
465.16	3.396
465.36	3.382
465.56	3.385
465.76	3.347
465.97	3.353
466.17	3.348
466.37	3.278
466.57	3.281
466.78	3.223
466.98	3.230
467.18	3.209
467.38	3.204
467.59	3.198
467.79	3.203
467.99	3.237
468.19	3.280
468.39	3.291
468.60	3.346
468.80	3.293
469.00	3.341
469.20	3.297
469.41	3.323
469.61	3.288
469.81	3.311
470.01	3.250
470.22	3.273
470.42	3.268
470.62	3.237
470.82	3.206
471.02	3.237
471.23	3.275
471.43	3.307
471.63	3.283
471.83	3.257
472.04	3.239
472.24	3.260
472.44	3.175
472.64	3.190
472.84	3.176
473.05	3.219
473.25	3.196
473.45	3.182
473.65	3.207
473.85	3.212
474.06	3.248
474.26	3.271
474.46	3.281
474.66	3.328
474.86	3.305
475.07	3.310
475.27	3.293
475.47	3.322
475.67	3.346
475.87	3.310
476.08	3.293
476.28	3.278
476.48	3.249
476.68	3.271
476.88	3.303
477.09	3.276
477.29	3.242
477.49	3.235
477.69	3.245
477.89	3.225
478.09	3.276
478.30	3.352
478.50	3.351
478.70	3.379
478.90	3.296
479.10	3.278
479.31	3.298
479.51	3.371
479.71	3.340
479.91	3.295
480.11	3.282
480.31	3.247
480.52	3.233
480.72	3.253
480.92	3.218
481.12	3.268
481.32	3.243
481.52	3.245
481.72	3.231
481.93	3.254
482.13	3.292
482.33	3.284
482.53	3.298
482.73	3.255
482.93	3.263
483.14	3.278
483.34	3.214
483.54	3.229
483.74	3.204
483.94	3.186
484.14	3.209
484.34	3.191
484.55	3.202
484.75	3.208
484.95	3.207
485.15	3.220
485.35	3.234
485.55	3.315
485.75	3.303
485.96	3.329
486.16	3.344
486.36	3.341
486.56	3.391
486.76	3.394
486.96	3.370
487.16	3.391
487.36	3.367
487.57	3.351
487.77	3.330
487.97	3.349
488.17	3.379
488.37	3.356
488.57	3.337
488.77	3.285
488.97	3.271
489.18	3.226
489.38	3.220
489.58	3.220
489.78	3.199
489.98	3.209
490.18	3.198
490.38	3.173
490.58	3.184
490.78	3.164
490.98	3.145
491.19	3.159
491.39	3.183
491.59	3.192
491.79	3.173
491.99	3.226
492.19	3.236
492.39	3.247
492.59	3.234
492.79	3.236
492.99	3.254
493.20	3.303
493.40	3.267
493.60	3.288
493.80	3.301
494.00	3.277
494.20	3.258
494.40	3.218
494.60	3.207
494.80	3.206
495.00	3.207
495.20	3.213
495.40	3.206
495.61	3.194
495.81	3.186
496.01	3.170
496.21	3.191
496.41	3.182
496.61	3.213
496.81	3.213
497.01	3.218
497.21	3.220
497.41	3.210
497.61	3.221
497.81	3.239
498.01	3.228
498.21	3.224
498.41	3.208
498.61	3.226
498.82	3.229
499.02	3.235
499.22	3.227
499.42	3.216
499.62	3.222
499.82	3.173
500.02	3.191
500.22	3.211
500.42	3.201
500.62	3.210
500.82	3.181
501.02	3.147
501.22	3.137
501.42	3.140
501.62	3.133
501.82	3.146
502.02	3.167
502.22	3.203
502.42	3.193
502.62	3.212
502.82	3.224
503.02	3.214
503.22	3.225
503.42	3.212
503.63	3.227
503.83	3.254
504.03	3.242
504.23	3.238
504.43	3.208
504.63	3.186
504.83	3.197
505.03	3.184
505.23	3.226
505.43	3.211
505.63	3.245
505.83	3.232
506.03	3.216
506.23	3.208
506.43	3.214
506.63	3.191
506.83	3.237
507.03	3.234
507.23	3.271
507.43	3.246
507.63	3.270
507.83	3.274
508.03	3.276
508.23	3.287
508.43	3.284
508.63	3.324
508.83	3.365
509.03	3.309
509.23	3.278
509.43	3.261
509.63	3.247
509.83	3.221
510.03	3.214
510.23	3.199
510.43	3.201
510.63	3.179
510.83	3.156
511.03	3.139
511.23	3.150
511.43	3.164
511.63	3.156
511.83	3.186
512.03	3.199
512.22	3.178
512.42	3.207
512.62	3.197
512.82	3.225
513.02	3.250
513.22	3.242
513.42	3.256
513.62	3.271
513.82	3.263
514.02	3.227
514.22	3.216
514.42	3.234
514.62	3.234
514.82	3.224
515.02	3.237
515.22	3.209
515.42	3.239
515.62	3.222
515.82	3.212
516.02	3.218
516.22	3.256
516.42	3.279
516.62	3.245
516.82	3.272
517.01	3.280
517.21	3.262
517.41	3.251
517.61	3.256
517.81	3.279
518.01	3.301
518.21	3.282
518.41	3.295
518.61	3.302
518.81	3.298
519.01	3.281
519.21	3.275
519.41	3.275
519.61	3.292
519.81	3.220
520.00	3.255
520.20	3.218
520.40	3.225
520.60	3.188
520.80	3.162
521.00	3.183
521.20	3.153
521.40	3.163
521.60	3.130
521.80	3.171
522.00	3.192
522.20	3.172
522.39	3.152
522.59	3.171
522.79	3.186
522.99	3.192
523.19	3.189
523.39	3.204
523.59	3.208
523.79	3.217
523.99	3.176
524.19	3.192
524.38	3.188
524.58	3.223
524.78	3.209
524.98	3.193
525.18	3.196
525.38	3.236
525.58	3.217
525.78	3.212
525.98	3.228
526.18	3.190
526.37	3.203
526.57	3.191
526.77	3.196
526.97	3.187
527.17	3.182
527.37	3.174
527.57	3.146
527.77	3.123
527.96	3.135
528.16	3.156
528.36	3.172
528.56	3.158
528.76	3.161
528.96	3.151
529.16	3.138
529.36	3.149
529.55	3.150
529.75	3.137
529.95	3.189
530.15	3.168
530.35	3.173
530.55	3.163
530.75	3.160
530.94	3.139
531.14	3.122
531.34	3.146
531.54	3.128
531.74	3.157
531.94	3.173
532.13	3.168
532.33	3.182
532.53	3.137
532.73	3.112
532.93	3.110
533.13	3.089
533.33	3.093
533.52	3.104
533.72	3.078
533.92	3.073
534.12	3.070
534.32	3.064
534.52	3.055
534.71	3.057
534.91	3.112
535.11	3.088
535.31	3.102
535.51	3.101
535.71	3.062
535.90	3.069
536.10	3.056
536.30	3.040
536.50	3.046
536.70	3.045
536.89	3.070
537.09	3.052
537.29	3.068
537.49	3.086
537.69	3.089
537.89	3.108
538.08	3.147
538.28	3.158
538.48	3.180
538.68	3.170
538.88	3.157
539.07	3.168
539.27	3.145
539.47	3.148
539.67	3.163
539.87	3.166
540.06	3.203
540.26	3.208
540.46	3.183
540.66	3.154
540.86	3.156
541.05	3.132
541.25	3.112
541.45	3.140
541.65	3.136
541.84	3.107
542.04	3.126
542.24	3.103
542.44	3.105
542.64	3.100
542.83	3.136
543.03	3.148
543.23	3.183
543.43	3.180
543.62	3.147
543.82	3.138
544.02	3.138
544.22	3.111
544.42	3.125
544.61	3.126
544.81	3.137
545.01	3.147
545.21	3.137
545.40	3.128
545.60	3.116
545.80	3.117
546.00	3.143
546.19	3.140
546.39	3.146
546.59	3.120
546.79	3.070
546.98	3.073
547.18	3.062
547.38	3.076
547.58	3.093
547.77	3.135
547.97	3.193
548.17	3.182
548.37	3.216
548.56	3.201
548.76	3.204
548.96	3.266
549.16	3.300
549.35	3.308
549.55	3.266
549.75	3.286
549.95	3.254
550.14	3.240
550.34	3.235
550.54	3.200
550.73	3.202
550.93	3.186
551.13	3.197
551.33	3.171
551.52	3.156
551.72	3.141
551.92	3.106
552.12	3.106
552.31	3.101
552.51	3.108
552.71	3.132
552.90	3.147
553.10	3.195
553.30	3.204
553.50	3.184
553.69	3.214
553.89	3.226
554.09	3.251
554.28	3.240
554.48	3.242
554.68	3.221
554.87	3.179
555.07	3.199
555.27	3.176
555.47	3.152
555.66	3.170
555.86	3.155
556.06	3.150
556.25	3.121
556.45	3.122
556.65	3.097
556.84	3.121
557.04	3.117
557.24	3.084
557.43	3.097
557.63	3.097
557.83	3.116
558.02	3.113
558.22	3.111
558.42	3.111
558.61	3.096
558.81	3.092
559.01	3.054
559.21	3.075
559.40	3.080
559.60	3.049
559.80	3.055
559.99	3.049
560.19	3.042
560.39	3.064
560.58	3.106
560.78	3.120
560.97	3.126
561.17	3.176
561.37	3.201
561.56	3.210
561.76	3.215
561.96	3.206
562.15	3.200
562.35	3.199
562.55	3.216
562.74	3.198
562.94	3.221
563.14	3.255
563.33	3.219
563.53	3.202
563.73	3.203
563.92	3.225
564.12	3.219
564.31	3.224
564.51	3.225
564.71	3.187
564.90	3.192
565.10	3.163
565.30	3.134
565.49	3.164
565.69	3.150
565.89	3.153
566.08	3.180
566.28	3.196
566.47	3.176
566.67	3.176
566.87	3.202
567.06	3.182
567.26	3.219
567.46	3.229
567.65	3.216
567.85	3.207
568.04	3.218
568.24	3.186
568.44	3.172
568.63	3.188
568.83	3.190
569.02	3.201
569.22	3.218
569.42	3.226
569.61	3.205
569.81	3.184
570.00	3.187
570.20	3.183
570.40	3.163
570.59	3.182
570.79	3.184
570.98	3.186
571.18	3.157
571.38	3.165
571.57	3.177
571.77	3.187
571.96	3.179
572.16	3.228
572.35	3.212
572.55	3.222
572.75	3.212
572.94	3.215
573.14	3.218
573.33	3.220
573.53	3.203
573.73	3.163
573.92	3.154
574.12	3.181
574.31	3.144
574.51	3.157
574.70	3.162
574.90	3.157
575.09	3.139
575.29	3.119
575.49	3.128
575.68	3.129
575.88	3.154
576.07	3.178
576.27	3.188
576.46	3.195
576.66	3.198
576.86	3.202
577.05	3.225
577.25	3.249
577.44	3.280
577.64	3.283
577.83	3.306
578.03	3.283
578.22	3.255
578.42	3.223
578.61	3.215
578.81	3.204
579.00	3.203
579.20	3.174
579.40	3.163
579.59	3.157
579.79	3.146
579.98	3.129
580.18	3.118
580.37	3.125
580.57	3.140
580.76	3.166
580.96	3.183
581.15	3.175
581.35	3.189
581.54	3.168
581.74	3.157
581.93	3.181
582.13	3.169
582.32	3.157
582.52	3.156
582.71	3.138
582.91	3.120
583.10	3.102
583.30	3.114
583.49	3.089
583.69	3.119
583.88	3.126
584.08	3.110
584.27	3.124
584.47	3.147
584.66	3.155
584.86	3.158
585.05	3.163
585.25	3.160
585.44	3.166
585.64	3.180
585.83	3.172
586.03	3.174
586.22	3.198
586.42	3.196
586.61	3.195
586.81	3.163
587.00	3.184
587.20	3.188
587.39	3.196
587.59	3.206
587.78	3.204
587.98	3.207
588.17	3.207
588.37	3.174
588.56	3.146
588.76	3.122
588.95	3.133
589.15	3.108
589.34	3.087
589.54	3.093
589.73	3.060
589.92	3.067
590.12	3.060
590.31	3.074
590.51	3.071
590.70	3.089
590.90	3.101
591.09	3.108
591.29	3.100
591.48	3.120
591.68	3.119
591.87	3.118
592.06	3.125
592.26	3.126
592.45	3.089
592.65	3.097
592.84	3.110
593.04	3.141
593.23	3.141
593.43	3.174
593.62	3.155
593.81	3.141
594.01	3.145
594.20	3.143
594.40	3.139
594.59	3.165
594.79	3.172
594.98	3.177
595.17	3.148
595.37	3.155
595.56	3.150
595.76	3.145
595.95	3.175
596.14	3.193
596.34	3.213
596.53	3.224
596.73	3.197
596.92	3.177
597.12	3.177
597.31	3.174
597.50	3.172
597.70	3.163
597.89	3.178
598.09	3.155
598.28	3.139
598.47	3.134
598.67	3.123
598.86	3.148
599.06	3.170
599.25	3.158
599.44	3.184
599.64	3.174
599.83	3.185
600.03	3.169
600.22	3.191
600.41	3.209
600.61	3.213
600.80	3.220
601.00	3.209
601.19	3.202
601.38	3.202
601.58	3.171
601.77	3.180
601.96	3.185
602.16	3.221
602.35	3.215
602.55	3.223
602.74	3.213
602.93	3.211
603.13	3.217
603.32	3.202
603.51	3.188
603.71	3.203
603.90	3.213
604.09	3.209
604.29	3.195
604.48	3.204
604.68	3.180
604.87	3.174
605.06	3.185
605.26	3.191
605.45	3.193
605.64	3.199
605.84	3.159
606.03	3.173
606.22	3.157
606.42	3.165
606.61	3.154
606.80	3.165
607.00	3.141
607.19	3.147
607.38	3.157
607.58	3.160
607.77	3.143
607.96	3.158
608.16	3.156
608.35	3.161
608.54	3.164
608.74	3.172
608.93	3.165
609.12	3.174
609.32	3.160
609.51	3.121
609.70	3.120
609.90	3.140
610.09	3.135
610.28	3.130
610.48	3.144
610.67	3.123
610.86	3.108
611.06	3.148
611.25	3.153
611.44	3.159
611.64	3.203
611.83	3.221
612.02	3.240
612.21	3.279
612.41	3.278
612.60	3.241
612.79	3.217
612.99	3.203
613.18	3.163
613.37	3.176
613.57	3.141
613.76	3.104
613.95	3.108
614.14	3.113
614.34	3.100
614.53	3.099
614.72	3.129
614.92	3.159
615.11	3.191
615.30	3.161
615.49	3.172
615.69	3.213
615.88	3.265
616.07	3.231
616.26	3.222
616.46	3.241
616.65	3.213
616.84	3.198
617.04	3.192
617.23	3.174
617.42	3.245
617.61	3.236
617.81	3.261
618.00	3.217
618.19	3.218
618.38	3.210
618.58	3.222
618.77	3.283
618.96	3.307
619.15	3.298
619.35	3.313
619.54	3.247
619.73	3.191
619.92	3.156
620.12	3.193
620.31	3.172
620.50	3.190
620.69	3.142
620.89	3.105
621.08	3.076
621.27	3.057
621.46	3.034
621.66	3.044
621.85	3.092
622.04	3.107
622.23	3.098
622.43	3.133
622.62	3.094
622.81	3.136
623.00	3.175
623.19	3.206
623.39	3.232
623.58	3.258
623.77	3.255
623.96	3.238
624.16	3.214
624.35	3.191
624.54	3.218
624.73	3.239
624.92	3.233
625.12	3.177
625.31	3.167
625.50	3.166
625.69	3.192
625.88	3.203
626.08	3.198
626.27	3.192
626.46	3.200
626.65	3.171
626.84	3.165
627.04	3.163
627.23	3.213
627.42	3.189
627.61	3.199
627.80	3.194
628.00	3.216
628.19	3.230
628.38	3.274
628.57	3.303
628.76	3.326
628.96	3.385
629.15	3.378
629.34	3.295
629.53	3.267
629.72	3.233
629.91	3.201
630.11	3.172
630.30	3.154
630.49	3.144
630.68	3.119
630.87	3.118
631.06	3.070
631.26	3.044
631.45	3.060
631.64	3.098
631.83	3.113
632.02	3.141
632.21	3.140
632.41	3.120
632.60	3.072
632.79	3.107
632.98	3.097
633.17	3.126
633.36	3.158
633.55	3.167
633.75	3.212
633.94	3.202
634.13	3.183
634.32	3.175
634.51	3.172
634.70	3.256
634.89	3.177
635.09	3.170
635.28	3.185
635.47	3.203
635.66	3.170
635.85	3.114
636.04	3.143
636.23	3.138
636.43	3.165
636.62	3.221
636.81	3.204
637.00	3.226
637.19	3.223
637.38	3.220
637.57	3.192
637.76	3.234
637.95	3.225
638.15	3.185
638.34	3.178
638.53	3.214
638.72	3.164
638.91	3.195
639.10	3.218
639.29	3.252
639.48	3.276
639.67	3.277
639.87	3.255
640.06	3.239
640.25	3.313
640.44	3.379
640.63	3.302
640.82	3.325
641.01	3.270
641.20	3.241
641.39	3.212
641.58	3.177
641.78	3.216
641.97	3.238
642.16	3.288
642.35	3.257
642.54	3.219
642.73	3.206
642.92	3.249
643.11	3.208
643.30	3.219
643.49	3.219
643.68	3.216
643.87	3.148
644.06	3.122
644.25	3.080
644.45	3.084
644.64	3.088
644.83	3.127
645.02	3.099
645.21	3.110
645.40	3.152
645.59	3.151
645.78	3.148
645.97	3.208
646.16	3.256
646.35	3.289
646.54	3.265
646.73	3.237
646.92	3.179
647.11	3.162
647.30	3.198
647.49	3.173
647.68	3.167
647.88	3.153
648.07	3.179
648.26	3.151
648.45	3.168
648.64	3.169
648.83	3.150
649.02	3.211
649.21	3.198
649.40	3.203
649.59	3.239
649.78	3.289
649.97	3.370
650.16	3.264
650.35	3.245
650.54	3.242
650.73	3.206
650.92	3.230
651.11	3.201
651.30	3.205
651.49	3.179
651.68	3.156
651.87	3.133
652.06	3.095
652.25	3.146
652.44	3.198
652.63	3.204
652.82	3.214
653.01	3.178
653.20	3.181
653.39	3.225
653.58	3.196
653.77	3.209
653.96	3.200
654.15	3.209
654.34	3.196
654.53	3.168
654.72	3.156
654.91	3.179
655.10	3.202
655.29	3.165
655.48	3.145
655.67	3.166
655.86	3.164
656.05	3.175
656.24	3.153
656.43	3.132
656.62	3.134
656.81	3.118
657.00	3.102
657.19	3.075
657.38	3.076
657.57	3.076
657.76	3.064
657.95	3.037
658.14	3.022
658.33	3.037
658.51	3.065
658.70	3.063
658.89	3.064
659.08	3.079
659.27	3.095
659.46	3.102
659.65	3.118
659.84	3.132
660.03	3.174
660.22	3.158
660.41	3.135
660.60	3.074
660.79	3.066
660.98	3.092
661.17	3.089
661.36	3.148
661.55	3.145
661.74	3.106
661.92	3.096
662.11	3.059
662.30	3.057
662.49	3.053
662.68	3.108
662.87	3.122
663.06	3.127
663.25	3.116
663.44	3.101
663.63	3.112
663.82	3.172
664.01	3.187
664.20	3.216
664.38	3.288
664.57	3.310
664.76	3.350
664.95	3.322
665.14	3.287
665.33	3.306
665.52	3.372
665.71	3.444
665.90	3.460
666.09	3.436
666.28	3.470
666.46	3.393
666.65	3.418
666.84	3.316
667.03	3.368
667.22	3.450
667.41	3.351
667.60	3.298
667.79	3.205
667.98	3.163
668.16	3.194
668.35	3.212
668.54	3.252
668.73	3.207
668.92	3.260
669.11	3.239
669.30	3.219
669.49	3.260
669.67	3.188
669.86	3.225
670.05	3.277
670.24	3.207
670.43	3.168
670.62	3.088
670.81	3.112
671.00	3.103
671.18	3.091
671.37	3.090
671.56	3.144
671.75	3.136
671.94	3.177
672.13	3.125
672.32	3.117
672.50	3.115
672.69	3.184
672.88	3.209
673.07	3.185
673.26	3.173
673.45	3.142
673.63	3.123
673.82	3.165
674.01	3.157
674.20	3.174
674.39	3.235
674.58	3.237
674.76	3.217
674.95	3.210
675.14	3.219
675.33	3.197
675.52	3.220
675.71	3.191
675.89	3.226
676.08	3.202
676.27	3.187
676.46	3.224
676.65	3.230
676.84	3.235
677.02	3.261
677.21	3.227
677.40	3.307
677.59	3.380
677.78	3.447
677.96	3.365
678.15	3.337
678.34	3.339
678.53	3.287
678.72	3.289
678.90	3.283
679.09	3.241
679.28	3.255
679.47	3.211
679.66	3.129
679.84	3.095
680.03	3.113
680.22	3.165
680.41	3.182
680.60	3.167
680.78	3.170
680.97	3.167
681.16	3.187
681.35	3.201
681.53	3.233
681.72	3.280
681.91	3.275
682.10	3.293
682.29	3.194
682.47	3.174
682.66	3.230
682.85	3.224
683.04	3.252
683.22	3.235
683.41	3.243
683.60	3.203
683.79	3.159
683.97	3.150
684.16	3.169
684.35	3.240
684.54	3.226
684.72	3.193
684.91	3.167
685.10	3.123
685.29	3.146
685.47	3.150
685.66	3.182
685.85	3.230
686.04	3.220
686.22	3.212
686.41	3.174
686.60	3.231
686.79	3.193
686.97	3.224
687.16	3.275
687.35	3.274
687.54	3.252
687.72	3.216
687.91	3.215
688.10	3.264
688.29	3.240
688.47	3.253
688.66	3.217
688.85	3.247
689.03	3.192
689.22	3.146
689.41	3.154
689.60	3.155
689.78	3.183
689.97	3.126
690.16	3.114
690.34	3.109
690.53	3.123
690.72	3.136
690.91	3.114
691.09	3.158
691.28	3.217
691.47	3.168
691.65	3.180
691.84	3.168
692.03	3.192
692.21	3.191
692.40	3.154
692.59	3.132
692.77	3.100
692.96	3.119
693.15	3.114
693.34	3.072
693.52	3.078
693.71	3.056
693.90	3.066
694.08	3.129
694.27	3.110
694.46	3.131
694.64	3.161
694.83	3.239
695.02	3.231
695.20	3.195
695.39	3.234
695.58	3.253
695.76	3.305
695.95	3.288
696.14	3.229
696.32	3.196
696.51	3.231
696.70	3.264
696.88	3.225
697.07	3.224
697.26	3.258
697.44	3.330
697.63	3.290
697.81	3.243
698.00	3.226
698.19	3.202
698.37	3.274
698.56	3.314
698.75	3.175
698.93	3.159
699.12	3.188
699.31	3.275
699.49	3.192
699.68	3.236
699.87	3.265
700.05	3.201
700.24	3.208
700.42	3.198
700.61	3.187
700.80	3.251
700.98	3.295
701.17	3.276
701.36	3.172
701.54	3.203
701.73	3.137
701.91	3.137
702.10	3.164
702.29	3.237
702.47	3.213
702.66	3.149
702.84	3.163
703.03	3.074
703.22	3.041
703.40	3.059
703.59	3.046
703.77	3.071
703.96	3.054
704.15	3.081
704.33	3.021
704.52	2.996
704.70	3.041
704.89	3.033
705.08	3.066
705.26	3.111
705.45	3.044
705.63	3.055
705.82	3.044
706.00	3.043
706.19	3.038
706.38	3.073
706.56	3.171
706.75	3.183
706.93	3.208
707.12	3.198
707.30	3.151
707.49	3.234
707.68	3.190
707.86	3.237
708.05	3.222
708.23	3.283
708.42	3.181
708.60	3.107
708.79	3.055
708.98	3.026
709.16	3.007
709.35	3.011
709.53	3.018
709.72	3.019
709.90	2.972
710.09	2.959
710.27	2.952
710.46	3.000
710.64	2.981
710.83	2.966
711.02	2.961
711.20	2.966
711.39	2.980
711.57	2.927
711.76	2.916
711.94	2.961
712.13	2.977
712.31	2.924
712.50	2.899
712.68	2.932
712.87	2.935
713.05	2.915
713.24	2.901
713.42	2.866
713.61	2.911
713.79	2.893
713.98	2.875
714.16	2.868
714.35	2.907
714.54	2.967
714.72	2.939
714.91	2.953
715.09	2.983
715.28	3.065
715.46	3.105
715.65	3.084
715.83	3.138
716.02	3.111
716.20	3.115
716.39	3.080
716.57	3.019
716.76	3.046
716.94	3.024
717.12	3.044
717.31	3.063
717.49	3.019
717.68	3.010
717.86	3.004
718.05	2.965
718.23	2.942
718.42	2.926
718.60	2.975
718.79	2.937
718.97	2.962
719.16	2.925
719.34	2.869
719.53	2.906
719.71	2.914
719.90	2.849
720.08	2.860
720.27	2.892
720.45	2.869
720.63	2.846
720.82	2.883
721.00	2.829
721.19	2.869
721.37	2.871
721.56	2.824
721.74	2.808
721.93	2.824
722.11	2.898
722.30	2.872
722.48	2.917
722.66	2.862
722.85	2.830
723.03	2.836
723.22	2.806
723.40	2.819
723.59	2.792
723.77	2.807
723.95	2.805
724.14	2.762
724.32	2.769
724.51	2.802
724.69	2.828
724.88	2.815
725.06	2.795
725.24	2.801
725.43	2.771
725.61	2.783
725.80	2.737
725.98	2.776
726.16	2.769
726.35	2.777
726.53	2.714
726.72	2.714
726.90	2.719
727.09	2.756
727.27	2.720
727.45	2.702
727.64	2.713
727.82	2.788
728.01	2.778
728.19	2.737
728.37	2.692
728.56	2.698
728.74	2.684
728.92	2.676
729.11	2.699
729.29	2.693
729.48	2.708
729.66	2.717
729.84	2.652
730.03	2.661
730.21	2.644
730.40	2.693
730.58	2.652
730.76	2.616
730.95	2.587
731.13	2.566
731.31	2.542
731.50	2.496
731.68	2.475
731.86	2.486
732.05	2.445
732.23	2.489
732.42	2.481
732.60	2.489
732.78	2.467
732.97	2.455
733.15	2.432
733.33	2.465
733.52	2.482
733.70	2.460
733.88	2.382
734.07	2.402
734.25	2.353
734.43	2.302
734.62	2.295
734.80	2.329
734.98	2.319
735.17	2.320
735.35	2.315
735.53	2.272
735.72	2.277
735.90	2.335
736.08	2.305
736.27	2.317
736.45	2.390
736.63	2.431
736.82	2.389
737.00	2.431
737.18	2.418
737.37	2.398
737.55	2.408
737.73	2.439
737.92	2.431
738.10	2.419
738.28	2.473
738.46	2.440
738.65	2.371
738.83	2.399
739.01	2.347
739.20	2.308
739.38	2.325
739.56	2.359
739.75	2.375
739.93	2.344
740.11	2.387
740.29	2.330
740.48	2.269
740.66	2.367
740.84	2.284
741.03	2.329
741.21	2.353
741.39	2.314
741.57	2.279
741.76	2.242
741.94	2.184
742.12	2.202
742.31	2.163
742.49	2.185
742.67	2.140
742.85	2.172
743.04	2.158
743.22	2.164
743.40	2.200
743.58	2.224
743.77	2.244
743.95	2.287
744.13	2.208
744.31	2.237
744.50	2.211
744.68	2.171
744.86	2.215
745.04	2.234
745.23	2.245
745.41	2.205
745.59	2.166
745.77	2.148
745.96	2.161
746.14	2.223
746.32	2.217
746.50	2.271
746.69	2.298
746.87	2.253
747.05	2.222
747.23	2.181
747.42	2.211
747.60	2.205
747.78	2.235
747.96	2.241
748.14	2.273
748.33	2.324
748.51	2.309
748.69	2.291
748.87	2.302
749.06	2.363
749.24	2.349
749.42	2.330
749.60	2.376
749.78	2.361
749.97	2.348
750.15	2.233
750.33	2.207
750.51	2.163
750.69	2.222
750.88	2.251
751.06	2.216
751.24	2.237
751.42	2.211
751.60	2.264
751.79	2.279
751.97	2.290
752.15	2.293
752.33	2.233
752.51	2.266
752.69	2.285
752.88	2.251
753.06	2.257
753.24	2.239
753.42	2.250
753.60	2.243
753.78	2.170
753.97	2.121
754.15	2.132
754.33	2.185
754.51	2.169
754.69	2.143
754.87	2.144
755.06	2.101
755.24	2.118
755.42	2.116
755.60	2.126
755.78	2.175
755.96	2.292
756.15	2.311
756.33	2.240
756.51	2.251
756.69	2.232
756.87	2.228
757.05	2.275
757.23	2.261
757.42	2.321
757.60	2.233
757.78	2.246
757.96	2.226
758.14	2.210
758.32	2.284
758.50	2.288
758.69	2.238
758.87	2.214
759.05	2.250
759.23	2.280
759.41	2.217
759.59	2.300
759.77	2.255
759.95	2.189
760.13	2.207
760.32	2.199
760.50	2.186
760.68	2.239
760.86	2.290
761.04	2.270
761.22	2.304
761.40	2.364
761.58	2.274
761.76	2.314
761.95	2.392
762.13	2.448
762.31	2.402
762.49	2.495
762.67	2.390
762.85	2.397
763.03	2.376
763.21	2.278
763.39	2.240
763.57	2.311
763.75	2.304
763.94	2.304
764.12	2.288
764.30	2.282
764.48	2.253
764.66	2.312
764.84	2.241
765.02	2.251
765.20	2.279
765.38	2.268
765.56	2.242
765.74	2.222
765.92	2.225
766.10	2.205
766.28	2.221
766.46	2.190
766.65	2.181
766.83	2.212
767.01	2.148
767.19	2.196
767.37	2.203
767.55	2.135
767.73	2.184
767.91	2.164
768.09	2.110
768.27	2.095
768.45	2.101
768.63	2.090
768.81	2.076
768.99	2.163
769.17	2.131
769.35	2.162
769.53	2.266
769.71	2.253
769.89	2.247
770.07	2.297
770.25	2.353
770.43	2.406
770.61	2.446
770.79	2.483
770.97	2.345
771.15	2.322
771.33	2.275
771.51	2.261
771.69	2.231
771.87	2.233
772.05	2.228
772.24	2.206
772.42	2.205
772.60	2.170
772.78	2.136
772.96	2.148
773.14	2.232
773.32	2.265
773.49	2.266
773.67	2.291
773.85	2.265
774.03	2.268
774.21	2.268
774.39	2.236
774.57	2.290
774.75	2.331
774.93	2.382
775.11	2.305
775.29	2.266
775.47	2.289
775.65	2.235
775.83	2.256
776.01	2.281
776.19	2.262
776.37	2.275
776.55	2.221
776.73	2.235
776.91	2.220
777.09	2.239
777.27	2.272
777.45	2.322
777.63	2.393
777.81	2.397
777.99	2.392
778.17	2.407
778.35	2.505
778.53	2.548
778.71	2.587
778.89	2.621
779.07	2.499
779.24	2.557
779.42	2.400
779.60	2.364
779.78	2.343
779.96	2.336
780.14	2.353
780.32	2.248
780.50	2.273
780.68	2.248
780.86	2.219
781.04	2.215
781.22	2.191
781.40	2.209
781.58	2.210
781.75	2.228
781.93	2.264
782.11	2.251
782.29	2.283
782.47	2.259
782.65	2.284
782.83	2.291
783.01	2.364
783.19	2.355
783.37	2.348
783.55	2.363
783.72	2.346
783.90	2.344
784.08	2.338
784.26	2.396
784.44	2.404
784.62	2.405
784.80	2.491
784.98	2.545
785.16	2.607
785.33	2.603
785.51	2.617
785.69	2.673
785.87	2.693
786.05	2.665
786.23	2.627
786.41	2.633
786.59	2.572
786.77	2.591
786.94	2.482
787.12	2.419
787.30	2.386
787.48	2.380
787.66	2.397
787.84	2.346
788.02	2.424
788.19	2.452
788.37	2.494
788.55	2.549
788.73	2.457
788.91	2.490
789.09	2.536
789.27	2.651
789.44	2.586
789.62	2.610
789.80	2.670
789.98	2.600
790.16	2.567
790.34	2.546
790.51	2.456
790.69	2.505
790.87	2.456
791.05	2.453
791.23	2.449
791.41	2.516
791.58	2.526
791.76	2.521
791.94	2.511
792.12	2.477
792.30	2.491
792.48	2.549
792.65	2.477
792.83	2.486
793.01	2.477
793.19	2.462
793.37	2.426
793.54	2.339
793.72	2.351
793.90	2.345
794.08	2.350
794.26	2.330
794.43	2.325
794.61	2.357
794.79	2.360
794.97	2.369
795.15	2.394
795.32	2.428
795.50	2.534
795.68	2.468
795.86	2.498
796.04	2.517
796.21	2.491
796.39	2.481
796.57	2.453
796.75	2.467
796.92	2.443
797.10	2.414
797.28	2.395
797.46	2.349
797.64	2.419
797.81	2.382
797.99	2.356
798.17	2.391
798.35	2.388
798.52	2.433
798.70	2.491
798.88	2.569
799.06	2.580
799.23	2.633
799.41	2.780
799.59	2.757
799.77	2.837
799.94	2.833
800.12	2.808
800.30	2.839
800.48	2.706
800.65	2.592
800.83	2.575
801.01	2.651
801.19	2.635
801.36	2.560
801.54	2.519
801.72	2.603
801.90	2.565
802.07	2.648
802.25	2.707
802.43	2.648
802.60	2.736
802.78	2.645
802.96	2.581
803.14	2.569
803.31	2.637
803.49	2.677
803.67	2.583
803.84	2.618
804.02	2.553
804.20	2.551
804.38	2.655
804.55	2.632
804.73	2.717
804.91	2.745
805.08	2.719
805.26	2.677
805.44	2.767
805.61	2.862
805.79	2.894
805.97	2.994
806.15	2.880
806.32	2.861
806.50	2.860
806.68	2.841
806.85	2.877
807.03	2.985
807.21	2.937
807.38	2.783
807.56	2.743
807.74	2.778
807.91	2.723
808.09	2.831
808.27	2.899
808.44	2.853
808.62	2.796
808.80	2.739
808.97	2.658
809.15	2.638
809.33	2.617
809.50	2.589
809.68	2.717
809.86	2.706
810.03	2.596
810.21	2.556
810.39	2.563
810.56	2.602
810.74	2.601
810.91	2.607
811.09	2.692
811.27	2.758
811.44	2.765
811.62	2.640
811.80	2.607
811.97	2.629
812.15	2.647
812.33	2.674
812.50	2.602
812.68	2.567
812.85	2.535
813.03	2.456
813.21	2.450
813.38	2.490
813.56	2.437
813.74	2.523
813.91	2.588
814.09	2.663
814.26	2.742
814.44	2.775
814.62	2.781
814.79	2.902
814.97	2.992
815.14	2.937
815.32	2.833
815.50	2.897
815.67	2.785
815.85	2.800
816.02	2.737
816.20	2.653
816.38	2.596
816.55	2.675
816.73	2.604
816.90	2.553
817.08	2.560
817.26	2.553
817.43	2.532
817.61	2.582
817.78	2.560
817.96	2.499
818.13	2.472
818.31	2.547
818.49	2.489
818.66	2.507
818.84	2.573
819.01	2.509
819.19	2.525
819.36	2.544
819.54	2.499
819.71	2.507
819.89	2.612
820.07	2.740
820.24	2.772
820.42	2.878
820.59	2.834
820.77	2.606
820.94	2.679
821.12	2.767
821.29	2.778
821.47	2.688
821.64	2.661
821.82	2.561
822.00	2.463
822.17	2.403
822.35	2.339
822.52	2.365
822.70	2.469
822.87	2.481
823.05	2.309
823.22	2.285
823.40	2.331
823.57	2.339
823.75	2.307
823.92	2.263
824.10	2.293
824.27	2.296
824.45	2.250
824.62	2.214
824.80	2.177
824.97	2.259
825.15	2.282
825.32	2.243
825.50	2.179
825.67	2.177
825.85	2.143
826.02	2.151
826.20	2.171
826.37	2.191
826.55	2.175
826.72	2.128
826.90	2.139
827.07	2.077
827.25	2.095
827.42	2.123
827.60	2.139
827.77	2.283
827.95	2.229
828.12	2.187
828.30	2.239
828.47	2.341
828.65	2.473
828.82	2.433
829.00	2.555
829.17	2.412
829.34	2.372
829.52	2.323
829.69	2.327
829.87	2.342
830.04	2.340
830.22	2.269
830.39	2.142
830.57	2.071
830.74	2.020
830.92	1.970
831.09	2.044
831.26	2.004
831.44	2.048
831.61	1.903
831.79	1.845
831.96	1.839
832.14	1.796
832.31	1.837
832.49	1.849
832.66	1.928
832.83	2.020
833.01	1.894
833.18	1.835
833.36	1.804
833.53	1.871
833.70	1.892
833.88	1.868
834.05	1.818
834.23	1.763
834.40	1.740
834.58	1.714
834.75	1.696
834.92	1.735
835.10	1.807
835.27	1.799
835.45	1.721
835.62	1.716
835.79	1.685
835.97	1.706
836.14	1.737
836.32	1.753
836.49	1.711
836.66	1.706
836.84	1.660
837.01	1.708
837.18	1.703
837.36	1.788
837.53	1.795
837.71	1.870
837.88	1.868
838.05	1.770
838.23	1.726
838.40	1.694
838.58	1.665
838.75	1.704
838.92	1.640
839.10	1.641
839.27	1.615
839.44	1.611
839.62	1.622
839.79	1.722
839.96	1.829
840.14	1.968
840.31	1.943
840.48	2.026
840.66	2.032
840.83	2.005
841.01	2.096
841.18	2.132
841.35	2.127
841.53	2.224
841.70	2.065
841.87	2.009
842.05	1.854
842.22	1.953
842.39	1.973
842.57	1.984
842.74	2.028
842.91	1.964
843.09	2.082
843.26	2.378
843.43	2.108
843.60	2.144
843.78	2.411
843.95	2.666
844.12	-0.000
844.30	2.228
844.47	2.146
844.64	2.175
844.82	2.103
844.99	2.019
845.16	1.905
845.34	1.894
845.51	1.809
845.68	1.776
845.85	1.770
846.03	1.730
846.20	1.833
846.37	1.988
846.55	2.083
846.72	2.122
846.89	1.991
847.06	2.083
847.24	2.063
847.41	1.900
847.58	1.735
847.76	1.762
847.93	1.692
848.10	1.650
848.27	1.586
848.45	1.599
848.62	1.661
848.79	1.679
848.97	1.583
849.14	1.599
849.31	1.665
849.48	1.732
849.66	1.781
849.83	1.848
850.00	2.106
850.17	2.018
850.35	1.978
850.52	1.903
850.69	1.846
850.86	1.755
851.04	1.810
851.21	1.796
851.38	1.793
851.55	1.849
851.72	1.822
851.90	1.746
852.07	1.772
852.24	1.790
852.41	1.771
852.59	1.961
852.76	2.259
852.93	2.213
853.10	2.524
853.28	2.668
853.45	2.096
853.62	2.152
853.79	2.112
853.96	1.955
854.14	1.951
854.31	1.861
854.48	1.771
854.65	1.713
854.82	1.656
855.00	1.610
855.17	1.579
855.34	1.647
855.51	1.582
855.68	1.483
855.86	1.598
856.03	1.574
856.20	1.562
856.37	1.539
856.54	1.556
856.72	1.634
856.89	1.669
857.06	1.748
857.23	1.630
857.40	1.582
857.57	1.694
857.75	1.553
857.92	1.564
858.09	1.703
858.26	1.697
858.43	1.733
858.60	1.778
858.78	1.669
858.95	1.604
859.12	1.662
859.29	1.895
859.46	1.821
859.63	2.148
859.81	2.077
859.98	2.111
860.15	2.134
860.32	2.125
860.49	2.017
860.66	2.846
860.83	3.527
861.01	-0.000
861.18	-0.000
861.35	-0.000
861.52	-0.000
861.69	-0.000
861.86	2.094
862.03	2.020
862.21	2.005
862.38	1.971
862.55	1.759
862.72	1.667
862.89	1.542
863.06	1.511
863.23	1.522
863.40	1.588
863.58	1.616
863.75	1.631
863.92	1.659
864.09	1.662
864.26	1.665
864.43	1.728
864.60	1.924
864.77	1.922
864.94	2.106
865.11	2.094
865.29	2.100
865.46	2.146
865.63	2.480
865.80	-0.000
865.97	-0.000
866.14	2.790
866.31	2.964
866.48	2.350
866.65	-0.000
866.82	2.499
866.99	2.758
867.16	1.903
867.34	1.713
867.51	1.537
867.68	1.487
867.85	1.498
868.02	1.448
868.19	1.463
868.36	1.601
868.53	1.493
868.70	1.682
868.87	1.583
869.04	1.806
869.21	1.875
869.38	2.386
869.55	2.767
869.72	1.978
869.89	2.183
870.06	1.841
870.24	1.569
870.41	1.425
870.58	1.385
870.75	1.418
870.92	1.388
871.09	1.463
871.26	1.551
871.43	1.407
871.60	1.452
871.77	1.405
871.94	1.472
872.11	1.471
872.28	1.467
872.45	1.357
872.62	1.438
872.79	1.500
872.96	1.362
873.13	1.371
873.30	1.367
873.47	1.351
873.64	1.292
873.81	1.194
873.98	1.233
874.15	1.271
874.32	1.333
874.49	1.234
874.66	1.154
874.83	1.132
875.00	1.083
875.17	1.119
875.34	1.133
875.51	1.272
875.68	1.348
875.85	1.308
876.02	1.300
876.19	1.185
876.36	1.234
876.53	1.354
876.70	1.479
876.87	1.519
877.04	1.479
877.21	1.541
877.38	1.534
877.55	1.507
877.72	1.444
877.89	1.412
878.06	1.521
878.23	1.412
878.39	1.331
878.56	1.286
878.73	1.255
878.90	1.390
879.07	1.317
879.24	1.298
879.41	1.372
879.58	1.345
879.75	1.406
879.92	1.406
880.09	1.430
880.26	1.337
880.43	1.254
880.60	1.269
880.77	1.144
880.94	1.218
881.11	1.208
881.27	1.179
881.44	1.196
881.61	1.232
881.78	1.279
881.95	1.303
882.12	1.343
882.29	1.504
882.46	1.452
882.63	1.566
882.80	1.445
882.97	1.312
883.14	1.386
883.30	1.456
883.47	1.530
883.64	1.496
883.81	1.448
883.98	1.824
884.15	1.754
884.32	1.935
884.49	1.975
884.66	1.974
884.82	1.787
884.99	1.688
885.16	1.597
885.33	1.522
885.50	1.470
885.67	1.627
885.84	1.314
886.01	1.224
886.17	1.155
886.34	1.147
886.51	1.155
886.68	1.342
886.85	1.358
887.02	1.383
887.19	1.225
887.36	1.270
887.52	1.241
887.69	1.442
887.86	1.388
888.03	1.529
888.20	1.546
888.37	1.617
888.54	1.391
888.70	1.439
888.87	1.461
889.04	1.629
889.21	1.381
889.38	1.229
889.55	1.078
889.71	1.515
889.88	1.066
890.05	0.795
890.22	0.744
890.39	0.841
>>>>>End Processed Spectral Data<<<<<
