SpectraSuite Data File
++++++++++++++++++++++++++++++++++++
Date: Fri Jun 19 13:04:40 CEST 2015
User: introlabs
Dark Spectrum Present: Yes
Reference Spectrum Present: Yes
Number of Sampled Component Spectra: 1
Spectrometers: USB4H08886
Integration Time (usec): 745692 (USB4H08886)
Spectra Averaged: 5 (USB4H08886)
Boxcar Smoothing: 5 (USB4H08886)
Correct for Electrical Dark: Yes (USB4H08886)
Strobe/Lamp Enabled: No (USB4H08886)
Correct for Detector Non-linearity: Yes (USB4H08886)
Correct for Stray Light: Yes (USB4H08886)
Number of Pixels in Processed Spectrum: 3648
>>>>>Begin Processed Spectral Data<<<<<
178.14	-0.000
178.36	-0.000
178.57	-0.000
178.79	-0.000
179.01	-0.000
179.22	-0.000
179.44	-0.000
179.65	-0.000
179.87	-0.000
180.08	-0.000
180.30	-0.000
180.52	-0.000
180.73	-0.000
180.95	-0.000
181.16	-0.000
181.38	-0.000
181.59	-0.000
181.81	-0.000
182.03	-0.000
182.24	-0.000
182.46	-0.000
182.67	-0.000
182.89	-0.000
183.10	-0.000
183.32	-0.000
183.54	-0.000
183.75	-0.000
183.97	-0.000
184.18	-0.000
184.40	-0.000
184.61	-0.000
184.83	-0.000
185.04	-0.000
185.26	-0.000
185.48	-0.000
185.69	-0.000
185.91	-0.000
186.12	-0.000
186.34	-0.000
186.55	-0.000
186.77	-0.000
186.98	-0.000
187.20	-0.000
187.42	-0.000
187.63	-0.000
187.85	-0.000
188.06	-0.000
188.28	-0.000
188.49	-0.000
188.71	-0.000
188.92	-0.000
189.14	-0.000
189.36	-0.000
189.57	-0.000
189.79	-0.000
190.00	-0.000
190.22	-0.000
190.43	-0.000
190.65	-0.000
190.86	-0.000
191.08	-0.000
191.29	-0.000
191.51	-0.000
191.72	-0.000
191.94	-0.000
192.16	-0.000
192.37	-0.000
192.59	-0.000
192.80	-0.000
193.02	-0.000
193.23	-0.000
193.45	-0.000
193.66	-0.000
193.88	-0.000
194.09	-0.000
194.31	-0.000
194.52	-0.000
194.74	-0.000
194.95	-0.000
195.17	-0.000
195.38	-0.000
195.60	-0.000
195.81	-0.000
196.03	-0.000
196.25	-0.000
196.46	-0.000
196.68	-0.000
196.89	-0.000
197.11	-0.000
197.32	-0.000
197.54	-0.000
197.75	-0.000
197.97	-0.000
198.18	-0.000
198.40	-0.000
198.61	-0.000
198.83	-0.000
199.04	-0.000
199.26	-0.000
199.47	-0.000
199.69	-0.000
199.90	-0.000
200.12	-0.000
200.33	-0.000
200.55	-0.000
200.76	-0.000
200.98	-0.000
201.19	-0.000
201.41	-0.000
201.62	-0.000
201.84	-0.000
202.05	-0.000
202.27	-0.000
202.48	-0.000
202.70	-0.000
202.91	-0.000
203.13	-0.000
203.34	-0.000
203.56	-0.000
203.77	-0.000
203.99	-0.000
204.20	-0.000
204.42	-0.000
204.63	-0.000
204.85	-0.000
205.06	-0.000
205.28	-0.000
205.49	-0.000
205.71	-0.000
205.92	-0.000
206.14	-0.000
206.35	-0.000
206.56	-0.000
206.78	-0.000
206.99	-0.000
207.21	-0.000
207.42	-0.000
207.64	-0.000
207.85	-0.000
208.07	-0.000
208.28	-0.000
208.50	-0.000
208.71	-0.000
208.93	-0.000
209.14	-0.000
209.36	-0.000
209.57	-0.000
209.79	-0.000
210.00	-0.000
210.22	-0.000
210.43	-0.000
210.64	-0.000
210.86	-0.000
211.07	-0.000
211.29	-0.000
211.50	-0.000
211.72	-0.000
211.93	-0.000
212.15	-0.000
212.36	-0.000
212.58	-0.000
212.79	-0.000
213.01	-0.000
213.22	-0.000
213.43	-0.000
213.65	-0.000
213.86	-0.000
214.08	-0.000
214.29	-0.000
214.51	-0.000
214.72	-0.000
214.94	-0.000
215.15	-0.000
215.36	-0.000
215.58	-0.000
215.79	-0.000
216.01	-0.000
216.22	-0.000
216.44	-0.000
216.65	-0.000
216.87	-0.000
217.08	-0.000
217.29	-0.000
217.51	-0.000
217.72	-0.000
217.94	-0.000
218.15	-0.000
218.37	-0.000
218.58	-0.000
218.80	-0.000
219.01	-0.000
219.22	-0.000
219.44	-0.000
219.65	-0.000
219.87	-0.000
220.08	-0.000
220.30	-0.000
220.51	-0.000
220.72	-0.000
220.94	-0.000
221.15	-0.000
221.37	-0.000
221.58	-0.000
221.79	-0.000
222.01	-0.000
222.22	-0.000
222.44	-0.000
222.65	-0.000
222.87	-0.000
223.08	-0.000
223.29	-0.000
223.51	-0.000
223.72	-0.000
223.94	-0.000
224.15	-0.000
224.36	-0.000
224.58	-0.000
224.79	-0.000
225.01	-0.000
225.22	-0.000
225.44	-0.000
225.65	-0.000
225.86	-0.000
226.08	-0.000
226.29	-0.000
226.51	-0.000
226.72	-0.000
226.93	-0.000
227.15	-0.000
227.36	-0.000
227.58	-0.000
227.79	-0.000
228.00	-0.000
228.22	-0.000
228.43	-0.000
228.65	-0.000
228.86	-0.000
229.07	-0.000
229.29	-0.000
229.50	-0.000
229.72	-0.000
229.93	-0.000
230.14	-0.000
230.36	-0.000
230.57	-0.000
230.78	-0.000
231.00	-0.000
231.21	-0.000
231.43	-0.000
231.64	-0.000
231.85	-0.000
232.07	-0.000
232.28	-0.000
232.50	-0.000
232.71	-0.000
232.92	-0.000
233.14	-0.000
233.35	-0.000
233.56	-0.000
233.78	-0.000
233.99	-0.000
234.21	-0.000
234.42	-0.000
234.63	-0.000
234.85	-0.000
235.06	-0.000
235.27	-0.000
235.49	-0.000
235.70	-0.000
235.91	-0.000
236.13	-0.000
236.34	-0.000
236.56	-0.000
236.77	-0.000
236.98	-0.000
237.20	-0.000
237.41	-0.000
237.62	-0.000
237.84	-0.000
238.05	-0.000
238.26	-0.000
238.48	-0.000
238.69	-0.000
238.91	-0.000
239.12	-0.000
239.33	-0.000
239.55	-0.000
239.76	-0.000
239.97	-0.000
240.19	-0.000
240.40	-0.000
240.61	-0.000
240.83	-0.000
241.04	-0.000
241.25	-0.000
241.47	-0.000
241.68	-0.000
241.89	-0.000
242.11	-0.000
242.32	-0.000
242.53	-0.000
242.75	-0.000
242.96	-0.000
243.17	-0.000
243.39	-0.000
243.60	-0.000
243.81	-0.000
244.03	-0.000
244.24	-0.000
244.45	-0.000
244.67	-0.000
244.88	-0.000
245.09	-0.000
245.31	-0.000
245.52	-0.000
245.73	-0.000
245.95	-0.000
246.16	-0.000
246.37	-0.000
246.59	-0.000
246.80	-0.000
247.01	-0.000
247.23	-0.000
247.44	-0.000
247.65	-0.000
247.87	-0.000
248.08	-0.000
248.29	-0.000
248.51	-0.000
248.72	-0.000
248.93	-0.000
249.15	-0.000
249.36	-0.000
249.57	-0.000
249.78	-0.000
250.00	-0.000
250.21	-0.000
250.42	-0.000
250.64	-0.000
250.85	-0.000
251.06	-0.000
251.28	-0.000
251.49	-0.000
251.70	-0.000
251.92	-0.000
252.13	-0.000
252.34	-0.000
252.55	-0.000
252.77	-0.000
252.98	-0.000
253.19	-0.000
253.41	-0.000
253.62	-0.000
253.83	-0.000
254.05	-0.000
254.26	-0.000
254.47	-0.000
254.68	-0.000
254.90	-0.000
255.11	-0.000
255.32	-0.000
255.54	-0.000
255.75	-0.000
255.96	-0.000
256.17	-0.000
256.39	-0.000
256.60	-0.000
256.81	-0.000
257.03	-0.000
257.24	-0.000
257.45	-0.000
257.66	-0.000
257.88	-0.000
258.09	-0.000
258.30	-0.000
258.51	-0.000
258.73	-0.000
258.94	-0.000
259.15	-0.000
259.37	-0.000
259.58	-0.000
259.79	-0.000
260.00	-0.000
260.22	-0.000
260.43	-0.000
260.64	-0.000
260.85	-0.000
261.07	-0.000
261.28	-0.000
261.49	-0.000
261.71	-0.000
261.92	-0.000
262.13	-0.000
262.34	-0.000
262.56	-0.000
262.77	-0.000
262.98	-0.000
263.19	-0.000
263.41	-0.000
263.62	-0.000
263.83	-0.000
264.04	-0.000
264.26	-0.000
264.47	-0.000
264.68	-0.000
264.89	-0.000
265.11	-0.000
265.32	-0.000
265.53	-0.000
265.74	-0.000
265.96	-0.000
266.17	-0.000
266.38	-0.000
266.59	-0.000
266.81	-0.000
267.02	-0.000
267.23	-0.000
267.44	-0.000
267.65	-0.000
267.87	-0.000
268.08	-0.000
268.29	-0.000
268.50	-0.000
268.72	-0.000
268.93	-0.000
269.14	-0.000
269.35	-0.000
269.57	-0.000
269.78	-0.000
269.99	-0.000
270.20	-0.000
270.41	-0.000
270.63	-0.000
270.84	-0.000
271.05	-0.000
271.26	-0.000
271.48	-0.000
271.69	-0.000
271.90	-0.000
272.11	-0.000
272.32	-0.000
272.54	-0.000
272.75	-0.000
272.96	-0.000
273.17	-0.000
273.39	-0.000
273.60	-0.000
273.81	-0.000
274.02	-0.000
274.23	-0.000
274.45	-0.000
274.66	-0.000
274.87	-0.000
275.08	-0.000
275.29	-0.000
275.51	-0.000
275.72	-0.000
275.93	-0.000
276.14	-0.000
276.35	-0.000
276.57	-0.000
276.78	-0.000
276.99	-0.000
277.20	-0.000
277.41	-0.000
277.63	-0.000
277.84	-0.000
278.05	-0.000
278.26	-0.000
278.47	-0.000
278.69	-0.000
278.90	-0.000
279.11	-0.000
279.32	-0.000
279.53	-0.000
279.74	-0.000
279.96	-0.000
280.17	-0.000
280.38	-0.000
280.59	-0.000
280.80	-0.000
281.02	-0.000
281.23	-0.000
281.44	-0.000
281.65	-0.000
281.86	-0.000
282.07	-0.000
282.29	-0.000
282.50	-0.000
282.71	-0.000
282.92	-0.000
283.13	-0.000
283.35	-0.000
283.56	-0.000
283.77	-0.000
283.98	-0.000
284.19	-0.000
284.40	-0.000
284.62	-0.000
284.83	-0.000
285.04	-0.000
285.25	-0.000
285.46	-0.000
285.67	-0.000
285.88	-0.000
286.10	-0.000
286.31	-0.000
286.52	-0.000
286.73	-0.000
286.94	-0.000
287.15	-0.000
287.37	-0.000
287.58	-0.000
287.79	-0.000
288.00	-0.000
288.21	-0.000
288.42	-0.000
288.63	-0.000
288.85	-0.000
289.06	-0.000
289.27	-0.000
289.48	-0.000
289.69	-0.000
289.90	-0.000
290.11	-0.000
290.33	-0.000
290.54	-0.000
290.75	-0.000
290.96	-0.000
291.17	-0.000
291.38	-0.000
291.59	-0.000
291.81	-0.000
292.02	-0.000
292.23	-0.000
292.44	-0.000
292.65	-0.000
292.86	-0.000
293.07	-0.000
293.28	-0.000
293.50	-0.000
293.71	-0.000
293.92	-0.000
294.13	-0.000
294.34	-0.000
294.55	-0.000
294.76	-0.000
294.97	-0.000
295.19	-0.000
295.40	-0.000
295.61	-0.000
295.82	-0.000
296.03	-0.000
296.24	-0.000
296.45	-0.000
296.66	3.567
296.87	-0.000
297.09	-0.000
297.30	-0.000
297.51	2.498
297.72	2.254
297.93	2.832
298.14	2.448
298.35	2.216
298.56	2.144
298.77	2.914
298.99	2.548
299.20	2.324
299.41	2.212
299.62	2.110
299.83	2.062
300.04	1.905
300.25	1.884
300.46	2.008
300.67	1.930
300.88	1.814
301.10	1.815
301.31	1.991
301.52	1.849
301.73	1.740
301.94	1.731
302.15	1.759
302.36	1.671
302.57	1.573
302.78	1.578
302.99	1.645
303.20	1.668
303.41	1.531
303.63	1.507
303.84	1.525
304.05	1.512
304.26	1.426
304.47	1.445
304.68	1.455
304.89	1.442
305.10	1.385
305.31	1.370
305.52	1.426
305.73	1.411
305.94	1.358
306.15	1.349
306.37	1.381
306.58	1.392
306.79	1.344
307.00	1.372
307.21	1.427
307.42	1.418
307.63	1.366
307.84	1.324
308.05	1.375
308.26	1.377
308.47	1.340
308.68	1.332
308.89	1.336
309.10	1.332
309.31	1.279
309.52	1.265
309.73	1.285
309.95	1.280
310.16	1.243
310.37	1.230
310.58	1.250
310.79	1.248
311.00	1.241
311.21	1.241
311.42	1.245
311.63	1.238
311.84	1.213
312.05	1.210
312.26	1.238
312.47	1.251
312.68	1.219
312.89	1.199
313.10	1.210
313.31	1.180
313.52	1.179
313.73	1.181
313.94	1.187
314.15	1.168
314.36	1.143
314.57	1.133
314.78	1.120
314.99	1.114
315.21	1.101
315.42	1.104
315.63	1.120
315.84	1.095
316.05	1.076
316.26	1.084
316.47	1.106
316.68	1.101
316.89	1.080
317.10	1.102
317.31	1.112
317.52	1.113
317.73	1.086
317.94	1.085
318.15	1.142
318.36	1.144
318.57	1.122
318.78	1.106
318.99	1.147
319.20	1.141
319.41	1.102
319.62	1.103
319.83	1.116
320.04	1.112
320.25	1.097
320.46	1.053
320.67	1.057
320.88	1.052
321.09	1.036
321.30	1.019
321.51	1.037
321.72	1.035
321.93	1.014
322.14	1.006
322.35	1.036
322.56	1.036
322.77	1.022
322.98	1.033
323.19	1.042
323.40	1.049
323.61	1.026
323.82	1.020
324.03	1.027
324.24	1.024
324.45	1.009
324.66	0.987
324.87	0.986
325.08	0.986
325.29	0.962
325.50	0.955
325.71	0.961
325.92	0.969
326.13	0.955
326.34	0.956
326.55	0.966
326.76	0.964
326.97	0.952
327.18	0.943
327.39	0.971
327.60	0.973
327.80	0.972
328.01	0.969
328.22	0.970
328.43	0.971
328.64	0.957
328.85	0.962
329.06	0.966
329.27	0.965
329.48	0.961
329.69	0.941
329.90	0.952
330.11	0.944
330.32	0.936
330.53	0.927
330.74	0.928
330.95	0.926
331.16	0.910
331.37	0.917
331.58	0.919
331.79	0.918
332.00	0.908
332.21	0.902
332.42	0.907
332.63	0.898
332.83	0.895
333.04	0.897
333.25	0.912
333.46	0.910
333.67	0.895
333.88	0.898
334.09	0.909
334.30	0.905
334.51	0.894
334.72	0.889
334.93	0.893
335.14	0.893
335.35	0.885
335.56	0.878
335.77	0.888
335.98	0.886
336.18	0.878
336.39	0.870
336.60	0.876
336.81	0.873
337.02	0.874
337.23	0.879
337.44	0.881
337.65	0.882
337.86	0.872
338.07	0.867
338.28	0.872
338.49	0.870
338.70	0.862
338.91	0.868
339.11	0.877
339.32	0.871
339.53	0.859
339.74	0.855
339.95	0.853
340.16	0.851
340.37	0.842
340.58	0.841
340.79	0.847
341.00	0.846
341.21	0.834
341.41	0.835
341.62	0.837
341.83	0.837
342.04	0.832
342.25	0.842
342.46	0.847
342.67	0.846
342.88	0.837
343.09	0.836
343.30	0.844
343.50	0.847
343.71	0.836
343.92	0.836
344.13	0.841
344.34	0.841
344.55	0.824
344.76	0.823
344.97	0.828
345.18	0.827
345.38	0.823
345.59	0.819
345.80	0.818
346.01	0.817
346.22	0.811
346.43	0.805
346.64	0.815
346.85	0.814
347.06	0.807
347.26	0.807
347.47	0.811
347.68	0.807
347.89	0.802
348.10	0.797
348.31	0.804
348.52	0.804
348.73	0.801
348.93	0.798
349.14	0.800
349.35	0.799
349.56	0.793
349.77	0.789
349.98	0.795
350.19	0.794
350.39	0.789
350.60	0.784
350.81	0.800
351.02	0.799
351.23	0.793
351.44	0.797
351.65	0.800
351.86	0.798
352.06	0.796
352.27	0.796
352.48	0.797
352.69	0.796
352.90	0.792
353.11	0.778
353.31	0.786
353.52	0.781
353.73	0.772
353.94	0.773
354.15	0.780
354.36	0.779
354.57	0.770
354.77	0.771
354.98	0.772
355.19	0.771
355.40	0.771
355.61	0.776
355.82	0.781
356.02	0.780
356.23	0.773
356.44	0.775
356.65	0.779
356.86	0.779
357.07	0.772
357.27	0.776
357.48	0.779
357.69	0.773
357.90	0.758
358.11	0.755
358.32	0.761
358.52	0.763
358.73	0.753
358.94	0.756
359.15	0.761
359.36	0.761
359.56	0.756
359.77	0.753
359.98	0.760
360.19	0.760
360.40	0.756
360.61	0.756
360.81	0.755
361.02	0.755
361.23	0.747
361.44	0.746
361.65	0.747
361.85	0.746
362.06	0.744
362.27	0.746
362.48	0.747
362.69	0.749
362.89	0.743
363.10	0.743
363.31	0.749
363.52	0.751
363.73	0.746
363.93	0.746
364.14	0.749
364.35	0.750
364.56	0.739
364.77	0.741
364.97	0.744
365.18	0.744
365.39	0.738
365.60	0.735
365.81	0.737
366.01	0.736
366.22	0.733
366.43	0.732
366.64	0.735
366.84	0.740
367.05	0.736
367.26	0.736
367.47	0.739
367.68	0.739
367.88	0.735
368.09	0.733
368.30	0.736
368.51	0.736
368.71	0.735
368.92	0.738
369.13	0.736
369.34	0.736
369.55	0.733
369.75	0.733
369.96	0.740
370.17	0.740
370.38	0.735
370.58	0.735
370.79	0.741
371.00	0.740
371.21	0.731
371.41	0.736
371.62	0.741
371.83	0.737
372.04	0.735
372.24	0.728
372.45	0.729
372.66	0.730
372.87	0.726
373.07	0.723
373.28	0.724
373.49	0.727
373.70	0.717
373.90	0.716
374.11	0.726
374.32	0.726
374.53	0.725
374.73	0.726
374.94	0.729
375.15	0.729
375.36	0.725
375.56	0.733
375.77	0.734
375.98	0.735
376.19	0.732
376.39	0.725
376.60	0.728
376.81	0.728
377.02	0.724
377.22	0.722
377.43	0.723
377.64	0.724
377.84	0.715
378.05	0.719
378.26	0.726
378.47	0.724
378.67	0.721
378.88	0.718
379.09	0.720
379.30	0.721
379.50	0.717
379.71	0.720
379.92	0.723
380.12	0.723
380.33	0.714
380.54	0.710
380.75	0.718
380.95	0.718
381.16	0.716
381.37	0.715
381.57	0.717
381.78	0.718
381.99	0.717
382.20	0.717
382.40	0.720
382.61	0.720
382.82	0.716
383.02	0.708
383.23	0.712
383.44	0.712
383.64	0.709
383.85	0.711
384.06	0.714
384.27	0.710
384.47	0.707
384.68	0.707
384.89	0.714
385.09	0.713
385.30	0.712
385.51	0.710
385.71	0.714
385.92	0.715
386.13	0.713
386.33	0.715
386.54	0.717
386.75	0.716
386.95	0.711
387.16	0.706
387.37	0.710
387.58	0.710
387.78	0.707
387.99	0.705
388.20	0.707
388.40	0.704
388.61	0.700
388.82	0.703
389.02	0.706
389.23	0.706
389.44	0.704
389.64	0.704
389.85	0.714
390.06	0.714
390.26	0.714
390.47	0.713
390.68	0.715
390.88	0.714
391.09	0.709
391.30	0.708
391.50	0.708
391.71	0.708
391.92	0.704
392.12	0.697
392.33	0.698
392.53	0.698
392.74	0.697
392.95	0.697
393.15	0.700
393.36	0.702
393.57	0.699
393.77	0.703
393.98	0.705
394.19	0.705
394.39	0.703
394.60	0.704
394.81	0.706
395.01	0.704
395.22	0.702
395.43	0.702
395.63	0.706
395.84	0.708
396.04	0.703
396.25	0.704
396.46	0.707
396.66	0.705
396.87	0.701
397.08	0.698
397.28	0.700
397.49	0.701
397.69	0.697
397.90	0.692
398.11	0.693
398.31	0.694
398.52	0.690
398.73	0.691
398.93	0.691
399.14	0.690
399.34	0.689
399.55	0.691
399.76	0.691
399.96	0.691
400.17	0.690
400.37	0.688
400.58	0.695
400.79	0.697
400.99	0.695
401.20	0.700
401.41	0.703
401.61	0.704
401.82	0.708
402.02	0.708
402.23	0.709
402.44	0.709
402.64	0.708
402.85	0.702
403.05	0.701
403.26	0.700
403.47	0.693
403.67	0.692
403.88	0.693
404.08	0.687
404.29	0.685
404.50	0.685
404.70	0.685
404.91	0.684
405.11	0.681
405.32	0.682
405.52	0.683
405.73	0.682
405.94	0.680
406.14	0.683
406.35	0.685
406.55	0.685
406.76	0.682
406.97	0.683
407.17	0.686
407.38	0.686
407.58	0.683
407.79	0.686
407.99	0.688
408.20	0.689
408.41	0.684
408.61	0.682
408.82	0.683
409.02	0.683
409.23	0.680
409.43	0.678
409.64	0.680
409.84	0.680
410.05	0.676
410.26	0.675
410.46	0.674
410.67	0.674
410.87	0.675
411.08	0.677
411.28	0.678
411.49	0.679
411.69	0.676
411.90	0.678
412.11	0.679
412.31	0.680
412.52	0.679
412.72	0.679
412.93	0.680
413.13	0.679
413.34	0.675
413.54	0.677
413.75	0.679
413.95	0.678
414.16	0.675
414.37	0.678
414.57	0.679
414.78	0.681
414.98	0.679
415.19	0.680
415.39	0.678
415.60	0.680
415.80	0.679
416.01	0.677
416.21	0.680
416.42	0.679
416.62	0.674
416.83	0.674
417.03	0.673
417.24	0.673
417.44	0.670
417.65	0.670
417.86	0.670
418.06	0.669
418.27	0.667
418.47	0.668
418.68	0.669
418.88	0.670
419.09	0.669
419.29	0.669
419.50	0.671
419.70	0.671
419.91	0.670
420.11	0.667
420.32	0.670
420.52	0.670
420.73	0.668
420.93	0.669
421.14	0.670
421.34	0.669
421.55	0.665
421.75	0.666
421.96	0.667
422.16	0.667
422.37	0.666
422.57	0.664
422.78	0.665
422.98	0.662
423.19	0.660
423.39	0.658
423.60	0.663
423.80	0.664
424.01	0.663
424.21	0.665
424.42	0.666
424.62	0.666
424.83	0.665
425.03	0.665
425.23	0.668
425.44	0.668
425.64	0.668
425.85	0.667
426.05	0.668
426.26	0.668
426.46	0.664
426.67	0.663
426.87	0.669
427.08	0.669
427.28	0.667
427.49	0.668
427.69	0.668
427.90	0.667
428.10	0.664
428.31	0.664
428.51	0.666
428.71	0.665
428.92	0.666
429.12	0.663
429.33	0.664
429.53	0.668
429.74	0.672
429.94	0.672
430.15	0.672
430.35	0.672
430.56	0.669
430.76	0.669
430.96	0.670
431.17	0.667
431.37	0.664
431.58	0.662
431.78	0.659
431.99	0.653
432.19	0.655
432.40	0.657
432.60	0.658
432.80	0.660
433.01	0.658
433.21	0.658
433.42	0.660
433.62	0.661
433.83	0.661
434.03	0.663
434.23	0.666
434.44	0.664
434.64	0.662
434.85	0.668
435.05	0.669
435.26	0.669
435.46	0.668
435.66	0.668
435.87	0.668
436.07	0.668
436.28	0.664
436.48	0.661
436.69	0.661
436.89	0.661
437.09	0.654
437.30	0.653
437.50	0.653
437.71	0.664
437.91	0.663
438.11	0.664
438.32	0.669
438.52	0.670
438.73	0.669
438.93	0.667
439.13	0.667
439.34	0.671
439.54	0.668
439.75	0.669
439.95	0.659
440.15	0.664
440.36	0.662
440.56	0.659
440.77	0.660
440.97	0.660
441.17	0.659
441.38	0.661
441.58	0.659
441.79	0.658
441.99	0.656
442.19	0.655
442.40	0.653
442.60	0.654
442.81	0.652
443.01	0.652
443.21	0.653
443.42	0.653
443.62	0.651
443.82	0.651
444.03	0.653
444.23	0.654
444.44	0.654
444.64	0.652
444.84	0.654
445.05	0.653
445.25	0.651
445.45	0.651
445.66	0.653
445.86	0.653
446.06	0.654
446.27	0.654
446.47	0.657
446.68	0.655
446.88	0.653
447.08	0.653
447.29	0.656
447.49	0.656
447.69	0.656
447.90	0.654
448.10	0.658
448.30	0.655
448.51	0.657
448.71	0.654
448.91	0.657
449.12	0.656
449.32	0.658
449.52	0.657
449.73	0.661
449.93	0.660
450.14	0.661
450.34	0.660
450.54	0.662
450.75	0.659
450.95	0.659
451.15	0.658
451.36	0.660
451.56	0.657
451.76	0.655
451.97	0.653
452.17	0.653
452.37	0.651
452.58	0.648
452.78	0.648
452.98	0.651
453.19	0.650
453.39	0.651
453.59	0.649
453.79	0.651
454.00	0.651
454.20	0.650
454.40	0.651
454.61	0.653
454.81	0.654
455.01	0.651
455.22	0.652
455.42	0.654
455.62	0.651
455.83	0.652
456.03	0.654
456.23	0.657
456.44	0.657
456.64	0.655
456.84	0.655
457.04	0.656
457.25	0.655
457.45	0.652
457.65	0.651
457.86	0.652
458.06	0.651
458.26	0.647
458.47	0.646
458.67	0.648
458.87	0.648
459.07	0.646
459.28	0.648
459.48	0.652
459.68	0.652
459.89	0.650
460.09	0.649
460.29	0.651
460.49	0.652
460.70	0.651
460.90	0.650
461.10	0.651
461.31	0.650
461.51	0.647
461.71	0.649
461.91	0.651
462.12	0.651
462.32	0.650
462.52	0.651
462.72	0.654
462.93	0.655
463.13	0.653
463.33	0.653
463.53	0.655
463.74	0.654
463.94	0.649
464.14	0.649
464.35	0.651
464.55	0.651
464.75	0.649
464.95	0.646
465.16	0.649
465.36	0.648
465.56	0.646
465.76	0.645
465.97	0.646
466.17	0.647
466.37	0.645
466.57	0.646
466.78	0.647
466.98	0.647
467.18	0.645
467.38	0.643
467.59	0.646
467.79	0.647
467.99	0.646
468.19	0.647
468.39	0.650
468.60	0.651
468.80	0.648
469.00	0.650
469.20	0.652
469.41	0.652
469.61	0.652
469.81	0.653
470.01	0.653
470.22	0.653
470.42	0.651
470.62	0.649
470.82	0.650
471.02	0.650
471.23	0.647
471.43	0.647
471.63	0.650
471.83	0.649
472.04	0.647
472.24	0.645
472.44	0.651
472.64	0.651
472.84	0.648
473.05	0.648
473.25	0.651
473.45	0.650
473.65	0.648
473.85	0.648
474.06	0.650
474.26	0.650
474.46	0.651
474.66	0.648
474.86	0.649
475.07	0.649
475.27	0.647
475.47	0.646
475.67	0.647
475.87	0.648
476.08	0.645
476.28	0.645
476.48	0.646
476.68	0.644
476.88	0.642
477.09	0.643
477.29	0.645
477.49	0.644
477.69	0.643
477.89	0.643
478.09	0.643
478.30	0.645
478.50	0.642
478.70	0.642
478.90	0.643
479.10	0.645
479.31	0.646
479.51	0.644
479.71	0.645
479.91	0.645
480.11	0.644
480.31	0.644
480.52	0.643
480.72	0.643
480.92	0.642
481.12	0.641
481.32	0.639
481.52	0.637
481.72	0.637
481.93	0.641
482.13	0.642
482.33	0.641
482.53	0.639
482.73	0.639
482.93	0.641
483.14	0.641
483.34	0.640
483.54	0.640
483.74	0.640
483.94	0.639
484.14	0.634
484.34	0.634
484.55	0.635
484.75	0.635
484.95	0.633
485.15	0.632
485.35	0.632
485.55	0.632
485.75	0.629
485.96	0.630
486.16	0.632
486.36	0.631
486.56	0.630
486.76	0.630
486.96	0.631
487.16	0.630
487.36	0.629
487.57	0.629
487.77	0.631
487.97	0.631
488.17	0.629
488.37	0.629
488.57	0.630
488.77	0.630
488.97	0.628
489.18	0.627
489.38	0.630
489.58	0.631
489.78	0.630
489.98	0.629
490.18	0.629
490.38	0.630
490.58	0.628
490.78	0.629
490.98	0.631
491.19	0.632
491.39	0.631
491.59	0.629
491.79	0.632
491.99	0.632
492.19	0.632
492.39	0.635
492.59	0.635
492.79	0.637
492.99	0.637
493.20	0.637
493.40	0.637
493.60	0.639
493.80	0.637
494.00	0.635
494.20	0.636
494.40	0.636
494.60	0.633
494.80	0.637
495.00	0.637
495.20	0.635
495.40	0.634
495.61	0.635
495.81	0.635
496.01	0.639
496.21	0.640
496.41	0.638
496.61	0.639
496.81	0.638
497.01	0.632
497.21	0.631
497.41	0.632
497.61	0.632
497.81	0.630
498.01	0.629
498.21	0.627
498.41	0.625
498.61	0.625
498.82	0.626
499.02	0.629
499.22	0.630
499.42	0.629
499.62	0.630
499.82	0.631
500.02	0.633
500.22	0.631
500.42	0.633
500.62	0.634
500.82	0.635
501.02	0.633
501.22	0.633
501.42	0.633
501.62	0.635
501.82	0.634
502.02	0.634
502.22	0.634
502.42	0.636
502.62	0.633
502.82	0.633
503.02	0.634
503.22	0.633
503.42	0.631
503.63	0.632
503.83	0.629
504.03	0.628
504.23	0.627
504.43	0.628
504.63	0.629
504.83	0.629
505.03	0.628
505.23	0.630
505.43	0.632
505.63	0.632
505.83	0.632
506.03	0.634
506.23	0.636
506.43	0.637
506.63	0.636
506.83	0.634
507.03	0.636
507.23	0.636
507.43	0.633
507.63	0.634
507.83	0.635
508.03	0.635
508.23	0.634
508.43	0.632
508.63	0.635
508.83	0.635
509.03	0.636
509.23	0.635
509.43	0.637
509.63	0.637
509.83	0.635
510.03	0.638
510.23	0.640
510.43	0.640
510.63	0.640
510.83	0.640
511.03	0.641
511.23	0.639
511.43	0.639
511.63	0.640
511.83	0.642
512.03	0.642
512.22	0.638
512.42	0.638
512.62	0.640
512.82	0.640
513.02	0.639
513.22	0.639
513.42	0.640
513.62	0.643
513.82	0.641
514.02	0.641
514.22	0.642
514.42	0.643
514.62	0.642
514.82	0.642
515.02	0.645
515.22	0.648
515.42	0.646
515.62	0.649
515.82	0.648
516.02	0.649
516.22	0.649
516.42	0.650
516.62	0.652
516.82	0.652
517.01	0.650
517.21	0.649
517.41	0.652
517.61	0.653
517.81	0.649
518.01	0.648
518.21	0.648
518.41	0.646
518.61	0.645
518.81	0.646
519.01	0.648
519.21	0.648
519.41	0.647
519.61	0.642
519.81	0.644
520.00	0.645
520.20	0.644
520.40	0.647
520.60	0.649
520.80	0.648
521.00	0.648
521.20	0.649
521.40	0.654
521.60	0.655
521.80	0.653
522.00	0.654
522.20	0.657
522.39	0.656
522.59	0.652
522.79	0.654
522.99	0.657
523.19	0.655
523.39	0.653
523.59	0.651
523.79	0.654
523.99	0.656
524.19	0.655
524.38	0.653
524.58	0.656
524.78	0.656
524.98	0.654
525.18	0.656
525.38	0.657
525.58	0.657
525.78	0.654
525.98	0.653
526.18	0.653
526.37	0.652
526.57	0.653
526.77	0.653
526.97	0.654
527.17	0.655
527.37	0.651
527.57	0.654
527.77	0.655
527.96	0.656
528.16	0.655
528.36	0.656
528.56	0.658
528.76	0.656
528.96	0.655
529.16	0.656
529.36	0.660
529.55	0.660
529.75	0.656
529.95	0.657
530.15	0.658
530.35	0.661
530.55	0.659
530.75	0.659
530.94	0.660
531.14	0.661
531.34	0.659
531.54	0.656
531.74	0.660
531.94	0.663
532.13	0.660
532.33	0.662
532.53	0.661
532.73	0.660
532.93	0.658
533.13	0.660
533.33	0.660
533.52	0.661
533.72	0.664
533.92	0.662
534.12	0.660
534.32	0.661
534.52	0.658
534.71	0.660
534.91	0.663
535.11	0.665
535.31	0.662
535.51	0.664
535.71	0.665
535.90	0.662
536.10	0.664
536.30	0.665
536.50	0.667
536.70	0.666
536.89	0.664
537.09	0.663
537.29	0.665
537.49	0.666
537.69	0.664
537.89	0.665
538.08	0.664
538.28	0.662
538.48	0.662
538.68	0.664
538.88	0.666
539.07	0.666
539.27	0.665
539.47	0.663
539.67	0.664
539.87	0.665
540.06	0.663
540.26	0.665
540.46	0.667
540.66	0.664
540.86	0.661
541.05	0.661
541.25	0.664
541.45	0.664
541.65	0.662
541.84	0.664
542.04	0.665
542.24	0.666
542.44	0.664
542.64	0.665
542.83	0.668
543.03	0.668
543.23	0.665
543.43	0.666
543.62	0.667
543.82	0.668
544.02	0.666
544.22	0.666
544.42	0.669
544.61	0.670
544.81	0.667
545.01	0.666
545.21	0.667
545.40	0.669
545.60	0.666
545.80	0.669
546.00	0.670
546.19	0.669
546.39	0.668
546.59	0.666
546.79	0.668
546.98	0.668
547.18	0.667
547.38	0.668
547.58	0.671
547.77	0.671
547.97	0.667
548.17	0.669
548.37	0.670
548.56	0.670
548.76	0.669
548.96	0.671
549.16	0.674
549.35	0.674
549.55	0.671
549.75	0.671
549.95	0.675
550.14	0.676
550.34	0.674
550.54	0.679
550.73	0.682
550.93	0.683
551.13	0.680
551.33	0.677
551.52	0.679
551.72	0.680
551.92	0.677
552.12	0.678
552.31	0.678
552.51	0.678
552.71	0.673
552.90	0.673
553.10	0.674
553.30	0.674
553.50	0.673
553.69	0.675
553.89	0.675
554.09	0.675
554.28	0.672
554.48	0.674
554.68	0.676
554.87	0.677
555.07	0.673
555.27	0.674
555.47	0.676
555.66	0.676
555.86	0.675
556.06	0.677
556.25	0.679
556.45	0.687
556.65	0.685
556.84	0.688
557.04	0.691
557.24	0.692
557.43	0.691
557.63	0.694
557.83	0.696
558.02	0.696
558.22	0.699
558.42	0.700
558.61	0.693
558.81	0.694
559.01	0.690
559.21	0.690
559.40	0.691
559.60	0.691
559.80	0.687
559.99	0.689
560.19	0.691
560.39	0.686
560.58	0.683
560.78	0.683
560.97	0.687
561.17	0.686
561.37	0.683
561.56	0.684
561.76	0.686
561.96	0.686
562.15	0.682
562.35	0.685
562.55	0.686
562.74	0.686
562.94	0.684
563.14	0.683
563.33	0.683
563.53	0.683
563.73	0.681
563.92	0.682
564.12	0.685
564.31	0.687
564.51	0.684
564.71	0.686
564.90	0.689
565.10	0.690
565.30	0.693
565.49	0.694
565.69	0.697
565.89	0.697
566.08	0.694
566.28	0.696
566.47	0.698
566.67	0.696
566.87	0.693
567.06	0.694
567.26	0.700
567.46	0.695
567.65	0.694
567.85	0.695
568.04	0.698
568.24	0.697
568.44	0.694
568.63	0.692
568.83	0.693
569.02	0.692
569.22	0.687
569.42	0.683
569.61	0.686
569.81	0.684
570.00	0.682
570.20	0.684
570.40	0.686
570.59	0.685
570.79	0.683
570.98	0.681
571.18	0.683
571.38	0.682
571.57	0.679
571.77	0.677
571.96	0.681
572.16	0.677
572.35	0.671
572.55	0.672
572.75	0.671
572.94	0.670
573.14	0.669
573.33	0.669
573.53	0.670
573.73	0.670
573.92	0.668
574.12	0.666
574.31	0.669
574.51	0.670
574.70	0.666
574.90	0.668
575.09	0.671
575.29	0.671
575.49	0.668
575.68	0.668
575.88	0.670
576.07	0.672
576.27	0.669
576.46	0.668
576.66	0.667
576.86	0.666
577.05	0.664
577.25	0.663
577.44	0.665
577.64	0.665
577.83	0.662
578.03	0.664
578.22	0.662
578.42	0.662
578.61	0.660
578.81	0.661
579.00	0.662
579.20	0.661
579.40	0.660
579.59	0.659
579.79	0.659
579.98	0.659
580.18	0.658
580.37	0.658
580.57	0.661
580.76	0.665
580.96	0.664
581.15	0.664
581.35	0.666
581.54	0.665
581.74	0.664
581.93	0.666
582.13	0.667
582.32	0.665
582.52	0.663
582.71	0.662
582.91	0.659
583.10	0.659
583.30	0.658
583.49	0.657
583.69	0.661
583.88	0.662
584.08	0.662
584.27	0.664
584.47	0.667
584.66	0.668
584.86	0.666
585.05	0.668
585.25	0.671
585.44	0.670
585.64	0.669
585.83	0.665
586.03	0.667
586.22	0.665
586.42	0.661
586.61	0.663
586.81	0.666
587.00	0.665
587.20	0.663
587.39	0.664
587.59	0.666
587.78	0.667
587.98	0.668
588.17	0.668
588.37	0.671
588.56	0.673
588.76	0.669
588.95	0.669
589.15	0.673
589.34	0.675
589.54	0.673
589.73	0.674
589.92	0.677
590.12	0.677
590.31	0.674
590.51	0.679
590.70	0.681
590.90	0.681
591.09	0.679
591.29	0.677
591.48	0.678
591.68	0.678
591.87	0.676
592.06	0.676
592.26	0.679
592.45	0.678
592.65	0.672
592.84	0.671
593.04	0.674
593.23	0.677
593.43	0.674
593.62	0.674
593.81	0.674
594.01	0.674
594.20	0.672
594.40	0.671
594.59	0.673
594.79	0.674
594.98	0.672
595.17	0.671
595.37	0.672
595.56	0.673
595.76	0.671
595.95	0.673
596.14	0.676
596.34	0.677
596.53	0.675
596.73	0.677
596.92	0.678
597.12	0.681
597.31	0.680
597.50	0.679
597.70	0.682
597.89	0.682
598.09	0.678
598.28	0.680
598.47	0.683
598.67	0.681
598.86	0.677
599.06	0.679
599.25	0.679
599.44	0.678
599.64	0.675
599.83	0.672
600.03	0.676
600.22	0.676
600.41	0.676
600.61	0.674
600.80	0.677
601.00	0.678
601.19	0.674
601.38	0.672
601.58	0.676
601.77	0.677
601.96	0.679
602.16	0.679
602.35	0.688
602.55	0.685
602.74	0.686
602.93	0.687
603.13	0.692
603.32	0.693
603.51	0.692
603.71	0.694
603.90	0.696
604.09	0.697
604.29	0.693
604.48	0.687
604.68	0.690
604.87	0.688
605.06	0.685
605.26	0.681
605.45	0.683
605.64	0.681
605.84	0.676
606.03	0.677
606.22	0.676
606.42	0.676
606.61	0.672
606.80	0.672
607.00	0.674
607.19	0.674
607.38	0.672
607.58	0.673
607.77	0.677
607.96	0.678
608.16	0.675
608.35	0.680
608.54	0.683
608.74	0.687
608.93	0.692
609.12	0.695
609.32	0.698
609.51	0.702
609.70	0.700
609.90	0.702
610.09	0.706
610.28	0.711
610.48	0.704
610.67	0.705
610.86	0.706
611.06	0.700
611.25	0.697
611.44	0.697
611.64	0.697
611.83	0.700
612.02	0.696
612.21	0.695
612.41	0.693
612.60	0.693
612.79	0.688
612.99	0.689
613.18	0.692
613.37	0.690
613.57	0.687
613.76	0.689
613.95	0.687
614.14	0.687
614.34	0.683
614.53	0.685
614.72	0.688
614.92	0.688
615.11	0.685
615.30	0.681
615.49	0.683
615.69	0.686
615.88	0.682
616.07	0.684
616.26	0.687
616.46	0.688
616.65	0.685
616.84	0.684
617.04	0.686
617.23	0.690
617.42	0.690
617.61	0.695
617.81	0.696
618.00	0.697
618.19	0.695
618.38	0.699
618.58	0.703
618.77	0.705
618.96	0.703
619.15	0.705
619.35	0.707
619.54	0.708
619.73	0.702
619.92	0.704
620.12	0.709
620.31	0.710
620.50	0.703
620.69	0.704
620.89	0.707
621.08	0.707
621.27	0.706
621.46	0.705
621.66	0.710
621.85	0.709
622.04	0.705
622.23	0.705
622.43	0.706
622.62	0.707
622.81	0.705
623.00	0.705
623.19	0.709
623.39	0.708
623.58	0.705
623.77	0.703
623.96	0.706
624.16	0.707
624.35	0.702
624.54	0.705
624.73	0.710
624.92	0.707
625.12	0.705
625.31	0.706
625.50	0.710
625.69	0.709
625.88	0.705
626.08	0.704
626.27	0.707
626.46	0.707
626.65	0.703
626.84	0.703
627.04	0.709
627.23	0.709
627.42	0.704
627.61	0.705
627.80	0.709
628.00	0.710
628.19	0.708
628.38	0.711
628.57	0.714
628.76	0.713
628.96	0.709
629.15	0.710
629.34	0.713
629.53	0.714
629.72	0.708
629.91	0.708
630.11	0.714
630.30	0.714
630.49	0.716
630.68	0.717
630.87	0.721
631.06	0.724
631.26	0.718
631.45	0.720
631.64	0.730
631.83	0.732
632.02	0.729
632.21	0.728
632.41	0.737
632.60	0.730
632.79	0.728
632.98	0.728
633.17	0.730
633.36	0.731
633.55	0.727
633.75	0.723
633.94	0.726
634.13	0.726
634.32	0.722
634.51	0.717
634.70	0.720
634.89	0.720
635.09	0.715
635.28	0.716
635.47	0.718
635.66	0.721
635.85	0.716
636.04	0.718
636.23	0.723
636.43	0.724
636.62	0.722
636.81	0.721
637.00	0.724
637.19	0.727
637.38	0.723
637.57	0.723
637.76	0.725
637.95	0.725
638.15	0.720
638.34	0.717
638.53	0.721
638.72	0.723
638.91	0.720
639.10	0.717
639.29	0.718
639.48	0.719
639.67	0.718
639.87	0.717
640.06	0.722
640.25	0.722
640.44	0.721
640.63	0.721
640.82	0.724
641.01	0.723
641.20	0.722
641.39	0.724
641.58	0.727
641.78	0.726
641.97	0.721
642.16	0.735
642.35	0.737
642.54	0.736
642.73	0.730
642.92	0.728
643.11	0.733
643.30	0.732
643.49	0.726
643.68	0.729
643.87	0.732
644.06	0.733
644.25	0.711
644.45	0.715
644.64	0.716
644.83	0.718
645.02	0.714
645.21	0.714
645.40	0.717
645.59	0.717
645.78	0.709
645.97	0.711
646.16	0.713
646.35	0.713
646.54	0.711
646.73	0.712
646.92	0.713
647.11	0.712
647.30	0.707
647.49	0.709
647.68	0.709
647.88	0.708
648.07	0.701
648.26	0.704
648.45	0.706
648.64	0.702
648.83	0.699
649.02	0.702
649.21	0.713
649.40	0.712
649.59	0.706
649.78	0.707
649.97	0.722
650.16	0.721
650.35	0.715
650.54	0.717
650.73	0.726
650.92	0.724
651.11	0.716
651.30	0.713
651.49	0.719
651.68	0.720
651.87	0.716
652.06	0.705
652.25	0.708
652.44	0.711
652.63	0.706
652.82	0.704
653.01	0.703
653.20	0.701
653.39	0.688
653.58	0.686
653.77	0.685
653.96	0.681
654.15	0.672
654.34	0.670
654.53	0.666
654.72	0.662
654.91	0.652
655.10	0.649
655.29	0.647
655.48	0.646
655.67	0.640
655.86	0.637
656.05	0.636
656.24	0.637
656.43	0.631
656.62	0.630
656.81	0.631
657.00	0.630
657.19	0.628
657.38	0.628
657.57	0.628
657.76	0.631
657.95	0.629
658.14	0.632
658.33	0.635
658.51	0.641
658.70	0.642
658.89	0.643
659.08	0.652
659.27	0.659
659.46	0.658
659.65	0.665
659.84	0.669
660.03	0.673
660.22	0.673
660.41	0.677
660.60	0.677
660.79	0.677
660.98	0.684
661.17	0.683
661.36	0.682
661.55	0.682
661.74	0.679
661.92	0.682
662.11	0.684
662.30	0.684
662.49	0.676
662.68	0.675
662.87	0.680
663.06	0.673
663.25	0.673
663.44	0.674
663.63	0.676
663.82	0.675
664.01	0.669
664.20	0.667
664.38	0.669
664.57	0.670
664.76	0.669
664.95	0.669
665.14	0.674
665.33	0.669
665.52	0.675
665.71	0.679
665.90	0.678
666.09	0.680
666.28	0.677
666.46	0.677
666.65	0.679
666.84	0.676
667.03	0.670
667.22	0.668
667.41	0.671
667.60	0.662
667.79	0.655
667.98	0.657
668.16	0.658
668.35	0.658
668.54	0.652
668.73	0.653
668.92	0.654
669.11	0.652
669.30	0.646
669.49	0.643
669.67	0.645
669.86	0.647
670.05	0.644
670.24	0.642
670.43	0.640
670.62	0.639
670.81	0.634
671.00	0.634
671.18	0.635
671.37	0.634
671.56	0.631
671.75	0.630
671.94	0.626
672.13	0.623
672.32	0.618
672.50	0.618
672.69	0.618
672.88	0.619
673.07	0.614
673.26	0.616
673.45	0.619
673.63	0.619
673.82	0.615
674.01	0.617
674.20	0.617
674.39	0.616
674.58	0.615
674.76	0.615
674.95	0.614
675.14	0.614
675.33	0.609
675.52	0.607
675.71	0.607
675.89	0.607
676.08	0.602
676.27	0.603
676.46	0.604
676.65	0.603
676.84	0.603
677.02	0.605
677.21	0.607
677.40	0.606
677.59	0.604
677.78	0.605
677.96	0.608
678.15	0.608
678.34	0.605
678.53	0.605
678.72	0.606
678.90	0.602
679.09	0.598
679.28	0.595
679.47	0.595
679.66	0.594
679.84	0.590
680.03	0.588
680.22	0.587
680.41	0.589
680.60	0.585
680.78	0.585
680.97	0.588
681.16	0.588
681.35	0.587
681.53	0.585
681.72	0.587
681.91	0.589
682.10	0.587
682.29	0.590
682.47	0.587
682.66	0.587
682.85	0.585
683.04	0.583
683.22	0.583
683.41	0.585
683.60	0.583
683.79	0.584
683.97	0.584
684.16	0.582
684.35	0.578
684.54	0.580
684.72	0.580
684.91	0.581
685.10	0.579
685.29	0.580
685.47	0.577
685.66	0.576
685.85	0.573
686.04	0.571
686.22	0.574
686.41	0.577
686.60	0.574
686.79	0.576
686.97	0.577
687.16	0.579
687.35	0.576
687.54	0.580
687.72	0.585
687.91	0.584
688.10	0.586
688.29	0.585
688.47	0.583
688.66	0.583
688.85	0.579
689.03	0.576
689.22	0.581
689.41	0.581
689.60	0.575
689.78	0.572
689.97	0.574
690.16	0.571
690.34	0.567
690.53	0.566
690.72	0.568
690.91	0.566
691.09	0.564
691.28	0.558
691.47	0.556
691.65	0.556
691.84	0.553
692.03	0.552
692.21	0.550
692.40	0.550
692.59	0.548
692.77	0.547
692.96	0.549
693.15	0.549
693.34	0.546
693.52	0.547
693.71	0.548
693.90	0.549
694.08	0.549
694.27	0.550
694.46	0.560
694.64	0.560
694.83	0.559
695.02	0.558
695.20	0.558
695.39	0.557
695.58	0.556
695.76	0.558
695.95	0.558
696.14	0.556
696.32	0.554
696.51	0.544
696.70	0.545
696.88	0.546
697.07	0.545
697.26	0.546
697.44	0.547
697.63	0.546
697.81	0.544
698.00	0.543
698.19	0.542
698.37	0.543
698.56	0.542
698.75	0.542
698.93	0.542
699.12	0.542
699.31	0.541
699.49	0.540
699.68	0.541
699.87	0.544
700.05	0.543
700.24	0.542
700.42	0.544
700.61	0.544
700.80	0.542
700.98	0.542
701.17	0.543
701.36	0.542
701.54	0.542
701.73	0.543
701.91	0.541
702.10	0.541
702.29	0.538
702.47	0.537
702.66	0.539
702.84	0.540
703.03	0.537
703.22	0.539
703.40	0.540
703.59	0.540
703.77	0.540
703.96	0.540
704.15	0.541
704.33	0.541
704.52	0.540
704.70	0.539
704.89	0.539
705.08	0.538
705.26	0.532
705.45	0.533
705.63	0.533
705.82	0.530
706.00	0.529
706.19	0.528
706.38	0.528
706.56	0.527
706.75	0.525
706.93	0.524
707.12	0.526
707.30	0.526
707.49	0.523
707.68	0.521
707.86	0.521
708.05	0.520
708.23	0.518
708.42	0.519
708.60	0.522
708.79	0.522
708.98	0.521
709.16	0.520
709.35	0.522
709.53	0.526
709.72	0.525
709.90	0.527
710.09	0.529
710.27	0.531
710.46	0.534
710.64	0.532
710.83	0.534
711.02	0.536
711.20	0.534
711.39	0.532
711.57	0.530
711.76	0.531
711.94	0.528
712.13	0.528
712.31	0.529
712.50	0.525
712.68	0.522
712.87	0.523
713.05	0.524
713.24	0.524
713.42	0.523
713.61	0.524
713.79	0.525
713.98	0.525
714.16	0.526
714.35	0.525
714.54	0.526
714.72	0.526
714.91	0.523
715.09	0.529
715.28	0.533
715.46	0.533
715.65	0.530
715.83	0.530
716.02	0.532
716.20	0.529
716.39	0.528
716.57	0.530
716.76	0.532
716.94	0.531
717.12	0.523
717.31	0.524
717.49	0.527
717.68	0.529
717.86	0.529
718.05	0.531
718.23	0.535
718.42	0.537
718.60	0.538
718.79	0.546
718.97	0.550
719.16	0.551
719.34	0.549
719.53	0.549
719.71	0.549
719.90	0.551
720.08	0.547
720.27	0.547
720.45	0.548
720.63	0.547
720.82	0.540
721.00	0.543
721.19	0.548
721.37	0.546
721.56	0.546
721.74	0.549
721.93	0.558
722.11	0.565
722.30	0.564
722.48	0.568
722.66	0.569
722.85	0.568
723.03	0.567
723.22	0.564
723.40	0.569
723.59	0.568
723.77	0.571
723.95	0.565
724.14	0.566
724.32	0.568
724.51	0.567
724.69	0.570
724.88	0.571
725.06	0.570
725.24	0.570
725.43	0.572
725.61	0.574
725.80	0.568
725.98	0.565
726.16	0.562
726.35	0.569
726.53	0.568
726.72	0.566
726.90	0.576
727.09	0.578
727.27	0.584
727.45	0.581
727.64	0.591
727.82	0.602
728.01	0.607
728.19	0.603
728.37	0.609
728.56	0.614
728.74	0.620
728.92	0.606
729.11	0.608
729.29	0.608
729.48	0.609
729.66	0.598
729.84	0.596
730.03	0.600
730.21	0.602
730.40	0.590
730.58	0.591
730.76	0.592
730.95	0.595
731.13	0.593
731.31	0.606
731.50	0.616
731.68	0.621
731.86	0.616
732.05	0.631
732.23	0.636
732.42	0.638
732.60	0.640
732.78	0.645
732.97	0.665
733.15	0.671
733.33	0.658
733.52	0.666
733.70	0.678
733.88	0.687
734.07	0.672
734.25	0.701
734.43	0.712
734.62	0.716
734.80	0.711
734.98	0.701
735.17	0.710
735.35	0.717
735.53	0.703
735.72	0.704
735.90	0.729
736.08	0.748
736.27	0.719
736.45	0.729
736.63	0.745
736.82	0.755
737.00	0.754
737.18	0.767
737.37	0.804
737.55	0.829
737.73	0.825
737.92	0.829
738.10	0.830
738.28	0.853
738.46	0.838
738.65	0.851
738.83	0.878
739.01	0.936
739.20	0.921
739.38	0.901
739.56	0.894
739.75	0.898
739.93	0.854
740.11	0.881
740.29	0.885
740.48	0.893
740.66	0.866
740.84	0.859
741.03	0.826
741.21	0.840
741.39	0.817
741.57	0.834
741.76	0.857
741.94	0.867
742.12	0.826
742.31	0.832
742.49	0.856
742.67	0.884
742.85	0.898
743.04	0.900
743.22	0.918
743.40	0.979
743.58	0.948
743.77	0.967
743.95	1.014
744.13	1.074
744.31	1.048
744.50	1.034
744.68	1.035
744.86	1.007
745.04	1.021
745.23	1.095
745.41	1.080
745.59	1.098
745.77	1.041
745.96	1.018
746.14	1.033
746.32	1.036
746.50	1.027
746.69	1.008
746.87	1.023
747.05	1.007
747.23	0.922
747.42	0.909
747.60	0.942
747.78	0.951
747.96	0.986
748.14	0.927
748.33	0.963
748.51	0.955
748.69	0.943
748.87	0.976
749.06	0.974
749.24	0.968
749.42	0.947
749.60	0.922
749.78	0.940
749.97	0.892
750.15	0.886
750.33	0.884
750.51	0.919
750.69	0.921
750.88	0.922
751.06	0.937
751.24	0.972
751.42	0.961
751.60	0.950
751.79	1.035
751.97	1.101
752.15	1.101
752.33	1.061
752.51	1.146
752.69	1.182
752.88	1.138
753.06	1.187
753.24	1.151
753.42	1.204
753.60	1.469
753.78	1.230
753.97	1.246
754.15	1.275
754.33	1.316
754.51	1.134
754.69	1.110
754.87	1.157
755.06	1.065
755.24	1.057
755.42	1.066
755.60	0.949
755.78	0.958
755.96	0.892
756.15	0.894
756.33	0.903
756.51	0.922
756.69	0.904
756.87	0.867
757.05	0.894
757.23	0.880
757.42	0.840
757.60	0.840
757.78	0.832
757.96	0.836
758.14	0.815
758.32	0.795
758.50	0.812
758.69	0.810
758.87	0.797
759.05	0.801
759.23	0.814
759.41	0.815
759.59	0.804
759.77	0.827
759.95	0.857
760.13	0.910
760.32	0.909
760.50	0.905
760.68	0.936
760.86	0.936
761.04	0.901
761.22	0.906
761.40	0.960
761.58	0.962
761.76	0.926
761.95	0.902
762.13	0.856
762.31	0.854
762.49	0.815
762.67	0.833
762.85	0.851
763.03	0.847
763.21	0.822
763.39	0.801
763.57	0.806
763.75	0.798
763.94	0.783
764.12	0.785
764.30	0.812
764.48	0.816
764.66	0.776
764.84	0.774
765.02	0.818
765.20	0.824
765.38	0.804
765.56	0.811
765.74	0.860
765.92	0.861
766.10	0.866
766.28	0.858
766.46	0.897
766.65	0.899
766.83	0.883
767.01	0.862
767.19	0.876
767.37	0.876
767.55	0.860
767.73	0.840
767.91	0.845
768.09	0.833
768.27	0.820
768.45	0.806
768.63	0.810
768.81	0.812
768.99	0.780
769.17	0.806
769.35	0.823
769.53	0.820
769.71	0.795
769.89	0.805
770.07	0.815
770.25	0.798
770.43	0.774
770.61	0.802
770.79	0.811
770.97	0.824
771.15	0.785
771.33	0.785
771.51	0.789
771.69	0.801
771.87	0.808
772.05	0.811
772.24	0.821
772.42	0.831
772.60	0.805
772.78	0.871
772.96	0.907
773.14	0.902
773.32	0.877
773.49	0.888
773.67	0.889
773.85	0.865
774.03	0.851
774.21	0.889
774.39	0.904
774.57	0.930
774.75	0.842
774.93	0.833
775.11	0.861
775.29	0.867
775.47	0.864
775.65	0.874
775.83	0.894
776.01	0.915
776.19	0.854
776.37	0.859
776.55	0.861
776.73	0.859
776.91	0.854
777.09	0.834
777.27	0.837
777.45	0.824
777.63	0.800
777.81	0.797
777.99	0.787
778.17	0.790
778.35	0.764
778.53	0.752
778.71	0.761
778.89	0.747
779.07	0.734
779.24	0.742
779.42	0.746
779.60	0.764
779.78	0.760
779.96	0.768
780.14	0.778
780.32	0.800
780.50	0.776
780.68	0.775
780.86	0.766
781.04	0.788
781.22	0.787
781.40	0.799
781.58	0.792
781.75	0.783
781.93	0.760
782.11	0.760
782.29	0.746
782.47	0.747
782.65	0.730
782.83	0.762
783.01	0.757
783.19	0.750
783.37	0.732
783.55	0.736
783.72	0.755
783.90	0.765
784.08	0.755
784.26	0.769
784.44	0.795
784.62	0.797
784.80	0.758
784.98	0.763
785.16	0.771
785.33	0.787
785.51	0.767
785.69	0.752
785.87	0.753
786.05	0.763
786.23	0.755
786.41	0.751
786.59	0.761
786.77	0.759
786.94	0.743
787.12	0.745
787.30	0.748
787.48	0.746
787.66	0.733
787.84	0.734
788.02	0.726
788.19	0.723
788.37	0.708
788.55	0.710
788.73	0.715
788.91	0.710
789.09	0.692
789.27	0.681
789.44	0.696
789.62	0.704
789.80	0.711
789.98	0.738
790.16	0.726
790.34	0.722
790.51	0.707
790.69	0.725
790.87	0.730
791.05	0.729
791.23	0.721
791.41	0.722
791.58	0.731
791.76	0.710
791.94	0.676
792.12	0.686
792.30	0.690
792.48	0.688
792.65	0.680
792.83	0.689
793.01	0.697
793.19	0.695
793.37	0.677
793.54	0.672
793.72	0.683
793.90	0.682
794.08	0.669
794.26	0.671
794.43	0.682
794.61	0.665
794.79	0.652
794.97	0.651
795.15	0.658
795.32	0.662
795.50	0.651
795.68	0.645
795.86	0.650
796.04	0.652
796.21	0.642
796.39	0.640
796.57	0.658
796.75	0.665
796.92	0.665
797.10	0.668
797.28	0.673
797.46	0.678
797.64	0.680
797.81	0.689
797.99	0.695
798.17	0.701
798.35	0.692
798.52	0.694
798.70	0.690
798.88	0.699
799.06	0.698
799.23	0.698
799.41	0.706
799.59	0.698
799.77	0.683
799.94	0.691
800.12	0.702
800.30	0.722
800.48	0.719
800.65	0.721
800.83	0.713
801.01	0.701
801.19	0.702
801.36	0.699
801.54	0.705
801.72	0.717
801.90	0.700
802.07	0.693
802.25	0.679
802.43	0.661
802.60	0.655
802.78	0.663
802.96	0.671
803.14	0.662
803.31	0.658
803.49	0.657
803.67	0.653
803.84	0.658
804.02	0.648
804.20	0.651
804.38	0.660
804.55	0.658
804.73	0.643
804.91	0.644
805.08	0.661
805.26	0.657
805.44	0.717
805.61	0.722
805.79	0.725
805.97	0.727
806.15	0.716
806.32	0.709
806.50	0.718
806.68	0.717
806.85	0.705
807.03	0.694
807.21	0.716
807.38	0.651
807.56	0.637
807.74	0.648
807.91	0.655
808.09	0.659
808.27	0.680
808.44	0.708
808.62	0.719
808.80	0.720
808.97	0.712
809.15	0.704
809.33	0.724
809.50	0.732
809.68	0.713
809.86	0.723
810.03	0.758
810.21	0.733
810.39	0.711
810.56	0.717
810.74	0.745
810.91	0.827
811.09	0.814
811.27	0.837
811.44	0.845
811.62	0.848
811.80	0.826
811.97	0.790
812.15	0.792
812.33	0.787
812.50	0.770
812.68	0.759
812.85	0.700
813.03	0.702
813.21	0.666
813.38	0.660
813.56	0.665
813.74	0.676
813.91	0.682
814.09	0.716
814.26	0.709
814.44	0.712
814.62	0.700
814.79	0.702
814.97	0.709
815.14	0.716
815.32	0.720
815.50	0.738
815.67	0.743
815.85	0.735
816.02	0.722
816.20	0.731
816.38	0.751
816.55	0.755
816.73	0.752
816.90	0.764
817.08	0.796
817.26	0.804
817.43	0.781
817.61	0.808
817.78	0.833
817.96	0.811
818.13	0.800
818.31	0.799
818.49	0.816
818.66	0.806
818.84	0.789
819.01	0.767
819.19	0.773
819.36	0.775
819.54	0.741
819.71	0.786
819.89	0.801
820.07	0.810
820.24	0.804
820.42	0.806
820.59	0.831
820.77	0.861
820.94	0.849
821.12	0.870
821.29	0.891
821.47	0.893
821.64	0.817
821.82	0.831
822.00	0.836
822.17	0.829
822.35	0.817
822.52	0.821
822.70	0.807
822.87	0.818
823.05	0.793
823.22	0.807
823.40	0.841
823.57	0.868
823.75	0.845
823.92	0.874
824.10	0.902
824.27	0.955
824.45	0.936
824.62	1.017
824.80	1.040
824.97	1.057
825.15	1.037
825.32	1.055
825.50	1.062
825.67	1.076
825.85	1.038
826.02	1.068
826.20	1.108
826.37	1.301
826.55	1.171
826.72	1.489
826.90	1.703
827.07	1.902
827.25	1.700
827.42	2.684
827.60	-0.000
827.77	-0.000
827.95	-0.000
828.12	-0.000
828.30	-0.000
828.47	-0.000
828.65	1.754
828.82	2.054
829.00	-0.000
829.17	-0.000
829.34	-0.000
829.52	-0.000
829.69	-0.000
829.87	-0.000
830.04	-0.000
830.22	-0.000
830.39	-0.000
830.57	-0.000
830.74	-0.000
830.92	-0.000
831.09	-0.000
831.26	-0.000
831.44	-0.000
831.61	-0.000
831.79	-0.000
831.96	-0.000
832.14	-0.000
832.31	-0.000
832.49	-0.000
832.66	-0.000
832.83	-0.000
833.01	-0.000
833.18	-0.000
833.36	-0.000
833.53	-0.000
833.70	-0.000
833.88	-0.000
834.05	-0.000
834.23	-0.000
834.40	-0.000
834.58	-0.000
834.75	-0.000
834.92	-0.000
835.10	-0.000
835.27	-0.000
835.45	-0.000
835.62	-0.000
835.79	-0.000
835.97	-0.000
836.14	-0.000
836.32	-0.000
836.49	-0.000
836.66	-0.000
836.84	-0.000
837.01	-0.000
837.18	-0.000
837.36	-0.000
837.53	-0.000
837.71	-0.000
837.88	-0.000
838.05	-0.000
838.23	-0.000
838.40	-0.000
838.58	-0.000
838.75	-0.000
838.92	-0.000
839.10	-0.000
839.27	-0.000
839.44	-0.000
839.62	-0.000
839.79	-0.000
839.96	-0.000
840.14	-0.000
840.31	-0.000
840.48	-0.000
840.66	-0.000
840.83	-0.000
841.01	-0.000
841.18	-0.000
841.35	-0.000
841.53	-0.000
841.70	-0.000
841.87	-0.000
842.05	-0.000
842.22	-0.000
842.39	-0.000
842.57	-0.000
842.74	-0.000
842.91	-0.000
843.09	-0.000
843.26	-0.000
843.43	-0.000
843.60	-0.000
843.78	-0.000
843.95	-0.000
844.12	-0.000
844.30	-0.000
844.47	-0.000
844.64	-0.000
844.82	-0.000
844.99	-0.000
845.16	-0.000
845.34	-0.000
845.51	-0.000
845.68	-0.000
845.85	-0.000
846.03	-0.000
846.20	-0.000
846.37	-0.000
846.55	-0.000
846.72	-0.000
846.89	-0.000
847.06	-0.000
847.24	-0.000
847.41	-0.000
847.58	-0.000
847.76	-0.000
847.93	-0.000
848.10	-0.000
848.27	-0.000
848.45	-0.000
848.62	-0.000
848.79	-0.000
848.97	-0.000
849.14	-0.000
849.31	-0.000
849.48	-0.000
849.66	-0.000
849.83	-0.000
850.00	-0.000
850.17	-0.000
850.35	-0.000
850.52	-0.000
850.69	-0.000
850.86	-0.000
851.04	-0.000
851.21	-0.000
851.38	-0.000
851.55	-0.000
851.72	-0.000
851.90	-0.000
852.07	-0.000
852.24	-0.000
852.41	-0.000
852.59	-0.000
852.76	-0.000
852.93	-0.000
853.10	-0.000
853.28	-0.000
853.45	-0.000
853.62	-0.000
853.79	-0.000
853.96	-0.000
854.14	-0.000
854.31	-0.000
854.48	-0.000
854.65	-0.000
854.82	-0.000
855.00	-0.000
855.17	-0.000
855.34	-0.000
855.51	-0.000
855.68	-0.000
855.86	-0.000
856.03	-0.000
856.20	-0.000
856.37	-0.000
856.54	-0.000
856.72	-0.000
856.89	-0.000
857.06	-0.000
857.23	-0.000
857.40	-0.000
857.57	-0.000
857.75	-0.000
857.92	-0.000
858.09	-0.000
858.26	-0.000
858.43	-0.000
858.60	-0.000
858.78	-0.000
858.95	-0.000
859.12	-0.000
859.29	-0.000
859.46	-0.000
859.63	-0.000
859.81	-0.000
859.98	-0.000
860.15	-0.000
860.32	-0.000
860.49	-0.000
860.66	-0.000
860.83	-0.000
861.01	-0.000
861.18	-0.000
861.35	-0.000
861.52	-0.000
861.69	-0.000
861.86	-0.000
862.03	-0.000
862.21	-0.000
862.38	-0.000
862.55	-0.000
862.72	-0.000
862.89	-0.000
863.06	-0.000
863.23	-0.000
863.40	-0.000
863.58	-0.000
863.75	-0.000
863.92	-0.000
864.09	-0.000
864.26	-0.000
864.43	-0.000
864.60	-0.000
864.77	-0.000
864.94	-0.000
865.11	-0.000
865.29	-0.000
865.46	-0.000
865.63	-0.000
865.80	-0.000
865.97	-0.000
866.14	-0.000
866.31	-0.000
866.48	-0.000
866.65	-0.000
866.82	-0.000
866.99	-0.000
867.16	-0.000
867.34	-0.000
867.51	-0.000
867.68	-0.000
867.85	-0.000
868.02	-0.000
868.19	-0.000
868.36	-0.000
868.53	-0.000
868.70	-0.000
868.87	-0.000
869.04	-0.000
869.21	-0.000
869.38	-0.000
869.55	-0.000
869.72	-0.000
869.89	-0.000
870.06	-0.000
870.24	-0.000
870.41	-0.000
870.58	-0.000
870.75	-0.000
870.92	-0.000
871.09	-0.000
871.26	-0.000
871.43	-0.000
871.60	-0.000
871.77	-0.000
871.94	-0.000
872.11	-0.000
872.28	-0.000
872.45	-0.000
872.62	-0.000
872.79	-0.000
872.96	-0.000
873.13	-0.000
873.30	-0.000
873.47	-0.000
873.64	-0.000
873.81	-0.000
873.98	-0.000
874.15	-0.000
874.32	-0.000
874.49	-0.000
874.66	-0.000
874.83	-0.000
875.00	-0.000
875.17	-0.000
875.34	-0.000
875.51	-0.000
875.68	-0.000
875.85	-0.000
876.02	-0.000
876.19	-0.000
876.36	-0.000
876.53	-0.000
876.70	-0.000
876.87	-0.000
877.04	-0.000
877.21	-0.000
877.38	-0.000
877.55	-0.000
877.72	-0.000
877.89	-0.000
878.06	-0.000
878.23	-0.000
878.39	-0.000
878.56	-0.000
878.73	-0.000
878.90	-0.000
879.07	-0.000
879.24	-0.000
879.41	-0.000
879.58	-0.000
879.75	-0.000
879.92	-0.000
880.09	-0.000
880.26	-0.000
880.43	-0.000
880.60	-0.000
880.77	-0.000
880.94	-0.000
881.11	-0.000
881.27	-0.000
881.44	-0.000
881.61	-0.000
881.78	-0.000
881.95	-0.000
882.12	-0.000
882.29	-0.000
882.46	-0.000
882.63	-0.000
882.80	-0.000
882.97	-0.000
883.14	-0.000
883.30	-0.000
883.47	-0.000
883.64	-0.000
883.81	-0.000
883.98	-0.000
884.15	-0.000
884.32	-0.000
884.49	-0.000
884.66	-0.000
884.82	-0.000
884.99	-0.000
885.16	-0.000
885.33	-0.000
885.50	-0.000
885.67	-0.000
885.84	-0.000
886.01	-0.000
886.17	-0.000
886.34	-0.000
886.51	-0.000
886.68	-0.000
886.85	-0.000
887.02	-0.000
887.19	-0.000
887.36	-0.000
887.52	-0.000
887.69	-0.000
887.86	-0.000
888.03	-0.000
888.20	-0.000
888.37	-0.000
888.54	-0.000
888.70	-0.000
888.87	-0.000
889.04	-0.000
889.21	-0.000
889.38	-0.000
889.55	-0.000
889.71	-0.000
889.88	-0.000
890.05	-0.000
890.22	-0.000
890.39	-0.000
>>>>>End Processed Spectral Data<<<<<
