SpectraSuite Data File
++++++++++++++++++++++++++++++++++++
Date: Fri Jun 19 13:03:50 CEST 2015
User: introlabs
Dark Spectrum Present: Yes
Reference Spectrum Present: Yes
Number of Sampled Component Spectra: 1
Spectrometers: USB4H08886
Integration Time (usec): 745692 (USB4H08886)
Spectra Averaged: 5 (USB4H08886)
Boxcar Smoothing: 5 (USB4H08886)
Correct for Electrical Dark: Yes (USB4H08886)
Strobe/Lamp Enabled: No (USB4H08886)
Correct for Detector Non-linearity: Yes (USB4H08886)
Correct for Stray Light: Yes (USB4H08886)
Number of Pixels in Processed Spectrum: 3648
>>>>>Begin Processed Spectral Data<<<<<
178.14	-0.000
178.36	-0.000
178.57	-0.000
178.79	-0.000
179.01	-0.000
179.22	-0.000
179.44	-0.000
179.65	-0.000
179.87	-0.000
180.08	-0.000
180.30	-0.000
180.52	-0.000
180.73	-0.000
180.95	-0.000
181.16	-0.000
181.38	-0.000
181.59	-0.000
181.81	-0.000
182.03	-0.000
182.24	-0.000
182.46	-0.000
182.67	-0.000
182.89	-0.000
183.10	-0.000
183.32	-0.000
183.54	-0.000
183.75	-0.000
183.97	-0.000
184.18	-0.000
184.40	-0.000
184.61	-0.000
184.83	-0.000
185.04	-0.000
185.26	-0.000
185.48	-0.000
185.69	-0.000
185.91	-0.000
186.12	-0.000
186.34	-0.000
186.55	-0.000
186.77	-0.000
186.98	-0.000
187.20	-0.000
187.42	-0.000
187.63	-0.000
187.85	-0.000
188.06	-0.000
188.28	-0.000
188.49	-0.000
188.71	-0.000
188.92	-0.000
189.14	-0.000
189.36	-0.000
189.57	-0.000
189.79	-0.000
190.00	-0.000
190.22	-0.000
190.43	-0.000
190.65	-0.000
190.86	-0.000
191.08	-0.000
191.29	-0.000
191.51	-0.000
191.72	-0.000
191.94	-0.000
192.16	-0.000
192.37	-0.000
192.59	-0.000
192.80	-0.000
193.02	-0.000
193.23	-0.000
193.45	-0.000
193.66	-0.000
193.88	-0.000
194.09	-0.000
194.31	-0.000
194.52	-0.000
194.74	-0.000
194.95	-0.000
195.17	-0.000
195.38	-0.000
195.60	-0.000
195.81	-0.000
196.03	-0.000
196.25	-0.000
196.46	-0.000
196.68	-0.000
196.89	-0.000
197.11	-0.000
197.32	-0.000
197.54	-0.000
197.75	-0.000
197.97	-0.000
198.18	-0.000
198.40	-0.000
198.61	-0.000
198.83	-0.000
199.04	-0.000
199.26	-0.000
199.47	-0.000
199.69	-0.000
199.90	-0.000
200.12	-0.000
200.33	-0.000
200.55	-0.000
200.76	-0.000
200.98	-0.000
201.19	-0.000
201.41	-0.000
201.62	-0.000
201.84	-0.000
202.05	-0.000
202.27	-0.000
202.48	-0.000
202.70	-0.000
202.91	-0.000
203.13	-0.000
203.34	-0.000
203.56	-0.000
203.77	-0.000
203.99	-0.000
204.20	-0.000
204.42	-0.000
204.63	-0.000
204.85	-0.000
205.06	-0.000
205.28	-0.000
205.49	-0.000
205.71	-0.000
205.92	-0.000
206.14	-0.000
206.35	-0.000
206.56	-0.000
206.78	-0.000
206.99	-0.000
207.21	-0.000
207.42	-0.000
207.64	-0.000
207.85	-0.000
208.07	-0.000
208.28	-0.000
208.50	-0.000
208.71	-0.000
208.93	-0.000
209.14	-0.000
209.36	-0.000
209.57	-0.000
209.79	-0.000
210.00	-0.000
210.22	-0.000
210.43	-0.000
210.64	-0.000
210.86	-0.000
211.07	-0.000
211.29	-0.000
211.50	-0.000
211.72	-0.000
211.93	-0.000
212.15	-0.000
212.36	-0.000
212.58	-0.000
212.79	-0.000
213.01	-0.000
213.22	-0.000
213.43	-0.000
213.65	-0.000
213.86	-0.000
214.08	-0.000
214.29	-0.000
214.51	-0.000
214.72	-0.000
214.94	-0.000
215.15	-0.000
215.36	-0.000
215.58	-0.000
215.79	-0.000
216.01	-0.000
216.22	-0.000
216.44	-0.000
216.65	-0.000
216.87	-0.000
217.08	-0.000
217.29	-0.000
217.51	-0.000
217.72	-0.000
217.94	-0.000
218.15	-0.000
218.37	-0.000
218.58	-0.000
218.80	-0.000
219.01	-0.000
219.22	-0.000
219.44	-0.000
219.65	-0.000
219.87	-0.000
220.08	-0.000
220.30	-0.000
220.51	-0.000
220.72	-0.000
220.94	-0.000
221.15	-0.000
221.37	-0.000
221.58	-0.000
221.79	-0.000
222.01	-0.000
222.22	-0.000
222.44	-0.000
222.65	-0.000
222.87	-0.000
223.08	-0.000
223.29	-0.000
223.51	-0.000
223.72	-0.000
223.94	-0.000
224.15	-0.000
224.36	-0.000
224.58	-0.000
224.79	-0.000
225.01	-0.000
225.22	-0.000
225.44	-0.000
225.65	-0.000
225.86	-0.000
226.08	-0.000
226.29	-0.000
226.51	-0.000
226.72	-0.000
226.93	-0.000
227.15	-0.000
227.36	-0.000
227.58	-0.000
227.79	-0.000
228.00	-0.000
228.22	-0.000
228.43	-0.000
228.65	-0.000
228.86	-0.000
229.07	-0.000
229.29	-0.000
229.50	-0.000
229.72	-0.000
229.93	-0.000
230.14	-0.000
230.36	-0.000
230.57	-0.000
230.78	-0.000
231.00	-0.000
231.21	-0.000
231.43	-0.000
231.64	-0.000
231.85	-0.000
232.07	-0.000
232.28	-0.000
232.50	-0.000
232.71	-0.000
232.92	-0.000
233.14	-0.000
233.35	-0.000
233.56	-0.000
233.78	-0.000
233.99	-0.000
234.21	-0.000
234.42	-0.000
234.63	-0.000
234.85	-0.000
235.06	-0.000
235.27	-0.000
235.49	-0.000
235.70	-0.000
235.91	-0.000
236.13	-0.000
236.34	-0.000
236.56	-0.000
236.77	-0.000
236.98	-0.000
237.20	-0.000
237.41	-0.000
237.62	-0.000
237.84	-0.000
238.05	-0.000
238.26	-0.000
238.48	-0.000
238.69	-0.000
238.91	-0.000
239.12	-0.000
239.33	-0.000
239.55	-0.000
239.76	-0.000
239.97	-0.000
240.19	-0.000
240.40	-0.000
240.61	-0.000
240.83	-0.000
241.04	-0.000
241.25	-0.000
241.47	-0.000
241.68	-0.000
241.89	-0.000
242.11	-0.000
242.32	-0.000
242.53	-0.000
242.75	-0.000
242.96	-0.000
243.17	-0.000
243.39	-0.000
243.60	-0.000
243.81	-0.000
244.03	-0.000
244.24	-0.000
244.45	-0.000
244.67	-0.000
244.88	-0.000
245.09	-0.000
245.31	-0.000
245.52	-0.000
245.73	-0.000
245.95	-0.000
246.16	-0.000
246.37	-0.000
246.59	-0.000
246.80	-0.000
247.01	-0.000
247.23	-0.000
247.44	-0.000
247.65	-0.000
247.87	-0.000
248.08	-0.000
248.29	-0.000
248.51	-0.000
248.72	-0.000
248.93	-0.000
249.15	-0.000
249.36	-0.000
249.57	-0.000
249.78	-0.000
250.00	-0.000
250.21	-0.000
250.42	-0.000
250.64	-0.000
250.85	-0.000
251.06	-0.000
251.28	-0.000
251.49	-0.000
251.70	-0.000
251.92	-0.000
252.13	-0.000
252.34	-0.000
252.55	-0.000
252.77	-0.000
252.98	-0.000
253.19	-0.000
253.41	-0.000
253.62	-0.000
253.83	-0.000
254.05	-0.000
254.26	-0.000
254.47	-0.000
254.68	-0.000
254.90	-0.000
255.11	-0.000
255.32	-0.000
255.54	-0.000
255.75	-0.000
255.96	-0.000
256.17	-0.000
256.39	-0.000
256.60	-0.000
256.81	-0.000
257.03	-0.000
257.24	-0.000
257.45	-0.000
257.66	-0.000
257.88	-0.000
258.09	-0.000
258.30	-0.000
258.51	-0.000
258.73	-0.000
258.94	-0.000
259.15	-0.000
259.37	-0.000
259.58	-0.000
259.79	-0.000
260.00	-0.000
260.22	-0.000
260.43	-0.000
260.64	-0.000
260.85	-0.000
261.07	-0.000
261.28	-0.000
261.49	-0.000
261.71	-0.000
261.92	-0.000
262.13	-0.000
262.34	-0.000
262.56	-0.000
262.77	-0.000
262.98	-0.000
263.19	-0.000
263.41	-0.000
263.62	-0.000
263.83	-0.000
264.04	-0.000
264.26	-0.000
264.47	-0.000
264.68	-0.000
264.89	-0.000
265.11	-0.000
265.32	-0.000
265.53	-0.000
265.74	-0.000
265.96	-0.000
266.17	-0.000
266.38	-0.000
266.59	-0.000
266.81	-0.000
267.02	-0.000
267.23	-0.000
267.44	-0.000
267.65	-0.000
267.87	-0.000
268.08	-0.000
268.29	-0.000
268.50	-0.000
268.72	-0.000
268.93	-0.000
269.14	-0.000
269.35	-0.000
269.57	-0.000
269.78	-0.000
269.99	-0.000
270.20	-0.000
270.41	-0.000
270.63	-0.000
270.84	-0.000
271.05	-0.000
271.26	-0.000
271.48	-0.000
271.69	-0.000
271.90	-0.000
272.11	-0.000
272.32	-0.000
272.54	-0.000
272.75	-0.000
272.96	-0.000
273.17	-0.000
273.39	-0.000
273.60	-0.000
273.81	-0.000
274.02	-0.000
274.23	-0.000
274.45	-0.000
274.66	-0.000
274.87	-0.000
275.08	-0.000
275.29	-0.000
275.51	-0.000
275.72	-0.000
275.93	-0.000
276.14	-0.000
276.35	-0.000
276.57	-0.000
276.78	-0.000
276.99	-0.000
277.20	-0.000
277.41	-0.000
277.63	-0.000
277.84	-0.000
278.05	-0.000
278.26	-0.000
278.47	-0.000
278.69	-0.000
278.90	-0.000
279.11	-0.000
279.32	-0.000
279.53	-0.000
279.74	-0.000
279.96	-0.000
280.17	-0.000
280.38	-0.000
280.59	-0.000
280.80	-0.000
281.02	-0.000
281.23	-0.000
281.44	-0.000
281.65	-0.000
281.86	-0.000
282.07	-0.000
282.29	-0.000
282.50	-0.000
282.71	-0.000
282.92	-0.000
283.13	-0.000
283.35	-0.000
283.56	-0.000
283.77	-0.000
283.98	-0.000
284.19	-0.000
284.40	-0.000
284.62	-0.000
284.83	-0.000
285.04	-0.000
285.25	-0.000
285.46	-0.000
285.67	-0.000
285.88	-0.000
286.10	-0.000
286.31	-0.000
286.52	-0.000
286.73	-0.000
286.94	-0.000
287.15	-0.000
287.37	-0.000
287.58	-0.000
287.79	-0.000
288.00	-0.000
288.21	-0.000
288.42	-0.000
288.63	-0.000
288.85	-0.000
289.06	-0.000
289.27	-0.000
289.48	-0.000
289.69	-0.000
289.90	-0.000
290.11	-0.000
290.33	-0.000
290.54	-0.000
290.75	-0.000
290.96	-0.000
291.17	-0.000
291.38	-0.000
291.59	-0.000
291.81	-0.000
292.02	-0.000
292.23	-0.000
292.44	-0.000
292.65	-0.000
292.86	-0.000
293.07	-0.000
293.28	-0.000
293.50	-0.000
293.71	-0.000
293.92	-0.000
294.13	-0.000
294.34	-0.000
294.55	-0.000
294.76	-0.000
294.97	-0.000
295.19	-0.000
295.40	-0.000
295.61	-0.000
295.82	-0.000
296.03	-0.000
296.24	-0.000
296.45	-0.000
296.66	-0.000
296.87	-0.000
297.09	-0.000
297.30	-0.000
297.51	2.829
297.72	2.466
297.93	-0.000
298.14	3.151
298.35	2.513
298.56	2.362
298.77	-0.000
298.99	-0.000
299.20	3.053
299.41	2.634
299.62	2.415
299.83	2.379
300.04	2.055
300.25	2.038
300.46	2.227
300.67	2.113
300.88	1.940
301.10	1.921
301.31	2.132
301.52	1.940
301.73	1.806
301.94	1.798
302.15	1.830
302.36	1.741
302.57	1.620
302.78	1.625
302.99	1.707
303.20	1.737
303.41	1.584
303.63	1.563
303.84	1.576
304.05	1.564
304.26	1.472
304.47	1.481
304.68	1.490
304.89	1.472
305.10	1.406
305.31	1.387
305.52	1.442
305.73	1.432
305.94	1.370
306.15	1.362
306.37	1.394
306.58	1.402
306.79	1.354
307.00	1.380
307.21	1.435
307.42	1.427
307.63	1.375
307.84	1.335
308.05	1.383
308.26	1.384
308.47	1.348
308.68	1.341
308.89	1.345
309.10	1.339
309.31	1.286
309.52	1.276
309.73	1.297
309.95	1.287
310.16	1.250
310.37	1.239
310.58	1.258
310.79	1.257
311.00	1.249
311.21	1.252
311.42	1.259
311.63	1.252
311.84	1.227
312.05	1.222
312.26	1.253
312.47	1.263
312.68	1.231
312.89	1.213
313.10	1.224
313.31	1.193
313.52	1.190
313.73	1.191
313.94	1.195
314.15	1.176
314.36	1.149
314.57	1.136
314.78	1.124
314.99	1.116
315.21	1.100
315.42	1.105
315.63	1.120
315.84	1.096
316.05	1.080
316.26	1.090
316.47	1.109
316.68	1.106
316.89	1.085
317.10	1.107
317.31	1.116
317.52	1.119
317.73	1.093
317.94	1.092
318.15	1.152
318.36	1.150
318.57	1.126
318.78	1.111
318.99	1.155
319.20	1.153
319.41	1.115
319.62	1.115
319.83	1.132
320.04	1.124
320.25	1.109
320.46	1.059
320.67	1.063
320.88	1.060
321.09	1.045
321.30	1.027
321.51	1.042
321.72	1.040
321.93	1.022
322.14	1.013
322.35	1.045
322.56	1.046
322.77	1.032
322.98	1.044
323.19	1.053
323.40	1.059
323.61	1.036
323.82	1.030
324.03	1.037
324.24	1.034
324.45	1.017
324.66	0.996
324.87	0.993
325.08	0.993
325.29	0.970
325.50	0.964
325.71	0.971
325.92	0.977
326.13	0.962
326.34	0.962
326.55	0.974
326.76	0.972
326.97	0.960
327.18	0.954
327.39	0.981
327.60	0.983
327.80	0.981
328.01	0.979
328.22	0.981
328.43	0.984
328.64	0.971
328.85	0.972
329.06	0.977
329.27	0.976
329.48	0.971
329.69	0.951
329.90	0.961
330.11	0.954
330.32	0.944
330.53	0.935
330.74	0.937
330.95	0.935
331.16	0.920
331.37	0.926
331.58	0.928
331.79	0.927
332.00	0.916
332.21	0.909
332.42	0.915
332.63	0.907
332.83	0.903
333.04	0.904
333.25	0.917
333.46	0.916
333.67	0.902
333.88	0.903
334.09	0.913
334.30	0.910
334.51	0.900
334.72	0.894
334.93	0.898
335.14	0.896
335.35	0.889
335.56	0.884
335.77	0.893
335.98	0.891
336.18	0.883
336.39	0.877
336.60	0.881
336.81	0.880
337.02	0.878
337.23	0.882
337.44	0.887
337.65	0.888
337.86	0.877
338.07	0.871
338.28	0.877
338.49	0.875
338.70	0.867
338.91	0.875
339.11	0.882
339.32	0.879
339.53	0.866
339.74	0.862
339.95	0.860
340.16	0.858
340.37	0.850
340.58	0.848
340.79	0.853
341.00	0.853
341.21	0.841
341.41	0.841
341.62	0.842
341.83	0.842
342.04	0.837
342.25	0.848
342.46	0.854
342.67	0.852
342.88	0.844
343.09	0.843
343.30	0.851
343.50	0.853
343.71	0.842
343.92	0.842
344.13	0.848
344.34	0.847
344.55	0.829
344.76	0.829
344.97	0.834
345.18	0.834
345.38	0.831
345.59	0.825
345.80	0.826
346.01	0.825
346.22	0.819
346.43	0.813
346.64	0.822
346.85	0.822
347.06	0.814
347.26	0.814
347.47	0.818
347.68	0.813
347.89	0.808
348.10	0.804
348.31	0.811
348.52	0.811
348.73	0.808
348.93	0.804
349.14	0.806
349.35	0.806
349.56	0.799
349.77	0.794
349.98	0.801
350.19	0.798
350.39	0.792
350.60	0.788
350.81	0.805
351.02	0.804
351.23	0.799
351.44	0.801
351.65	0.804
351.86	0.801
352.06	0.799
352.27	0.799
352.48	0.801
352.69	0.799
352.90	0.793
353.11	0.778
353.31	0.785
353.52	0.780
353.73	0.771
353.94	0.773
354.15	0.780
354.36	0.780
354.57	0.771
354.77	0.774
354.98	0.775
355.19	0.774
355.40	0.773
355.61	0.780
355.82	0.785
356.02	0.784
356.23	0.777
356.44	0.779
356.65	0.783
356.86	0.784
357.07	0.777
357.27	0.781
357.48	0.784
357.69	0.778
357.90	0.763
358.11	0.760
358.32	0.765
358.52	0.767
358.73	0.756
358.94	0.758
359.15	0.763
359.36	0.764
359.56	0.758
359.77	0.755
359.98	0.763
360.19	0.763
360.40	0.759
360.61	0.759
360.81	0.758
361.02	0.759
361.23	0.750
361.44	0.749
361.65	0.750
361.85	0.750
362.06	0.747
362.27	0.749
362.48	0.749
362.69	0.752
362.89	0.745
363.10	0.747
363.31	0.752
363.52	0.756
363.73	0.751
363.93	0.751
364.14	0.754
364.35	0.756
364.56	0.746
364.77	0.748
364.97	0.750
365.18	0.752
365.39	0.745
365.60	0.742
365.81	0.742
366.01	0.741
366.22	0.739
366.43	0.738
366.64	0.740
366.84	0.745
367.05	0.741
367.26	0.740
367.47	0.743
367.68	0.743
367.88	0.740
368.09	0.738
368.30	0.740
368.51	0.739
368.71	0.739
368.92	0.742
369.13	0.741
369.34	0.740
369.55	0.739
369.75	0.739
369.96	0.747
370.17	0.747
370.38	0.743
370.58	0.743
370.79	0.749
371.00	0.748
371.21	0.739
371.41	0.744
371.62	0.749
371.83	0.743
372.04	0.740
372.24	0.733
372.45	0.735
372.66	0.735
372.87	0.731
373.07	0.727
373.28	0.728
373.49	0.732
373.70	0.722
373.90	0.721
374.11	0.732
374.32	0.731
374.53	0.729
374.73	0.730
374.94	0.733
375.15	0.733
375.36	0.730
375.56	0.739
375.77	0.740
375.98	0.740
376.19	0.736
376.39	0.729
376.60	0.734
376.81	0.734
377.02	0.730
377.22	0.729
377.43	0.728
377.64	0.729
377.84	0.719
378.05	0.723
378.26	0.729
378.47	0.729
378.67	0.725
378.88	0.723
379.09	0.723
379.30	0.723
379.50	0.720
379.71	0.723
379.92	0.726
380.12	0.725
380.33	0.716
380.54	0.713
380.75	0.720
380.95	0.719
381.16	0.717
381.37	0.717
381.57	0.719
381.78	0.720
381.99	0.719
382.20	0.718
382.40	0.722
382.61	0.722
382.82	0.718
383.02	0.710
383.23	0.715
383.44	0.714
383.64	0.712
383.85	0.715
384.06	0.718
384.27	0.715
384.47	0.712
384.68	0.713
384.89	0.719
385.09	0.719
385.30	0.718
385.51	0.716
385.71	0.720
385.92	0.721
386.13	0.718
386.33	0.720
386.54	0.721
386.75	0.720
386.95	0.715
387.16	0.709
387.37	0.712
387.58	0.712
387.78	0.710
387.99	0.707
388.20	0.709
388.40	0.707
388.61	0.703
388.82	0.706
389.02	0.708
389.23	0.708
389.44	0.707
389.64	0.707
389.85	0.718
390.06	0.718
390.26	0.718
390.47	0.717
390.68	0.720
390.88	0.717
391.09	0.712
391.30	0.712
391.50	0.712
391.71	0.711
391.92	0.707
392.12	0.700
392.33	0.700
392.53	0.700
392.74	0.700
392.95	0.699
393.15	0.703
393.36	0.704
393.57	0.702
393.77	0.705
393.98	0.708
394.19	0.707
394.39	0.706
394.60	0.708
394.81	0.709
395.01	0.707
395.22	0.704
395.43	0.705
395.63	0.710
395.84	0.712
396.04	0.707
396.25	0.708
396.46	0.710
396.66	0.708
396.87	0.705
397.08	0.702
397.28	0.704
397.49	0.705
397.69	0.701
397.90	0.695
398.11	0.696
398.31	0.697
398.52	0.693
398.73	0.693
398.93	0.693
399.14	0.692
399.34	0.690
399.55	0.691
399.76	0.691
399.96	0.692
400.17	0.691
400.37	0.689
400.58	0.696
400.79	0.698
400.99	0.696
401.20	0.702
401.41	0.704
401.61	0.705
401.82	0.709
402.02	0.709
402.23	0.709
402.44	0.709
402.64	0.708
402.85	0.702
403.05	0.702
403.26	0.700
403.47	0.694
403.67	0.693
403.88	0.693
404.08	0.688
404.29	0.686
404.50	0.686
404.70	0.687
404.91	0.686
405.11	0.682
405.32	0.683
405.52	0.683
405.73	0.683
405.94	0.680
406.14	0.683
406.35	0.686
406.55	0.686
406.76	0.683
406.97	0.684
407.17	0.687
407.38	0.687
407.58	0.684
407.79	0.687
407.99	0.690
408.20	0.691
408.41	0.686
408.61	0.684
408.82	0.685
409.02	0.685
409.23	0.683
409.43	0.681
409.64	0.682
409.84	0.682
410.05	0.678
410.26	0.676
410.46	0.675
410.67	0.675
410.87	0.676
411.08	0.678
411.28	0.679
411.49	0.681
411.69	0.679
411.90	0.681
412.11	0.683
412.31	0.684
412.52	0.682
412.72	0.683
412.93	0.685
413.13	0.684
413.34	0.680
413.54	0.681
413.75	0.683
413.95	0.682
414.16	0.678
414.37	0.681
414.57	0.681
414.78	0.684
414.98	0.681
415.19	0.682
415.39	0.680
415.60	0.683
415.80	0.682
416.01	0.680
416.21	0.682
416.42	0.683
416.62	0.677
416.83	0.678
417.03	0.677
417.24	0.678
417.44	0.675
417.65	0.674
417.86	0.675
418.06	0.673
418.27	0.671
418.47	0.672
418.68	0.673
418.88	0.674
419.09	0.672
419.29	0.672
419.50	0.673
419.70	0.673
419.91	0.671
420.11	0.668
420.32	0.671
420.52	0.670
420.73	0.669
420.93	0.670
421.14	0.672
421.34	0.671
421.55	0.667
421.75	0.667
421.96	0.669
422.16	0.669
422.37	0.668
422.57	0.666
422.78	0.667
422.98	0.664
423.19	0.662
423.39	0.660
423.60	0.664
423.80	0.666
424.01	0.664
424.21	0.666
424.42	0.668
424.62	0.668
424.83	0.666
425.03	0.667
425.23	0.669
425.44	0.669
425.64	0.669
425.85	0.668
426.05	0.669
426.26	0.670
426.46	0.666
426.67	0.665
426.87	0.670
427.08	0.671
427.28	0.668
427.49	0.669
427.69	0.670
427.90	0.669
428.10	0.666
428.31	0.666
428.51	0.667
428.71	0.667
428.92	0.667
429.12	0.665
429.33	0.666
429.53	0.670
429.74	0.674
429.94	0.674
430.15	0.674
430.35	0.674
430.56	0.671
430.76	0.670
430.96	0.672
431.17	0.670
431.37	0.666
431.58	0.665
431.78	0.661
431.99	0.655
432.19	0.657
432.40	0.658
432.60	0.660
432.80	0.662
433.01	0.660
433.21	0.661
433.42	0.663
433.62	0.664
433.83	0.663
434.03	0.666
434.23	0.669
434.44	0.668
434.64	0.665
434.85	0.670
435.05	0.672
435.26	0.672
435.46	0.669
435.66	0.669
435.87	0.670
436.07	0.670
436.28	0.666
436.48	0.663
436.69	0.663
436.89	0.663
437.09	0.657
437.30	0.655
437.50	0.656
437.71	0.668
437.91	0.667
438.11	0.668
438.32	0.672
438.52	0.673
438.73	0.672
438.93	0.670
439.13	0.670
439.34	0.674
439.54	0.672
439.75	0.671
439.95	0.661
440.15	0.666
440.36	0.664
440.56	0.661
440.77	0.662
440.97	0.662
441.17	0.661
441.38	0.662
441.58	0.660
441.79	0.660
441.99	0.658
442.19	0.658
442.40	0.656
442.60	0.656
442.81	0.654
443.01	0.655
443.21	0.656
443.42	0.655
443.62	0.654
443.82	0.653
444.03	0.655
444.23	0.656
444.44	0.655
444.64	0.654
444.84	0.655
445.05	0.655
445.25	0.652
445.45	0.652
445.66	0.655
445.86	0.654
446.06	0.655
446.27	0.654
446.47	0.658
446.68	0.656
446.88	0.655
447.08	0.654
447.29	0.657
447.49	0.657
447.69	0.656
447.90	0.655
448.10	0.660
448.30	0.658
448.51	0.659
448.71	0.656
448.91	0.659
449.12	0.658
449.32	0.659
449.52	0.658
449.73	0.661
449.93	0.661
450.14	0.661
450.34	0.660
450.54	0.663
450.75	0.659
450.95	0.659
451.15	0.658
451.36	0.661
451.56	0.658
451.76	0.657
451.97	0.654
452.17	0.656
452.37	0.654
452.58	0.650
452.78	0.651
452.98	0.654
453.19	0.653
453.39	0.654
453.59	0.653
453.79	0.654
454.00	0.655
454.20	0.654
454.40	0.654
454.61	0.657
454.81	0.657
455.01	0.656
455.22	0.656
455.42	0.658
455.62	0.656
455.83	0.655
456.03	0.658
456.23	0.660
456.44	0.661
456.64	0.659
456.84	0.659
457.04	0.660
457.25	0.659
457.45	0.656
457.65	0.655
457.86	0.656
458.06	0.654
458.26	0.649
458.47	0.648
458.67	0.650
458.87	0.650
459.07	0.647
459.28	0.650
459.48	0.653
459.68	0.653
459.89	0.652
460.09	0.651
460.29	0.652
460.49	0.654
460.70	0.653
460.90	0.652
461.10	0.653
461.31	0.653
461.51	0.650
461.71	0.652
461.91	0.653
462.12	0.652
462.32	0.651
462.52	0.652
462.72	0.655
462.93	0.656
463.13	0.654
463.33	0.655
463.53	0.657
463.74	0.656
463.94	0.651
464.14	0.652
464.35	0.654
464.55	0.655
464.75	0.653
464.95	0.650
465.16	0.652
465.36	0.651
465.56	0.650
465.76	0.649
465.97	0.650
466.17	0.651
466.37	0.648
466.57	0.649
466.78	0.651
466.98	0.651
467.18	0.649
467.38	0.648
467.59	0.650
467.79	0.651
467.99	0.650
468.19	0.651
468.39	0.654
468.60	0.655
468.80	0.652
469.00	0.654
469.20	0.654
469.41	0.654
469.61	0.654
469.81	0.654
470.01	0.654
470.22	0.654
470.42	0.652
470.62	0.649
470.82	0.651
471.02	0.651
471.23	0.648
471.43	0.649
471.63	0.652
471.83	0.650
472.04	0.649
472.24	0.648
472.44	0.653
472.64	0.653
472.84	0.651
473.05	0.651
473.25	0.654
473.45	0.653
473.65	0.651
473.85	0.652
474.06	0.654
474.26	0.653
474.46	0.654
474.66	0.651
474.86	0.652
475.07	0.652
475.27	0.650
475.47	0.647
475.67	0.648
475.87	0.650
476.08	0.646
476.28	0.647
476.48	0.649
476.68	0.647
476.88	0.645
477.09	0.645
477.29	0.647
477.49	0.647
477.69	0.646
477.89	0.646
478.09	0.646
478.30	0.648
478.50	0.645
478.70	0.644
478.90	0.645
479.10	0.647
479.31	0.648
479.51	0.646
479.71	0.647
479.91	0.647
480.11	0.646
480.31	0.647
480.52	0.645
480.72	0.645
480.92	0.643
481.12	0.643
481.32	0.640
481.52	0.639
481.72	0.639
481.93	0.643
482.13	0.644
482.33	0.643
482.53	0.641
482.73	0.641
482.93	0.643
483.14	0.643
483.34	0.642
483.54	0.643
483.74	0.642
483.94	0.641
484.14	0.637
484.34	0.637
484.55	0.637
484.75	0.637
484.95	0.635
485.15	0.635
485.35	0.635
485.55	0.635
485.75	0.633
485.96	0.633
486.16	0.635
486.36	0.634
486.56	0.632
486.76	0.632
486.96	0.633
487.16	0.633
487.36	0.631
487.57	0.631
487.77	0.632
487.97	0.632
488.17	0.630
488.37	0.629
488.57	0.630
488.77	0.631
488.97	0.629
489.18	0.628
489.38	0.631
489.58	0.632
489.78	0.631
489.98	0.631
490.18	0.631
490.38	0.632
490.58	0.631
490.78	0.631
490.98	0.633
491.19	0.633
491.39	0.633
491.59	0.631
491.79	0.634
491.99	0.634
492.19	0.634
492.39	0.637
492.59	0.637
492.79	0.640
492.99	0.639
493.20	0.639
493.40	0.639
493.60	0.641
493.80	0.639
494.00	0.637
494.20	0.638
494.40	0.637
494.60	0.634
494.80	0.638
495.00	0.637
495.20	0.636
495.40	0.635
495.61	0.636
495.81	0.637
496.01	0.640
496.21	0.641
496.41	0.640
496.61	0.641
496.81	0.640
497.01	0.634
497.21	0.634
497.41	0.634
497.61	0.634
497.81	0.631
498.01	0.632
498.21	0.630
498.41	0.628
498.61	0.628
498.82	0.630
499.02	0.632
499.22	0.633
499.42	0.631
499.62	0.633
499.82	0.634
500.02	0.635
500.22	0.634
500.42	0.635
500.62	0.636
500.82	0.636
501.02	0.634
501.22	0.634
501.42	0.634
501.62	0.637
501.82	0.636
502.02	0.636
502.22	0.636
502.42	0.638
502.62	0.635
502.82	0.635
503.02	0.636
503.22	0.636
503.42	0.634
503.63	0.634
503.83	0.632
504.03	0.631
504.23	0.630
504.43	0.630
504.63	0.632
504.83	0.631
505.03	0.631
505.23	0.632
505.43	0.634
505.63	0.635
505.83	0.634
506.03	0.636
506.23	0.638
506.43	0.638
506.63	0.637
506.83	0.636
507.03	0.638
507.23	0.638
507.43	0.635
507.63	0.636
507.83	0.636
508.03	0.636
508.23	0.635
508.43	0.634
508.63	0.636
508.83	0.636
509.03	0.637
509.23	0.635
509.43	0.637
509.63	0.637
509.83	0.635
510.03	0.638
510.23	0.640
510.43	0.641
510.63	0.641
510.83	0.640
511.03	0.642
511.23	0.639
511.43	0.639
511.63	0.641
511.83	0.644
512.03	0.644
512.22	0.640
512.42	0.640
512.62	0.641
512.82	0.641
513.02	0.640
513.22	0.639
513.42	0.642
513.62	0.645
513.82	0.643
514.02	0.642
514.22	0.644
514.42	0.644
514.62	0.644
514.82	0.644
515.02	0.647
515.22	0.650
515.42	0.649
515.62	0.652
515.82	0.651
516.02	0.652
516.22	0.652
516.42	0.653
516.62	0.655
516.82	0.656
517.01	0.654
517.21	0.653
517.41	0.657
517.61	0.657
517.81	0.653
518.01	0.652
518.21	0.652
518.41	0.651
518.61	0.649
518.81	0.649
519.01	0.651
519.21	0.651
519.41	0.649
519.61	0.643
519.81	0.646
520.00	0.646
520.20	0.646
520.40	0.649
520.60	0.650
520.80	0.650
521.00	0.650
521.20	0.650
521.40	0.656
521.60	0.657
521.80	0.655
522.00	0.655
522.20	0.658
522.39	0.657
522.59	0.653
522.79	0.656
522.99	0.658
523.19	0.656
523.39	0.654
523.59	0.652
523.79	0.655
523.99	0.658
524.19	0.657
524.38	0.655
524.58	0.657
524.78	0.658
524.98	0.656
525.18	0.658
525.38	0.660
525.58	0.661
525.78	0.658
525.98	0.657
526.18	0.657
526.37	0.657
526.57	0.658
526.77	0.658
526.97	0.659
527.17	0.658
527.37	0.654
527.57	0.656
527.77	0.658
527.96	0.658
528.16	0.656
528.36	0.656
528.56	0.659
528.76	0.656
528.96	0.655
529.16	0.655
529.36	0.660
529.55	0.660
529.75	0.656
529.95	0.656
530.15	0.658
530.35	0.661
530.55	0.658
530.75	0.659
530.94	0.662
531.14	0.662
531.34	0.661
531.54	0.658
531.74	0.661
531.94	0.665
532.13	0.663
532.33	0.664
532.53	0.663
532.73	0.663
532.93	0.661
533.13	0.662
533.33	0.662
533.52	0.663
533.72	0.667
533.92	0.664
534.12	0.662
534.32	0.663
534.52	0.661
534.71	0.662
534.91	0.666
535.11	0.667
535.31	0.664
535.51	0.666
535.71	0.667
535.90	0.664
536.10	0.665
536.30	0.667
536.50	0.668
536.70	0.668
536.89	0.665
537.09	0.664
537.29	0.666
537.49	0.667
537.69	0.665
537.89	0.666
538.08	0.666
538.28	0.665
538.48	0.665
538.68	0.667
538.88	0.669
539.07	0.669
539.27	0.668
539.47	0.668
539.67	0.668
539.87	0.669
540.06	0.666
540.26	0.666
540.46	0.669
540.66	0.666
540.86	0.663
541.05	0.663
541.25	0.665
541.45	0.665
541.65	0.663
541.84	0.664
542.04	0.665
542.24	0.666
542.44	0.665
542.64	0.666
542.83	0.670
543.03	0.670
543.23	0.666
543.43	0.667
543.62	0.669
543.82	0.670
544.02	0.668
544.22	0.668
544.42	0.671
544.61	0.672
544.81	0.669
545.01	0.668
545.21	0.671
545.40	0.672
545.60	0.670
545.80	0.673
546.00	0.673
546.19	0.673
546.39	0.672
546.59	0.669
546.79	0.671
546.98	0.671
547.18	0.670
547.38	0.671
547.58	0.674
547.77	0.674
547.97	0.669
548.17	0.671
548.37	0.672
548.56	0.672
548.76	0.671
548.96	0.672
549.16	0.675
549.35	0.676
549.55	0.673
549.75	0.673
549.95	0.677
550.14	0.677
550.34	0.675
550.54	0.680
550.73	0.684
550.93	0.685
551.13	0.681
551.33	0.680
551.52	0.681
551.72	0.681
551.92	0.679
552.12	0.679
552.31	0.680
552.51	0.680
552.71	0.675
552.90	0.675
553.10	0.676
553.30	0.677
553.50	0.676
553.69	0.677
553.89	0.679
554.09	0.679
554.28	0.675
554.48	0.677
554.68	0.679
554.87	0.679
555.07	0.675
555.27	0.675
555.47	0.678
555.66	0.678
555.86	0.676
556.06	0.678
556.25	0.679
556.45	0.688
556.65	0.685
556.84	0.688
557.04	0.692
557.24	0.694
557.43	0.693
557.63	0.696
557.83	0.699
558.02	0.699
558.22	0.703
558.42	0.704
558.61	0.696
558.81	0.697
559.01	0.692
559.21	0.692
559.40	0.693
559.60	0.693
559.80	0.689
559.99	0.690
560.19	0.692
560.39	0.685
560.58	0.683
560.78	0.683
560.97	0.687
561.17	0.687
561.37	0.683
561.56	0.685
561.76	0.686
561.96	0.686
562.15	0.683
562.35	0.685
562.55	0.688
562.74	0.687
562.94	0.685
563.14	0.682
563.33	0.683
563.53	0.683
563.73	0.680
563.92	0.681
564.12	0.684
564.31	0.687
564.51	0.684
564.71	0.686
564.90	0.690
565.10	0.691
565.30	0.693
565.49	0.695
565.69	0.698
565.89	0.699
566.08	0.695
566.28	0.697
566.47	0.699
566.67	0.697
566.87	0.694
567.06	0.695
567.26	0.701
567.46	0.696
567.65	0.695
567.85	0.696
568.04	0.700
568.24	0.699
568.44	0.696
568.63	0.695
568.83	0.697
569.02	0.695
569.22	0.690
569.42	0.687
569.61	0.689
569.81	0.688
570.00	0.685
570.20	0.686
570.40	0.687
570.59	0.687
570.79	0.684
570.98	0.683
571.18	0.685
571.38	0.685
571.57	0.681
571.77	0.679
571.96	0.683
572.16	0.680
572.35	0.674
572.55	0.675
572.75	0.674
572.94	0.674
573.14	0.672
573.33	0.671
573.53	0.672
573.73	0.672
573.92	0.670
574.12	0.668
574.31	0.671
574.51	0.671
574.70	0.668
574.90	0.670
575.09	0.672
575.29	0.672
575.49	0.670
575.68	0.670
575.88	0.672
576.07	0.673
576.27	0.670
576.46	0.669
576.66	0.669
576.86	0.668
577.05	0.666
577.25	0.664
577.44	0.666
577.64	0.666
577.83	0.664
578.03	0.665
578.22	0.664
578.42	0.664
578.61	0.662
578.81	0.663
579.00	0.664
579.20	0.663
579.40	0.662
579.59	0.660
579.79	0.661
579.98	0.660
580.18	0.659
580.37	0.660
580.57	0.662
580.76	0.667
580.96	0.665
581.15	0.666
581.35	0.668
581.54	0.668
581.74	0.667
581.93	0.669
582.13	0.670
582.32	0.668
582.52	0.666
582.71	0.666
582.91	0.661
583.10	0.661
583.30	0.660
583.49	0.659
583.69	0.663
583.88	0.665
584.08	0.663
584.27	0.665
584.47	0.668
584.66	0.669
584.86	0.667
585.05	0.670
585.25	0.672
585.44	0.671
585.64	0.669
585.83	0.666
586.03	0.667
586.22	0.666
586.42	0.663
586.61	0.665
586.81	0.667
587.00	0.667
587.20	0.664
587.39	0.665
587.59	0.668
587.78	0.669
587.98	0.670
588.17	0.670
588.37	0.672
588.56	0.674
588.76	0.669
588.95	0.669
589.15	0.674
589.34	0.677
589.54	0.675
589.73	0.676
589.92	0.679
590.12	0.678
590.31	0.675
590.51	0.680
590.70	0.682
590.90	0.682
591.09	0.679
591.29	0.677
591.48	0.677
591.68	0.678
591.87	0.675
592.06	0.675
592.26	0.678
592.45	0.677
592.65	0.671
592.84	0.672
593.04	0.675
593.23	0.677
593.43	0.674
593.62	0.674
593.81	0.676
594.01	0.676
594.20	0.674
594.40	0.673
594.59	0.675
594.79	0.676
594.98	0.674
595.17	0.673
595.37	0.675
595.56	0.677
595.76	0.675
595.95	0.676
596.14	0.679
596.34	0.680
596.53	0.678
596.73	0.679
596.92	0.681
597.12	0.683
597.31	0.683
597.50	0.682
597.70	0.685
597.89	0.684
598.09	0.679
598.28	0.681
598.47	0.683
598.67	0.682
598.86	0.678
599.06	0.680
599.25	0.680
599.44	0.678
599.64	0.675
599.83	0.673
600.03	0.677
600.22	0.678
600.41	0.677
600.61	0.675
600.80	0.679
601.00	0.679
601.19	0.675
601.38	0.673
601.58	0.676
601.77	0.678
601.96	0.680
602.16	0.679
602.35	0.689
602.55	0.687
602.74	0.687
602.93	0.688
603.13	0.694
603.32	0.695
603.51	0.694
603.71	0.697
603.90	0.699
604.09	0.699
604.29	0.696
604.48	0.690
604.68	0.692
604.87	0.690
605.06	0.687
605.26	0.683
605.45	0.684
605.64	0.683
605.84	0.679
606.03	0.678
606.22	0.677
606.42	0.676
606.61	0.672
606.80	0.673
607.00	0.675
607.19	0.675
607.38	0.674
607.58	0.676
607.77	0.679
607.96	0.678
608.16	0.677
608.35	0.682
608.54	0.686
608.74	0.689
608.93	0.693
609.12	0.696
609.32	0.699
609.51	0.702
609.70	0.701
609.90	0.703
610.09	0.707
610.28	0.712
610.48	0.705
610.67	0.707
610.86	0.708
611.06	0.702
611.25	0.700
611.44	0.700
611.64	0.700
611.83	0.702
612.02	0.697
612.21	0.697
612.41	0.695
612.60	0.694
612.79	0.690
612.99	0.690
613.18	0.693
613.37	0.690
613.57	0.687
613.76	0.689
613.95	0.687
614.14	0.687
614.34	0.684
614.53	0.686
614.72	0.689
614.92	0.689
615.11	0.686
615.30	0.683
615.49	0.685
615.69	0.688
615.88	0.684
616.07	0.685
616.26	0.688
616.46	0.690
616.65	0.685
616.84	0.684
617.04	0.686
617.23	0.689
617.42	0.689
617.61	0.693
617.81	0.695
618.00	0.697
618.19	0.695
618.38	0.699
618.58	0.702
618.77	0.704
618.96	0.703
619.15	0.704
619.35	0.707
619.54	0.707
619.73	0.702
619.92	0.704
620.12	0.708
620.31	0.709
620.50	0.704
620.69	0.703
620.89	0.706
621.08	0.705
621.27	0.705
621.46	0.704
621.66	0.710
621.85	0.710
622.04	0.706
622.23	0.706
622.43	0.707
622.62	0.708
622.81	0.707
623.00	0.707
623.19	0.713
623.39	0.711
623.58	0.708
623.77	0.706
623.96	0.709
624.16	0.709
624.35	0.704
624.54	0.707
624.73	0.711
624.92	0.709
625.12	0.705
625.31	0.705
625.50	0.709
625.69	0.710
625.88	0.706
626.08	0.705
626.27	0.708
626.46	0.709
626.65	0.705
626.84	0.704
627.04	0.710
627.23	0.710
627.42	0.705
627.61	0.707
627.80	0.711
628.00	0.711
628.19	0.709
628.38	0.713
628.57	0.715
628.76	0.716
628.96	0.712
629.15	0.713
629.34	0.716
629.53	0.716
629.72	0.710
629.91	0.710
630.11	0.715
630.30	0.715
630.49	0.717
630.68	0.718
630.87	0.721
631.06	0.724
631.26	0.718
631.45	0.720
631.64	0.728
631.83	0.731
632.02	0.729
632.21	0.728
632.41	0.737
632.60	0.731
632.79	0.729
632.98	0.730
633.17	0.731
633.36	0.734
633.55	0.729
633.75	0.726
633.94	0.728
634.13	0.728
634.32	0.724
634.51	0.718
634.70	0.720
634.89	0.720
635.09	0.716
635.28	0.717
635.47	0.719
635.66	0.721
635.85	0.716
636.04	0.718
636.23	0.723
636.43	0.725
636.62	0.723
636.81	0.722
637.00	0.726
637.19	0.728
637.38	0.723
637.57	0.723
637.76	0.727
637.95	0.728
638.15	0.723
638.34	0.720
638.53	0.724
638.72	0.726
638.91	0.723
639.10	0.720
639.29	0.721
639.48	0.722
639.67	0.721
639.87	0.719
640.06	0.725
640.25	0.724
640.44	0.724
640.63	0.724
640.82	0.726
641.01	0.727
641.20	0.726
641.39	0.728
641.58	0.732
641.78	0.731
641.97	0.727
642.16	0.741
642.35	0.744
642.54	0.742
642.73	0.736
642.92	0.736
643.11	0.740
643.30	0.740
643.49	0.734
643.68	0.736
643.87	0.739
644.06	0.738
644.25	0.716
644.45	0.719
644.64	0.721
644.83	0.721
645.02	0.717
645.21	0.717
645.40	0.719
645.59	0.719
645.78	0.713
645.97	0.715
646.16	0.717
646.35	0.718
646.54	0.714
646.73	0.715
646.92	0.718
647.11	0.717
647.30	0.712
647.49	0.714
647.68	0.714
647.88	0.711
648.07	0.704
648.26	0.707
648.45	0.708
648.64	0.704
648.83	0.701
649.02	0.703
649.21	0.715
649.40	0.714
649.59	0.708
649.78	0.708
649.97	0.724
650.16	0.723
650.35	0.717
650.54	0.720
650.73	0.729
650.92	0.726
651.11	0.718
651.30	0.715
651.49	0.720
651.68	0.721
651.87	0.717
652.06	0.706
652.25	0.710
652.44	0.712
652.63	0.707
652.82	0.706
653.01	0.705
653.20	0.703
653.39	0.690
653.58	0.687
653.77	0.686
653.96	0.682
654.15	0.673
654.34	0.671
654.53	0.667
654.72	0.662
654.91	0.652
655.10	0.649
655.29	0.647
655.48	0.645
655.67	0.640
655.86	0.638
656.05	0.637
656.24	0.636
656.43	0.631
656.62	0.630
656.81	0.631
657.00	0.630
657.19	0.628
657.38	0.629
657.57	0.629
657.76	0.632
657.95	0.629
658.14	0.633
658.33	0.637
658.51	0.642
658.70	0.643
658.89	0.644
659.08	0.653
659.27	0.660
659.46	0.659
659.65	0.666
659.84	0.670
660.03	0.674
660.22	0.674
660.41	0.678
660.60	0.678
660.79	0.679
660.98	0.686
661.17	0.685
661.36	0.684
661.55	0.685
661.74	0.683
661.92	0.686
662.11	0.688
662.30	0.687
662.49	0.679
662.68	0.679
662.87	0.683
663.06	0.676
663.25	0.676
663.44	0.676
663.63	0.677
663.82	0.676
664.01	0.669
664.20	0.668
664.38	0.670
664.57	0.670
664.76	0.669
664.95	0.669
665.14	0.675
665.33	0.669
665.52	0.677
665.71	0.680
665.90	0.681
666.09	0.682
666.28	0.679
666.46	0.678
666.65	0.680
666.84	0.678
667.03	0.671
667.22	0.669
667.41	0.672
667.60	0.662
667.79	0.655
667.98	0.657
668.16	0.660
668.35	0.660
668.54	0.655
668.73	0.656
668.92	0.658
669.11	0.656
669.30	0.651
669.49	0.648
669.67	0.649
669.86	0.650
670.05	0.647
670.24	0.644
670.43	0.642
670.62	0.641
670.81	0.635
671.00	0.636
671.18	0.637
671.37	0.635
671.56	0.632
671.75	0.632
671.94	0.629
672.13	0.626
672.32	0.622
672.50	0.621
672.69	0.622
672.88	0.623
673.07	0.618
673.26	0.620
673.45	0.622
673.63	0.622
673.82	0.617
674.01	0.619
674.20	0.619
674.39	0.618
674.58	0.616
674.76	0.616
674.95	0.616
675.14	0.615
675.33	0.610
675.52	0.608
675.71	0.609
675.89	0.609
676.08	0.604
676.27	0.605
676.46	0.606
676.65	0.606
676.84	0.605
677.02	0.607
677.21	0.609
677.40	0.609
677.59	0.606
677.78	0.607
677.96	0.609
678.15	0.609
678.34	0.606
678.53	0.607
678.72	0.607
678.90	0.603
679.09	0.599
679.28	0.595
679.47	0.595
679.66	0.594
679.84	0.590
680.03	0.588
680.22	0.587
680.41	0.589
680.60	0.585
680.78	0.584
680.97	0.588
681.16	0.588
681.35	0.587
681.53	0.586
681.72	0.588
681.91	0.590
682.10	0.588
682.29	0.591
682.47	0.589
682.66	0.589
682.85	0.588
683.04	0.585
683.22	0.584
683.41	0.587
683.60	0.585
683.79	0.586
683.97	0.585
684.16	0.584
684.35	0.580
684.54	0.581
684.72	0.581
684.91	0.582
685.10	0.580
685.29	0.582
685.47	0.579
685.66	0.578
685.85	0.575
686.04	0.574
686.22	0.576
686.41	0.579
686.60	0.575
686.79	0.578
686.97	0.579
687.16	0.580
687.35	0.577
687.54	0.581
687.72	0.585
687.91	0.585
688.10	0.587
688.29	0.586
688.47	0.584
688.66	0.583
688.85	0.579
689.03	0.577
689.22	0.582
689.41	0.582
689.60	0.576
689.78	0.574
689.97	0.574
690.16	0.572
690.34	0.568
690.53	0.568
690.72	0.569
690.91	0.567
691.09	0.564
691.28	0.558
691.47	0.557
691.65	0.556
691.84	0.553
692.03	0.552
692.21	0.550
692.40	0.551
692.59	0.548
692.77	0.547
692.96	0.548
693.15	0.550
693.34	0.547
693.52	0.547
693.71	0.548
693.90	0.549
694.08	0.550
694.27	0.551
694.46	0.560
694.64	0.562
694.83	0.561
695.02	0.560
695.20	0.559
695.39	0.559
695.58	0.558
695.76	0.559
695.95	0.560
696.14	0.559
696.32	0.556
696.51	0.547
696.70	0.546
696.88	0.548
697.07	0.546
697.26	0.548
697.44	0.549
697.63	0.548
697.81	0.546
698.00	0.545
698.19	0.545
698.37	0.545
698.56	0.544
698.75	0.544
698.93	0.544
699.12	0.544
699.31	0.543
699.49	0.543
699.68	0.543
699.87	0.546
700.05	0.545
700.24	0.545
700.42	0.547
700.61	0.546
700.80	0.543
700.98	0.543
701.17	0.544
701.36	0.543
701.54	0.542
701.73	0.544
701.91	0.542
702.10	0.541
702.29	0.539
702.47	0.538
702.66	0.539
702.84	0.541
703.03	0.540
703.22	0.541
703.40	0.542
703.59	0.543
703.77	0.542
703.96	0.541
704.15	0.542
704.33	0.543
704.52	0.542
704.70	0.541
704.89	0.542
705.08	0.540
705.26	0.536
705.45	0.536
705.63	0.536
705.82	0.532
706.00	0.531
706.19	0.530
706.38	0.530
706.56	0.529
706.75	0.527
706.93	0.526
707.12	0.528
707.30	0.528
707.49	0.525
707.68	0.524
707.86	0.524
708.05	0.524
708.23	0.521
708.42	0.522
708.60	0.525
708.79	0.524
708.98	0.523
709.16	0.522
709.35	0.525
709.53	0.528
709.72	0.527
709.90	0.529
710.09	0.531
710.27	0.533
710.46	0.536
710.64	0.533
710.83	0.536
711.02	0.537
711.20	0.536
711.39	0.534
711.57	0.532
711.76	0.533
711.94	0.530
712.13	0.532
712.31	0.531
712.50	0.526
712.68	0.524
712.87	0.525
713.05	0.525
713.24	0.525
713.42	0.524
713.61	0.524
713.79	0.525
713.98	0.525
714.16	0.525
714.35	0.526
714.54	0.528
714.72	0.528
714.91	0.524
715.09	0.531
715.28	0.535
715.46	0.535
715.65	0.532
715.83	0.532
716.02	0.536
716.20	0.532
716.39	0.530
716.57	0.531
716.76	0.533
716.94	0.533
717.12	0.524
717.31	0.526
717.49	0.528
717.68	0.530
717.86	0.529
718.05	0.530
718.23	0.534
718.42	0.536
718.60	0.538
718.79	0.546
718.97	0.550
719.16	0.550
719.34	0.547
719.53	0.547
719.71	0.547
719.90	0.548
720.08	0.545
720.27	0.545
720.45	0.546
720.63	0.545
720.82	0.539
721.00	0.541
721.19	0.545
721.37	0.545
721.56	0.545
721.74	0.549
721.93	0.558
722.11	0.564
722.30	0.563
722.48	0.567
722.66	0.569
722.85	0.568
723.03	0.568
723.22	0.567
723.40	0.570
723.59	0.571
723.77	0.573
723.95	0.568
724.14	0.571
724.32	0.572
724.51	0.572
724.69	0.572
724.88	0.573
725.06	0.571
725.24	0.572
725.43	0.574
725.61	0.576
725.80	0.570
725.98	0.567
726.16	0.563
726.35	0.570
726.53	0.569
726.72	0.568
726.90	0.578
727.09	0.579
727.27	0.584
727.45	0.580
727.64	0.589
727.82	0.599
728.01	0.603
728.19	0.600
728.37	0.605
728.56	0.610
728.74	0.617
728.92	0.604
729.11	0.607
729.29	0.607
729.48	0.610
729.66	0.598
729.84	0.597
730.03	0.602
730.21	0.605
730.40	0.594
730.58	0.594
730.76	0.595
730.95	0.597
731.13	0.596
731.31	0.610
731.50	0.620
731.68	0.623
731.86	0.617
732.05	0.631
732.23	0.635
732.42	0.639
732.60	0.643
732.78	0.648
732.97	0.670
733.15	0.676
733.33	0.664
733.52	0.671
733.70	0.687
733.88	0.697
734.07	0.681
734.25	0.708
734.43	0.719
734.62	0.720
734.80	0.714
734.98	0.703
735.17	0.712
735.35	0.718
735.53	0.704
735.72	0.705
735.90	0.730
736.08	0.750
736.27	0.726
736.45	0.735
736.63	0.753
736.82	0.763
737.00	0.761
737.18	0.774
737.37	0.811
737.55	0.840
737.73	0.833
737.92	0.836
738.10	0.835
738.28	0.856
738.46	0.841
738.65	0.854
738.83	0.882
739.01	0.946
739.20	0.932
739.38	0.912
739.56	0.905
739.75	0.911
739.93	0.871
740.11	0.902
740.29	0.906
740.48	0.912
740.66	0.886
740.84	0.879
741.03	0.842
741.21	0.853
741.39	0.830
741.57	0.844
741.76	0.867
741.94	0.877
742.12	0.835
742.31	0.843
742.49	0.870
742.67	0.898
742.85	0.910
743.04	0.911
743.22	0.926
743.40	0.990
743.58	0.964
743.77	0.981
743.95	1.024
744.13	1.081
744.31	1.053
744.50	1.044
744.68	1.048
744.86	1.021
745.04	1.034
745.23	1.112
745.41	1.093
745.59	1.098
745.77	1.055
745.96	1.039
746.14	1.051
746.32	1.048
746.50	1.040
746.69	1.021
746.87	1.038
747.05	1.023
747.23	0.937
747.42	0.921
747.60	0.961
747.78	0.963
747.96	0.994
748.14	0.946
748.33	0.983
748.51	0.978
748.69	0.964
748.87	0.999
749.06	1.000
749.24	0.998
749.42	0.978
749.60	0.958
749.78	0.972
749.97	0.917
750.15	0.908
750.33	0.911
750.51	0.941
750.69	0.948
750.88	0.948
751.06	0.962
751.24	0.995
751.42	0.983
751.60	0.964
751.79	1.050
751.97	1.116
752.15	1.115
752.33	1.061
752.51	1.140
752.69	1.173
752.88	1.131
753.06	1.183
753.24	1.146
753.42	1.193
753.60	1.450
753.78	1.225
753.97	1.248
754.15	1.289
754.33	1.346
754.51	1.163
754.69	1.136
754.87	1.176
755.06	1.076
755.24	1.076
755.42	1.084
755.60	0.965
755.78	0.974
755.96	0.910
756.15	0.908
756.33	0.915
756.51	0.933
756.69	0.912
756.87	0.873
757.05	0.898
757.23	0.881
757.42	0.842
757.60	0.841
757.78	0.832
757.96	0.829
758.14	0.805
758.32	0.788
758.50	0.806
758.69	0.804
758.87	0.795
759.05	0.800
759.23	0.814
759.41	0.818
759.59	0.808
759.77	0.832
759.95	0.863
760.13	0.922
760.32	0.920
760.50	0.914
760.68	0.945
760.86	0.946
761.04	0.907
761.22	0.908
761.40	0.962
761.58	0.962
761.76	0.927
761.95	0.906
762.13	0.861
762.31	0.863
762.49	0.826
762.67	0.848
762.85	0.865
763.03	0.860
763.21	0.836
763.39	0.815
763.57	0.824
763.75	0.816
763.94	0.798
764.12	0.796
764.30	0.826
764.48	0.831
764.66	0.789
764.84	0.786
765.02	0.830
765.20	0.839
765.38	0.815
765.56	0.817
765.74	0.869
765.92	0.867
766.10	0.873
766.28	0.862
766.46	0.895
766.65	0.895
766.83	0.880
767.01	0.863
767.19	0.878
767.37	0.876
767.55	0.857
767.73	0.835
767.91	0.844
768.09	0.832
768.27	0.816
768.45	0.805
768.63	0.813
768.81	0.816
768.99	0.784
769.17	0.809
769.35	0.830
769.53	0.829
769.71	0.804
769.89	0.815
770.07	0.826
770.25	0.806
770.43	0.781
770.61	0.808
770.79	0.818
770.97	0.831
771.15	0.792
771.33	0.796
771.51	0.802
771.69	0.813
771.87	0.817
772.05	0.824
772.24	0.841
772.42	0.851
772.60	0.826
772.78	0.894
772.96	0.934
773.14	0.930
773.32	0.895
773.49	0.905
773.67	0.906
773.85	0.885
774.03	0.868
774.21	0.901
774.39	0.917
774.57	0.941
774.75	0.853
774.93	0.843
775.11	0.868
775.29	0.877
775.47	0.871
775.65	0.881
775.83	0.901
776.01	0.926
776.19	0.870
776.37	0.870
776.55	0.872
776.73	0.867
776.91	0.859
777.09	0.844
777.27	0.846
777.45	0.837
777.63	0.816
777.81	0.813
777.99	0.796
778.17	0.793
778.35	0.769
778.53	0.755
778.71	0.762
778.89	0.750
779.07	0.733
779.24	0.737
779.42	0.739
779.60	0.758
779.78	0.751
779.96	0.761
780.14	0.775
780.32	0.801
780.50	0.781
780.68	0.783
780.86	0.776
781.04	0.795
781.22	0.798
781.40	0.811
781.58	0.799
781.75	0.791
781.93	0.767
782.11	0.764
782.29	0.748
782.47	0.746
782.65	0.730
782.83	0.759
783.01	0.756
783.19	0.750
783.37	0.735
783.55	0.741
783.72	0.761
783.90	0.775
784.08	0.765
784.26	0.778
784.44	0.803
784.62	0.807
784.80	0.769
784.98	0.775
785.16	0.781
785.33	0.796
785.51	0.777
785.69	0.761
785.87	0.763
786.05	0.774
786.23	0.768
786.41	0.765
786.59	0.774
786.77	0.775
786.94	0.756
787.12	0.761
787.30	0.762
787.48	0.756
787.66	0.742
787.84	0.742
788.02	0.734
788.19	0.731
788.37	0.714
788.55	0.716
788.73	0.718
788.91	0.713
789.09	0.694
789.27	0.684
789.44	0.701
789.62	0.708
789.80	0.716
789.98	0.746
790.16	0.732
790.34	0.730
790.51	0.714
790.69	0.734
790.87	0.744
791.05	0.741
791.23	0.731
791.41	0.732
791.58	0.739
791.76	0.715
791.94	0.678
792.12	0.687
792.30	0.689
792.48	0.686
792.65	0.680
792.83	0.684
793.01	0.695
793.19	0.694
793.37	0.677
793.54	0.675
793.72	0.689
793.90	0.687
794.08	0.676
794.26	0.680
794.43	0.691
794.61	0.671
794.79	0.658
794.97	0.656
795.15	0.664
795.32	0.667
795.50	0.653
795.68	0.648
795.86	0.656
796.04	0.656
796.21	0.648
796.39	0.646
796.57	0.664
796.75	0.674
796.92	0.675
797.10	0.678
797.28	0.681
797.46	0.685
797.64	0.687
797.81	0.694
797.99	0.701
798.17	0.704
798.35	0.695
798.52	0.699
798.70	0.693
798.88	0.702
799.06	0.697
799.23	0.701
799.41	0.713
799.59	0.705
799.77	0.690
799.94	0.701
800.12	0.713
800.30	0.733
800.48	0.729
800.65	0.729
800.83	0.719
801.01	0.713
801.19	0.710
801.36	0.704
801.54	0.708
801.72	0.722
801.90	0.705
802.07	0.699
802.25	0.685
802.43	0.668
802.60	0.663
802.78	0.671
802.96	0.678
803.14	0.671
803.31	0.669
803.49	0.669
803.67	0.664
803.84	0.667
804.02	0.655
804.20	0.658
804.38	0.666
804.55	0.667
804.73	0.649
804.91	0.651
805.08	0.662
805.26	0.658
805.44	0.721
805.61	0.724
805.79	0.726
805.97	0.727
806.15	0.717
806.32	0.710
806.50	0.716
806.68	0.717
806.85	0.706
807.03	0.700
807.21	0.722
807.38	0.654
807.56	0.642
807.74	0.652
807.91	0.659
808.09	0.662
808.27	0.682
808.44	0.713
808.62	0.724
808.80	0.725
808.97	0.717
809.15	0.709
809.33	0.731
809.50	0.738
809.68	0.722
809.86	0.731
810.03	0.767
810.21	0.744
810.39	0.721
810.56	0.729
810.74	0.758
810.91	0.841
811.09	0.826
811.27	0.851
811.44	0.861
811.62	0.862
811.80	0.840
811.97	0.806
812.15	0.806
812.33	0.800
812.50	0.780
812.68	0.768
812.85	0.707
813.03	0.711
813.21	0.675
813.38	0.668
813.56	0.672
813.74	0.682
813.91	0.690
814.09	0.724
814.26	0.722
814.44	0.728
814.62	0.712
814.79	0.716
814.97	0.721
815.14	0.722
815.32	0.725
815.50	0.744
815.67	0.750
815.85	0.739
816.02	0.724
816.20	0.730
816.38	0.746
816.55	0.752
816.73	0.750
816.90	0.764
817.08	0.802
817.26	0.811
817.43	0.789
817.61	0.814
817.78	0.839
817.96	0.816
818.13	0.803
818.31	0.805
818.49	0.824
818.66	0.814
818.84	0.792
819.01	0.768
819.19	0.777
819.36	0.780
819.54	0.745
819.71	0.790
819.89	0.811
820.07	0.824
820.24	0.814
820.42	0.815
820.59	0.842
820.77	0.873
820.94	0.861
821.12	0.881
821.29	0.901
821.47	0.904
821.64	0.829
821.82	0.843
822.00	0.842
822.17	0.840
822.35	0.826
822.52	0.825
822.70	0.813
822.87	0.823
823.05	0.800
823.22	0.815
823.40	0.848
823.57	0.875
823.75	0.850
823.92	0.887
824.10	0.915
824.27	0.973
824.45	0.955
824.62	1.038
824.80	1.064
824.97	1.082
825.15	1.065
825.32	1.092
825.50	1.101
825.67	1.127
825.85	1.085
826.02	1.118
826.20	1.157
826.37	1.390
826.55	1.241
826.72	1.699
826.90	2.062
827.07	2.663
827.25	2.027
827.42	-0.000
827.60	-0.000
827.77	-0.000
827.95	-0.000
828.12	-0.000
828.30	-0.000
828.47	-0.000
828.65	1.813
828.82	2.262
829.00	-0.000
829.17	-0.000
829.34	-0.000
829.52	-0.000
829.69	-0.000
829.87	-0.000
830.04	-0.000
830.22	-0.000
830.39	-0.000
830.57	-0.000
830.74	-0.000
830.92	-0.000
831.09	-0.000
831.26	-0.000
831.44	-0.000
831.61	-0.000
831.79	-0.000
831.96	-0.000
832.14	-0.000
832.31	-0.000
832.49	-0.000
832.66	-0.000
832.83	-0.000
833.01	-0.000
833.18	-0.000
833.36	-0.000
833.53	-0.000
833.70	-0.000
833.88	-0.000
834.05	-0.000
834.23	-0.000
834.40	-0.000
834.58	-0.000
834.75	-0.000
834.92	-0.000
835.10	-0.000
835.27	-0.000
835.45	-0.000
835.62	-0.000
835.79	-0.000
835.97	-0.000
836.14	-0.000
836.32	-0.000
836.49	-0.000
836.66	-0.000
836.84	-0.000
837.01	-0.000
837.18	-0.000
837.36	-0.000
837.53	-0.000
837.71	-0.000
837.88	-0.000
838.05	-0.000
838.23	-0.000
838.40	-0.000
838.58	-0.000
838.75	-0.000
838.92	-0.000
839.10	-0.000
839.27	-0.000
839.44	-0.000
839.62	-0.000
839.79	-0.000
839.96	-0.000
840.14	-0.000
840.31	-0.000
840.48	-0.000
840.66	-0.000
840.83	-0.000
841.01	-0.000
841.18	-0.000
841.35	-0.000
841.53	-0.000
841.70	-0.000
841.87	-0.000
842.05	-0.000
842.22	-0.000
842.39	-0.000
842.57	-0.000
842.74	-0.000
842.91	-0.000
843.09	-0.000
843.26	-0.000
843.43	-0.000
843.60	-0.000
843.78	-0.000
843.95	-0.000
844.12	-0.000
844.30	-0.000
844.47	-0.000
844.64	-0.000
844.82	-0.000
844.99	-0.000
845.16	-0.000
845.34	-0.000
845.51	-0.000
845.68	-0.000
845.85	-0.000
846.03	-0.000
846.20	-0.000
846.37	-0.000
846.55	-0.000
846.72	-0.000
846.89	-0.000
847.06	-0.000
847.24	-0.000
847.41	-0.000
847.58	-0.000
847.76	-0.000
847.93	-0.000
848.10	-0.000
848.27	-0.000
848.45	-0.000
848.62	-0.000
848.79	-0.000
848.97	-0.000
849.14	-0.000
849.31	-0.000
849.48	-0.000
849.66	-0.000
849.83	-0.000
850.00	-0.000
850.17	-0.000
850.35	-0.000
850.52	-0.000
850.69	-0.000
850.86	-0.000
851.04	-0.000
851.21	-0.000
851.38	-0.000
851.55	-0.000
851.72	-0.000
851.90	-0.000
852.07	-0.000
852.24	-0.000
852.41	-0.000
852.59	-0.000
852.76	-0.000
852.93	-0.000
853.10	-0.000
853.28	-0.000
853.45	-0.000
853.62	-0.000
853.79	-0.000
853.96	-0.000
854.14	-0.000
854.31	-0.000
854.48	-0.000
854.65	-0.000
854.82	-0.000
855.00	-0.000
855.17	-0.000
855.34	-0.000
855.51	-0.000
855.68	-0.000
855.86	-0.000
856.03	-0.000
856.20	-0.000
856.37	-0.000
856.54	-0.000
856.72	-0.000
856.89	-0.000
857.06	-0.000
857.23	-0.000
857.40	-0.000
857.57	-0.000
857.75	-0.000
857.92	-0.000
858.09	-0.000
858.26	-0.000
858.43	-0.000
858.60	-0.000
858.78	-0.000
858.95	-0.000
859.12	-0.000
859.29	-0.000
859.46	-0.000
859.63	-0.000
859.81	-0.000
859.98	-0.000
860.15	-0.000
860.32	-0.000
860.49	-0.000
860.66	-0.000
860.83	-0.000
861.01	-0.000
861.18	-0.000
861.35	-0.000
861.52	-0.000
861.69	-0.000
861.86	-0.000
862.03	-0.000
862.21	-0.000
862.38	-0.000
862.55	-0.000
862.72	-0.000
862.89	-0.000
863.06	-0.000
863.23	-0.000
863.40	-0.000
863.58	-0.000
863.75	-0.000
863.92	-0.000
864.09	-0.000
864.26	-0.000
864.43	-0.000
864.60	-0.000
864.77	-0.000
864.94	-0.000
865.11	-0.000
865.29	-0.000
865.46	-0.000
865.63	-0.000
865.80	-0.000
865.97	-0.000
866.14	-0.000
866.31	-0.000
866.48	-0.000
866.65	-0.000
866.82	-0.000
866.99	-0.000
867.16	-0.000
867.34	-0.000
867.51	-0.000
867.68	-0.000
867.85	-0.000
868.02	-0.000
868.19	-0.000
868.36	-0.000
868.53	-0.000
868.70	-0.000
868.87	-0.000
869.04	-0.000
869.21	-0.000
869.38	-0.000
869.55	-0.000
869.72	-0.000
869.89	-0.000
870.06	-0.000
870.24	-0.000
870.41	-0.000
870.58	-0.000
870.75	-0.000
870.92	-0.000
871.09	-0.000
871.26	-0.000
871.43	-0.000
871.60	-0.000
871.77	-0.000
871.94	-0.000
872.11	-0.000
872.28	-0.000
872.45	-0.000
872.62	-0.000
872.79	-0.000
872.96	-0.000
873.13	-0.000
873.30	-0.000
873.47	-0.000
873.64	-0.000
873.81	-0.000
873.98	-0.000
874.15	-0.000
874.32	-0.000
874.49	-0.000
874.66	-0.000
874.83	-0.000
875.00	-0.000
875.17	-0.000
875.34	-0.000
875.51	-0.000
875.68	-0.000
875.85	-0.000
876.02	-0.000
876.19	-0.000
876.36	-0.000
876.53	-0.000
876.70	-0.000
876.87	-0.000
877.04	-0.000
877.21	-0.000
877.38	-0.000
877.55	-0.000
877.72	-0.000
877.89	-0.000
878.06	-0.000
878.23	-0.000
878.39	-0.000
878.56	-0.000
878.73	-0.000
878.90	-0.000
879.07	-0.000
879.24	-0.000
879.41	-0.000
879.58	-0.000
879.75	-0.000
879.92	-0.000
880.09	-0.000
880.26	-0.000
880.43	-0.000
880.60	-0.000
880.77	-0.000
880.94	-0.000
881.11	-0.000
881.27	-0.000
881.44	-0.000
881.61	-0.000
881.78	-0.000
881.95	-0.000
882.12	-0.000
882.29	-0.000
882.46	-0.000
882.63	-0.000
882.80	-0.000
882.97	-0.000
883.14	-0.000
883.30	-0.000
883.47	-0.000
883.64	-0.000
883.81	-0.000
883.98	-0.000
884.15	-0.000
884.32	-0.000
884.49	-0.000
884.66	-0.000
884.82	-0.000
884.99	-0.000
885.16	-0.000
885.33	-0.000
885.50	-0.000
885.67	-0.000
885.84	-0.000
886.01	-0.000
886.17	-0.000
886.34	-0.000
886.51	-0.000
886.68	-0.000
886.85	-0.000
887.02	-0.000
887.19	-0.000
887.36	-0.000
887.52	-0.000
887.69	-0.000
887.86	-0.000
888.03	-0.000
888.20	-0.000
888.37	-0.000
888.54	-0.000
888.70	-0.000
888.87	-0.000
889.04	-0.000
889.21	-0.000
889.38	-0.000
889.55	-0.000
889.71	-0.000
889.88	-0.000
890.05	-0.000
890.22	-0.000
890.39	-0.000
>>>>>End Processed Spectral Data<<<<<
