SpectraSuite Data File
++++++++++++++++++++++++++++++++++++
Date: Fri Jun 19 13:03:00 CEST 2015
User: introlabs
Dark Spectrum Present: Yes
Reference Spectrum Present: Yes
Number of Sampled Component Spectra: 1
Spectrometers: USB4H08886
Integration Time (usec): 745692 (USB4H08886)
Spectra Averaged: 5 (USB4H08886)
Boxcar Smoothing: 5 (USB4H08886)
Correct for Electrical Dark: Yes (USB4H08886)
Strobe/Lamp Enabled: No (USB4H08886)
Correct for Detector Non-linearity: Yes (USB4H08886)
Correct for Stray Light: Yes (USB4H08886)
Number of Pixels in Processed Spectrum: 3648
>>>>>Begin Processed Spectral Data<<<<<
178.14	-0.000
178.36	-0.000
178.57	-0.000
178.79	-0.000
179.01	-0.000
179.22	-0.000
179.44	-0.000
179.65	-0.000
179.87	-0.000
180.08	-0.000
180.30	-0.000
180.52	-0.000
180.73	-0.000
180.95	-0.000
181.16	-0.000
181.38	-0.000
181.59	-0.000
181.81	-0.000
182.03	-0.000
182.24	-0.000
182.46	-0.000
182.67	-0.000
182.89	-0.000
183.10	-0.000
183.32	-0.000
183.54	-0.000
183.75	-0.000
183.97	-0.000
184.18	-0.000
184.40	-0.000
184.61	-0.000
184.83	-0.000
185.04	-0.000
185.26	-0.000
185.48	-0.000
185.69	-0.000
185.91	-0.000
186.12	-0.000
186.34	-0.000
186.55	-0.000
186.77	-0.000
186.98	-0.000
187.20	-0.000
187.42	-0.000
187.63	-0.000
187.85	-0.000
188.06	-0.000
188.28	-0.000
188.49	-0.000
188.71	-0.000
188.92	-0.000
189.14	-0.000
189.36	-0.000
189.57	-0.000
189.79	-0.000
190.00	-0.000
190.22	-0.000
190.43	-0.000
190.65	-0.000
190.86	-0.000
191.08	-0.000
191.29	-0.000
191.51	-0.000
191.72	-0.000
191.94	-0.000
192.16	-0.000
192.37	-0.000
192.59	-0.000
192.80	-0.000
193.02	-0.000
193.23	-0.000
193.45	-0.000
193.66	-0.000
193.88	-0.000
194.09	-0.000
194.31	-0.000
194.52	-0.000
194.74	-0.000
194.95	-0.000
195.17	-0.000
195.38	-0.000
195.60	-0.000
195.81	-0.000
196.03	-0.000
196.25	-0.000
196.46	-0.000
196.68	-0.000
196.89	-0.000
197.11	-0.000
197.32	-0.000
197.54	-0.000
197.75	-0.000
197.97	-0.000
198.18	-0.000
198.40	-0.000
198.61	-0.000
198.83	-0.000
199.04	-0.000
199.26	-0.000
199.47	-0.000
199.69	-0.000
199.90	-0.000
200.12	-0.000
200.33	-0.000
200.55	-0.000
200.76	-0.000
200.98	-0.000
201.19	-0.000
201.41	-0.000
201.62	-0.000
201.84	-0.000
202.05	-0.000
202.27	-0.000
202.48	-0.000
202.70	-0.000
202.91	-0.000
203.13	-0.000
203.34	-0.000
203.56	-0.000
203.77	-0.000
203.99	-0.000
204.20	-0.000
204.42	-0.000
204.63	-0.000
204.85	-0.000
205.06	-0.000
205.28	-0.000
205.49	-0.000
205.71	-0.000
205.92	-0.000
206.14	-0.000
206.35	-0.000
206.56	-0.000
206.78	-0.000
206.99	-0.000
207.21	-0.000
207.42	-0.000
207.64	-0.000
207.85	-0.000
208.07	-0.000
208.28	-0.000
208.50	-0.000
208.71	-0.000
208.93	-0.000
209.14	-0.000
209.36	-0.000
209.57	-0.000
209.79	-0.000
210.00	-0.000
210.22	-0.000
210.43	-0.000
210.64	-0.000
210.86	-0.000
211.07	-0.000
211.29	-0.000
211.50	-0.000
211.72	-0.000
211.93	-0.000
212.15	-0.000
212.36	-0.000
212.58	-0.000
212.79	-0.000
213.01	-0.000
213.22	-0.000
213.43	-0.000
213.65	-0.000
213.86	-0.000
214.08	-0.000
214.29	-0.000
214.51	-0.000
214.72	-0.000
214.94	-0.000
215.15	-0.000
215.36	-0.000
215.58	-0.000
215.79	-0.000
216.01	-0.000
216.22	-0.000
216.44	-0.000
216.65	-0.000
216.87	-0.000
217.08	-0.000
217.29	-0.000
217.51	-0.000
217.72	-0.000
217.94	-0.000
218.15	-0.000
218.37	-0.000
218.58	-0.000
218.80	-0.000
219.01	-0.000
219.22	-0.000
219.44	-0.000
219.65	-0.000
219.87	-0.000
220.08	-0.000
220.30	-0.000
220.51	-0.000
220.72	-0.000
220.94	-0.000
221.15	-0.000
221.37	-0.000
221.58	-0.000
221.79	-0.000
222.01	-0.000
222.22	-0.000
222.44	-0.000
222.65	-0.000
222.87	-0.000
223.08	-0.000
223.29	-0.000
223.51	-0.000
223.72	-0.000
223.94	-0.000
224.15	-0.000
224.36	-0.000
224.58	-0.000
224.79	-0.000
225.01	-0.000
225.22	-0.000
225.44	-0.000
225.65	-0.000
225.86	-0.000
226.08	-0.000
226.29	-0.000
226.51	-0.000
226.72	-0.000
226.93	-0.000
227.15	-0.000
227.36	-0.000
227.58	-0.000
227.79	-0.000
228.00	-0.000
228.22	-0.000
228.43	-0.000
228.65	-0.000
228.86	-0.000
229.07	-0.000
229.29	-0.000
229.50	-0.000
229.72	-0.000
229.93	-0.000
230.14	-0.000
230.36	-0.000
230.57	-0.000
230.78	-0.000
231.00	-0.000
231.21	-0.000
231.43	-0.000
231.64	-0.000
231.85	-0.000
232.07	-0.000
232.28	-0.000
232.50	-0.000
232.71	-0.000
232.92	-0.000
233.14	-0.000
233.35	-0.000
233.56	-0.000
233.78	-0.000
233.99	-0.000
234.21	-0.000
234.42	-0.000
234.63	-0.000
234.85	-0.000
235.06	-0.000
235.27	-0.000
235.49	-0.000
235.70	-0.000
235.91	-0.000
236.13	-0.000
236.34	-0.000
236.56	-0.000
236.77	-0.000
236.98	-0.000
237.20	-0.000
237.41	-0.000
237.62	-0.000
237.84	-0.000
238.05	-0.000
238.26	-0.000
238.48	-0.000
238.69	-0.000
238.91	-0.000
239.12	-0.000
239.33	-0.000
239.55	-0.000
239.76	-0.000
239.97	-0.000
240.19	-0.000
240.40	-0.000
240.61	-0.000
240.83	-0.000
241.04	-0.000
241.25	-0.000
241.47	-0.000
241.68	-0.000
241.89	-0.000
242.11	-0.000
242.32	-0.000
242.53	-0.000
242.75	-0.000
242.96	-0.000
243.17	-0.000
243.39	-0.000
243.60	-0.000
243.81	-0.000
244.03	-0.000
244.24	-0.000
244.45	-0.000
244.67	-0.000
244.88	-0.000
245.09	-0.000
245.31	-0.000
245.52	-0.000
245.73	-0.000
245.95	-0.000
246.16	-0.000
246.37	-0.000
246.59	-0.000
246.80	-0.000
247.01	-0.000
247.23	-0.000
247.44	-0.000
247.65	-0.000
247.87	-0.000
248.08	-0.000
248.29	-0.000
248.51	-0.000
248.72	-0.000
248.93	-0.000
249.15	-0.000
249.36	-0.000
249.57	-0.000
249.78	-0.000
250.00	-0.000
250.21	-0.000
250.42	-0.000
250.64	-0.000
250.85	-0.000
251.06	-0.000
251.28	-0.000
251.49	-0.000
251.70	-0.000
251.92	-0.000
252.13	-0.000
252.34	-0.000
252.55	-0.000
252.77	-0.000
252.98	-0.000
253.19	-0.000
253.41	-0.000
253.62	-0.000
253.83	-0.000
254.05	-0.000
254.26	-0.000
254.47	-0.000
254.68	-0.000
254.90	-0.000
255.11	-0.000
255.32	-0.000
255.54	-0.000
255.75	-0.000
255.96	-0.000
256.17	-0.000
256.39	-0.000
256.60	-0.000
256.81	-0.000
257.03	-0.000
257.24	-0.000
257.45	-0.000
257.66	-0.000
257.88	-0.000
258.09	-0.000
258.30	-0.000
258.51	-0.000
258.73	-0.000
258.94	-0.000
259.15	-0.000
259.37	-0.000
259.58	-0.000
259.79	-0.000
260.00	-0.000
260.22	-0.000
260.43	-0.000
260.64	-0.000
260.85	-0.000
261.07	-0.000
261.28	-0.000
261.49	-0.000
261.71	-0.000
261.92	-0.000
262.13	-0.000
262.34	-0.000
262.56	-0.000
262.77	-0.000
262.98	-0.000
263.19	-0.000
263.41	-0.000
263.62	-0.000
263.83	-0.000
264.04	-0.000
264.26	-0.000
264.47	-0.000
264.68	-0.000
264.89	-0.000
265.11	-0.000
265.32	-0.000
265.53	-0.000
265.74	-0.000
265.96	-0.000
266.17	-0.000
266.38	-0.000
266.59	-0.000
266.81	-0.000
267.02	-0.000
267.23	-0.000
267.44	-0.000
267.65	-0.000
267.87	-0.000
268.08	-0.000
268.29	-0.000
268.50	-0.000
268.72	-0.000
268.93	-0.000
269.14	-0.000
269.35	-0.000
269.57	-0.000
269.78	-0.000
269.99	-0.000
270.20	-0.000
270.41	-0.000
270.63	-0.000
270.84	-0.000
271.05	-0.000
271.26	-0.000
271.48	-0.000
271.69	-0.000
271.90	-0.000
272.11	-0.000
272.32	-0.000
272.54	-0.000
272.75	-0.000
272.96	-0.000
273.17	-0.000
273.39	-0.000
273.60	-0.000
273.81	-0.000
274.02	-0.000
274.23	-0.000
274.45	-0.000
274.66	-0.000
274.87	-0.000
275.08	-0.000
275.29	-0.000
275.51	-0.000
275.72	-0.000
275.93	-0.000
276.14	-0.000
276.35	-0.000
276.57	-0.000
276.78	-0.000
276.99	-0.000
277.20	-0.000
277.41	-0.000
277.63	-0.000
277.84	-0.000
278.05	-0.000
278.26	-0.000
278.47	-0.000
278.69	-0.000
278.90	-0.000
279.11	-0.000
279.32	-0.000
279.53	-0.000
279.74	-0.000
279.96	-0.000
280.17	-0.000
280.38	-0.000
280.59	-0.000
280.80	-0.000
281.02	-0.000
281.23	-0.000
281.44	-0.000
281.65	-0.000
281.86	-0.000
282.07	-0.000
282.29	-0.000
282.50	-0.000
282.71	-0.000
282.92	-0.000
283.13	-0.000
283.35	-0.000
283.56	-0.000
283.77	-0.000
283.98	-0.000
284.19	-0.000
284.40	-0.000
284.62	-0.000
284.83	-0.000
285.04	-0.000
285.25	-0.000
285.46	-0.000
285.67	-0.000
285.88	-0.000
286.10	-0.000
286.31	-0.000
286.52	-0.000
286.73	-0.000
286.94	-0.000
287.15	-0.000
287.37	-0.000
287.58	-0.000
287.79	-0.000
288.00	-0.000
288.21	-0.000
288.42	-0.000
288.63	-0.000
288.85	-0.000
289.06	-0.000
289.27	-0.000
289.48	-0.000
289.69	-0.000
289.90	-0.000
290.11	-0.000
290.33	-0.000
290.54	-0.000
290.75	-0.000
290.96	-0.000
291.17	-0.000
291.38	-0.000
291.59	-0.000
291.81	-0.000
292.02	-0.000
292.23	-0.000
292.44	-0.000
292.65	-0.000
292.86	-0.000
293.07	-0.000
293.28	-0.000
293.50	-0.000
293.71	-0.000
293.92	-0.000
294.13	-0.000
294.34	-0.000
294.55	-0.000
294.76	-0.000
294.97	-0.000
295.19	-0.000
295.40	-0.000
295.61	-0.000
295.82	-0.000
296.03	-0.000
296.24	-0.000
296.45	-0.000
296.66	-0.000
296.87	-0.000
297.09	-0.000
297.30	-0.000
297.51	3.474
297.72	2.644
297.93	-0.000
298.14	-0.000
298.35	2.697
298.56	2.479
298.77	-0.000
298.99	-0.000
299.20	3.002
299.41	2.606
299.62	2.368
299.83	2.300
300.04	2.026
300.25	2.001
300.46	2.117
300.67	2.017
300.88	1.868
301.10	1.888
301.31	2.088
301.52	1.906
301.73	1.779
301.94	1.779
302.15	1.830
302.36	1.736
302.57	1.618
302.78	1.644
302.99	1.724
303.20	1.761
303.41	1.587
303.63	1.558
303.84	1.580
304.05	1.567
304.26	1.472
304.47	1.482
304.68	1.494
304.89	1.480
305.10	1.411
305.31	1.399
305.52	1.458
305.73	1.443
305.94	1.389
306.15	1.376
306.37	1.408
306.58	1.420
306.79	1.372
307.00	1.398
307.21	1.456
307.42	1.448
307.63	1.395
307.84	1.351
308.05	1.406
308.26	1.398
308.47	1.363
308.68	1.356
308.89	1.356
309.10	1.347
309.31	1.293
309.52	1.281
309.73	1.299
309.95	1.288
310.16	1.252
310.37	1.235
310.58	1.260
310.79	1.257
311.00	1.251
311.21	1.254
311.42	1.264
311.63	1.255
311.84	1.228
312.05	1.226
312.26	1.252
312.47	1.266
312.68	1.238
312.89	1.220
313.10	1.233
313.31	1.200
313.52	1.199
313.73	1.198
313.94	1.204
314.15	1.182
314.36	1.155
314.57	1.148
314.78	1.134
314.99	1.128
315.21	1.110
315.42	1.112
315.63	1.126
315.84	1.101
316.05	1.083
316.26	1.093
316.47	1.114
316.68	1.107
316.89	1.083
317.10	1.104
317.31	1.112
317.52	1.115
317.73	1.091
317.94	1.092
318.15	1.139
318.36	1.137
318.57	1.114
318.78	1.102
318.99	1.145
319.20	1.140
319.41	1.101
319.62	1.102
319.83	1.115
320.04	1.109
320.25	1.089
320.46	1.054
320.67	1.057
320.88	1.054
321.09	1.037
321.30	1.022
321.51	1.038
321.72	1.038
321.93	1.019
322.14	1.011
322.35	1.041
322.56	1.044
322.77	1.029
322.98	1.042
323.19	1.051
323.40	1.056
323.61	1.031
323.82	1.027
324.03	1.032
324.24	1.028
324.45	1.014
324.66	0.993
324.87	0.990
325.08	0.990
325.29	0.968
325.50	0.961
325.71	0.967
325.92	0.974
326.13	0.959
326.34	0.961
326.55	0.970
326.76	0.967
326.97	0.955
327.18	0.949
327.39	0.977
327.60	0.980
327.80	0.979
328.01	0.977
328.22	0.979
328.43	0.983
328.64	0.968
328.85	0.973
329.06	0.976
329.27	0.975
329.48	0.969
329.69	0.949
329.90	0.959
330.11	0.951
330.32	0.943
330.53	0.936
330.74	0.936
330.95	0.935
331.16	0.920
331.37	0.928
331.58	0.930
331.79	0.930
332.00	0.919
332.21	0.914
332.42	0.918
332.63	0.909
332.83	0.903
333.04	0.905
333.25	0.916
333.46	0.914
333.67	0.898
333.88	0.900
334.09	0.910
334.30	0.906
334.51	0.896
334.72	0.892
334.93	0.896
335.14	0.895
335.35	0.888
335.56	0.885
335.77	0.894
335.98	0.893
336.18	0.886
336.39	0.878
336.60	0.884
336.81	0.881
337.02	0.879
337.23	0.883
337.44	0.887
337.65	0.887
337.86	0.875
338.07	0.870
338.28	0.877
338.49	0.874
338.70	0.866
338.91	0.872
339.11	0.881
339.32	0.877
339.53	0.864
339.74	0.861
339.95	0.860
340.16	0.859
340.37	0.851
340.58	0.849
340.79	0.853
341.00	0.853
341.21	0.843
341.41	0.843
341.62	0.846
341.83	0.846
342.04	0.841
342.25	0.851
342.46	0.856
342.67	0.854
342.88	0.845
343.09	0.843
343.30	0.852
343.50	0.855
343.71	0.843
343.92	0.841
344.13	0.846
344.34	0.846
344.55	0.829
344.76	0.828
344.97	0.834
345.18	0.832
345.38	0.828
345.59	0.823
345.80	0.823
346.01	0.821
346.22	0.816
346.43	0.811
346.64	0.820
346.85	0.819
347.06	0.811
347.26	0.810
347.47	0.814
347.68	0.811
347.89	0.805
348.10	0.800
348.31	0.808
348.52	0.809
348.73	0.804
348.93	0.800
349.14	0.803
349.35	0.802
349.56	0.797
349.77	0.792
349.98	0.799
350.19	0.798
350.39	0.792
350.60	0.787
350.81	0.803
351.02	0.803
351.23	0.797
351.44	0.799
351.65	0.803
351.86	0.801
352.06	0.799
352.27	0.800
352.48	0.800
352.69	0.798
352.90	0.793
353.11	0.780
353.31	0.787
353.52	0.784
353.73	0.776
353.94	0.777
354.15	0.783
354.36	0.782
354.57	0.772
354.77	0.776
354.98	0.775
355.19	0.774
355.40	0.772
355.61	0.779
355.82	0.784
356.02	0.784
356.23	0.776
356.44	0.777
356.65	0.781
356.86	0.782
357.07	0.775
357.27	0.779
357.48	0.783
357.69	0.778
357.90	0.762
358.11	0.758
358.32	0.762
358.52	0.765
358.73	0.756
358.94	0.757
359.15	0.763
359.36	0.763
359.56	0.757
359.77	0.754
359.98	0.761
360.19	0.761
360.40	0.757
360.61	0.757
360.81	0.757
361.02	0.757
361.23	0.748
361.44	0.746
361.65	0.748
361.85	0.748
362.06	0.746
362.27	0.748
362.48	0.749
362.69	0.752
362.89	0.745
363.10	0.747
363.31	0.752
363.52	0.756
363.73	0.751
363.93	0.752
364.14	0.755
364.35	0.756
364.56	0.744
364.77	0.746
364.97	0.749
365.18	0.750
365.39	0.744
365.60	0.740
365.81	0.741
366.01	0.740
366.22	0.736
366.43	0.735
366.64	0.738
366.84	0.744
367.05	0.740
367.26	0.739
367.47	0.741
367.68	0.741
367.88	0.737
368.09	0.736
368.30	0.739
368.51	0.738
368.71	0.736
368.92	0.740
369.13	0.739
369.34	0.738
369.55	0.737
369.75	0.737
369.96	0.745
370.17	0.745
370.38	0.741
370.58	0.740
370.79	0.747
371.00	0.746
371.21	0.737
371.41	0.742
371.62	0.748
371.83	0.743
372.04	0.740
372.24	0.732
372.45	0.733
372.66	0.734
372.87	0.730
373.07	0.726
373.28	0.727
373.49	0.730
373.70	0.720
373.90	0.719
374.11	0.729
374.32	0.729
374.53	0.728
374.73	0.728
374.94	0.731
375.15	0.731
375.36	0.727
375.56	0.735
375.77	0.736
375.98	0.736
376.19	0.733
376.39	0.726
376.60	0.730
376.81	0.730
377.02	0.728
377.22	0.727
377.43	0.727
377.64	0.727
377.84	0.718
378.05	0.723
378.26	0.729
378.47	0.728
378.67	0.724
378.88	0.721
379.09	0.722
379.30	0.722
379.50	0.719
379.71	0.720
379.92	0.724
380.12	0.723
380.33	0.715
380.54	0.711
380.75	0.719
380.95	0.718
381.16	0.716
381.37	0.716
381.57	0.718
381.78	0.718
381.99	0.718
382.20	0.717
382.40	0.721
382.61	0.720
382.82	0.716
383.02	0.710
383.23	0.714
383.44	0.714
383.64	0.712
383.85	0.715
384.06	0.718
384.27	0.716
384.47	0.713
384.68	0.713
384.89	0.720
385.09	0.719
385.30	0.718
385.51	0.716
385.71	0.720
385.92	0.720
386.13	0.717
386.33	0.719
386.54	0.721
386.75	0.719
386.95	0.715
387.16	0.709
387.37	0.712
387.58	0.712
387.78	0.709
387.99	0.706
388.20	0.708
388.40	0.705
388.61	0.701
388.82	0.704
389.02	0.707
389.23	0.708
389.44	0.706
389.64	0.706
389.85	0.717
390.06	0.717
390.26	0.717
390.47	0.716
390.68	0.719
390.88	0.716
391.09	0.711
391.30	0.711
391.50	0.711
391.71	0.710
391.92	0.707
392.12	0.699
392.33	0.699
392.53	0.699
392.74	0.699
392.95	0.698
393.15	0.701
393.36	0.703
393.57	0.700
393.77	0.703
393.98	0.705
394.19	0.704
394.39	0.704
394.60	0.705
394.81	0.707
395.01	0.705
395.22	0.703
395.43	0.704
395.63	0.708
395.84	0.709
396.04	0.705
396.25	0.706
396.46	0.709
396.66	0.706
396.87	0.703
397.08	0.700
397.28	0.703
397.49	0.704
397.69	0.700
397.90	0.695
398.11	0.696
398.31	0.697
398.52	0.693
398.73	0.693
398.93	0.693
399.14	0.692
399.34	0.691
399.55	0.691
399.76	0.691
399.96	0.692
400.17	0.690
400.37	0.689
400.58	0.695
400.79	0.697
400.99	0.694
401.20	0.699
401.41	0.702
401.61	0.703
401.82	0.708
402.02	0.707
402.23	0.709
402.44	0.709
402.64	0.708
402.85	0.703
403.05	0.701
403.26	0.700
403.47	0.694
403.67	0.693
403.88	0.694
404.08	0.688
404.29	0.686
404.50	0.685
404.70	0.685
404.91	0.685
405.11	0.681
405.32	0.682
405.52	0.683
405.73	0.682
405.94	0.680
406.14	0.682
406.35	0.684
406.55	0.683
406.76	0.681
406.97	0.682
407.17	0.684
407.38	0.683
407.58	0.681
407.79	0.685
407.99	0.687
408.20	0.688
408.41	0.683
408.61	0.682
408.82	0.684
409.02	0.683
409.23	0.681
409.43	0.680
409.64	0.682
409.84	0.681
410.05	0.677
410.26	0.676
410.46	0.676
410.67	0.675
410.87	0.676
411.08	0.677
411.28	0.679
411.49	0.680
411.69	0.677
411.90	0.678
412.11	0.679
412.31	0.680
412.52	0.678
412.72	0.679
412.93	0.681
413.13	0.680
413.34	0.676
413.54	0.678
413.75	0.680
413.95	0.679
414.16	0.676
414.37	0.679
414.57	0.680
414.78	0.682
414.98	0.679
415.19	0.680
415.39	0.678
415.60	0.680
415.80	0.680
416.01	0.678
416.21	0.680
416.42	0.680
416.62	0.675
416.83	0.675
417.03	0.675
417.24	0.675
417.44	0.673
417.65	0.673
417.86	0.673
418.06	0.670
418.27	0.668
418.47	0.670
418.68	0.671
418.88	0.671
419.09	0.670
419.29	0.670
419.50	0.671
419.70	0.670
419.91	0.669
420.11	0.667
420.32	0.670
420.52	0.669
420.73	0.668
420.93	0.669
421.14	0.671
421.34	0.669
421.55	0.666
421.75	0.666
421.96	0.667
422.16	0.668
422.37	0.666
422.57	0.663
422.78	0.665
422.98	0.662
423.19	0.660
423.39	0.658
423.60	0.662
423.80	0.664
424.01	0.662
424.21	0.664
424.42	0.666
424.62	0.666
424.83	0.665
425.03	0.665
425.23	0.667
425.44	0.668
425.64	0.668
425.85	0.667
426.05	0.668
426.26	0.669
426.46	0.665
426.67	0.664
426.87	0.669
427.08	0.670
427.28	0.666
427.49	0.667
427.69	0.668
427.90	0.667
428.10	0.664
428.31	0.664
428.51	0.666
428.71	0.665
428.92	0.665
429.12	0.663
429.33	0.665
429.53	0.669
429.74	0.673
429.94	0.673
430.15	0.672
430.35	0.672
430.56	0.669
430.76	0.669
430.96	0.670
431.17	0.668
431.37	0.665
431.58	0.663
431.78	0.661
431.99	0.654
432.19	0.656
432.40	0.659
432.60	0.660
432.80	0.663
433.01	0.661
433.21	0.661
433.42	0.663
433.62	0.663
433.83	0.663
434.03	0.665
434.23	0.668
434.44	0.666
434.64	0.663
434.85	0.668
435.05	0.669
435.26	0.670
435.46	0.668
435.66	0.668
435.87	0.668
436.07	0.669
436.28	0.664
436.48	0.661
436.69	0.662
436.89	0.662
437.09	0.656
437.30	0.654
437.50	0.655
437.71	0.667
437.91	0.666
438.11	0.667
438.32	0.672
438.52	0.672
438.73	0.671
438.93	0.669
439.13	0.670
439.34	0.673
439.54	0.671
439.75	0.670
439.95	0.660
440.15	0.665
440.36	0.663
440.56	0.661
440.77	0.662
440.97	0.662
441.17	0.661
441.38	0.662
441.58	0.660
441.79	0.660
441.99	0.659
442.19	0.658
442.40	0.656
442.60	0.656
442.81	0.653
443.01	0.653
443.21	0.654
443.42	0.654
443.62	0.652
443.82	0.652
444.03	0.653
444.23	0.653
444.44	0.653
444.64	0.651
444.84	0.653
445.05	0.653
445.25	0.651
445.45	0.652
445.66	0.654
445.86	0.654
446.06	0.655
446.27	0.654
446.47	0.658
446.68	0.656
446.88	0.655
447.08	0.655
447.29	0.657
447.49	0.657
447.69	0.656
447.90	0.655
448.10	0.658
448.30	0.655
448.51	0.657
448.71	0.654
448.91	0.657
449.12	0.656
449.32	0.657
449.52	0.656
449.73	0.660
449.93	0.659
450.14	0.659
450.34	0.659
450.54	0.662
450.75	0.659
450.95	0.658
451.15	0.658
451.36	0.661
451.56	0.657
451.76	0.656
451.97	0.653
452.17	0.655
452.37	0.653
452.58	0.649
452.78	0.649
452.98	0.652
453.19	0.652
453.39	0.652
453.59	0.651
453.79	0.653
454.00	0.654
454.20	0.652
454.40	0.653
454.61	0.655
454.81	0.657
455.01	0.655
455.22	0.655
455.42	0.657
455.62	0.655
455.83	0.655
456.03	0.658
456.23	0.659
456.44	0.660
456.64	0.658
456.84	0.659
457.04	0.659
457.25	0.658
457.45	0.655
457.65	0.653
457.86	0.655
458.06	0.654
458.26	0.649
458.47	0.648
458.67	0.650
458.87	0.651
459.07	0.648
459.28	0.650
459.48	0.653
459.68	0.653
459.89	0.652
460.09	0.650
460.29	0.652
460.49	0.653
460.70	0.651
460.90	0.650
461.10	0.652
461.31	0.651
461.51	0.648
461.71	0.650
461.91	0.652
462.12	0.652
462.32	0.651
462.52	0.652
462.72	0.655
462.93	0.656
463.13	0.655
463.33	0.655
463.53	0.657
463.74	0.656
463.94	0.651
464.14	0.652
464.35	0.653
464.55	0.653
464.75	0.651
464.95	0.649
465.16	0.651
465.36	0.649
465.56	0.648
465.76	0.648
465.97	0.648
466.17	0.649
466.37	0.647
466.57	0.648
466.78	0.650
466.98	0.650
467.18	0.647
467.38	0.646
467.59	0.648
467.79	0.649
467.99	0.648
468.19	0.649
468.39	0.653
468.60	0.653
468.80	0.650
469.00	0.652
469.20	0.653
469.41	0.653
469.61	0.652
469.81	0.653
470.01	0.652
470.22	0.652
470.42	0.651
470.62	0.648
470.82	0.650
471.02	0.649
471.23	0.647
471.43	0.647
471.63	0.650
471.83	0.649
472.04	0.647
472.24	0.646
472.44	0.652
472.64	0.652
472.84	0.650
473.05	0.649
473.25	0.653
473.45	0.651
473.65	0.649
473.85	0.649
474.06	0.651
474.26	0.651
474.46	0.651
474.66	0.648
474.86	0.648
475.07	0.649
475.27	0.647
475.47	0.644
475.67	0.646
475.87	0.649
476.08	0.645
476.28	0.646
476.48	0.648
476.68	0.646
476.88	0.644
477.09	0.645
477.29	0.647
477.49	0.647
477.69	0.646
477.89	0.646
478.09	0.645
478.30	0.648
478.50	0.644
478.70	0.644
478.90	0.644
479.10	0.647
479.31	0.648
479.51	0.646
479.71	0.648
479.91	0.648
480.11	0.646
480.31	0.647
480.52	0.646
480.72	0.646
480.92	0.645
481.12	0.644
481.32	0.641
481.52	0.640
481.72	0.640
481.93	0.643
482.13	0.644
482.33	0.643
482.53	0.641
482.73	0.641
482.93	0.643
483.14	0.642
483.34	0.641
483.54	0.642
483.74	0.641
483.94	0.640
484.14	0.635
484.34	0.635
484.55	0.636
484.75	0.636
484.95	0.634
485.15	0.634
485.35	0.635
485.55	0.634
485.75	0.632
485.96	0.632
486.16	0.635
486.36	0.634
486.56	0.632
486.76	0.632
486.96	0.633
487.16	0.632
487.36	0.630
487.57	0.629
487.77	0.630
487.97	0.630
488.17	0.629
488.37	0.628
488.57	0.628
488.77	0.629
488.97	0.627
489.18	0.627
489.38	0.630
489.58	0.631
489.78	0.630
489.98	0.629
490.18	0.629
490.38	0.630
490.58	0.629
490.78	0.629
490.98	0.632
491.19	0.632
491.39	0.631
491.59	0.629
491.79	0.632
491.99	0.633
492.19	0.632
492.39	0.635
492.59	0.635
492.79	0.637
492.99	0.637
493.20	0.637
493.40	0.637
493.60	0.638
493.80	0.637
494.00	0.635
494.20	0.635
494.40	0.635
494.60	0.632
494.80	0.637
495.00	0.636
495.20	0.635
495.40	0.633
495.61	0.635
495.81	0.635
496.01	0.639
496.21	0.640
496.41	0.639
496.61	0.640
496.81	0.639
497.01	0.634
497.21	0.633
497.41	0.635
497.61	0.635
497.81	0.632
498.01	0.632
498.21	0.630
498.41	0.628
498.61	0.628
498.82	0.629
499.02	0.631
499.22	0.632
499.42	0.631
499.62	0.632
499.82	0.632
500.02	0.634
500.22	0.633
500.42	0.635
500.62	0.636
500.82	0.636
501.02	0.634
501.22	0.633
501.42	0.633
501.62	0.635
501.82	0.635
502.02	0.635
502.22	0.635
502.42	0.637
502.62	0.634
502.82	0.634
503.02	0.635
503.22	0.635
503.42	0.633
503.63	0.633
503.83	0.632
504.03	0.631
504.23	0.629
504.43	0.629
504.63	0.631
504.83	0.630
505.03	0.629
505.23	0.631
505.43	0.632
505.63	0.633
505.83	0.633
506.03	0.634
506.23	0.637
506.43	0.637
506.63	0.636
506.83	0.634
507.03	0.636
507.23	0.637
507.43	0.634
507.63	0.635
507.83	0.636
508.03	0.636
508.23	0.635
508.43	0.634
508.63	0.636
508.83	0.636
509.03	0.637
509.23	0.636
509.43	0.637
509.63	0.638
509.83	0.636
510.03	0.638
510.23	0.640
510.43	0.640
510.63	0.641
510.83	0.640
511.03	0.641
511.23	0.639
511.43	0.638
511.63	0.639
511.83	0.642
512.03	0.642
512.22	0.638
512.42	0.638
512.62	0.639
512.82	0.639
513.02	0.638
513.22	0.638
513.42	0.640
513.62	0.643
513.82	0.641
514.02	0.641
514.22	0.642
514.42	0.643
514.62	0.642
514.82	0.642
515.02	0.645
515.22	0.648
515.42	0.647
515.62	0.649
515.82	0.648
516.02	0.649
516.22	0.648
516.42	0.649
516.62	0.651
516.82	0.653
517.01	0.651
517.21	0.650
517.41	0.654
517.61	0.655
517.81	0.650
518.01	0.650
518.21	0.651
518.41	0.650
518.61	0.649
518.81	0.649
519.01	0.650
519.21	0.651
519.41	0.650
519.61	0.643
519.81	0.646
520.00	0.647
520.20	0.647
520.40	0.650
520.60	0.651
520.80	0.649
521.00	0.649
521.20	0.651
521.40	0.656
521.60	0.656
521.80	0.655
522.00	0.656
522.20	0.658
522.39	0.657
522.59	0.654
522.79	0.657
522.99	0.659
523.19	0.657
523.39	0.654
523.59	0.652
523.79	0.655
523.99	0.657
524.19	0.656
524.38	0.654
524.58	0.656
524.78	0.656
524.98	0.654
525.18	0.657
525.38	0.658
525.58	0.659
525.78	0.656
525.98	0.654
526.18	0.656
526.37	0.655
526.57	0.657
526.77	0.657
526.97	0.658
527.17	0.658
527.37	0.653
527.57	0.656
527.77	0.658
527.96	0.659
528.16	0.658
528.36	0.658
528.56	0.660
528.76	0.657
528.96	0.656
529.16	0.657
529.36	0.661
529.55	0.661
529.75	0.657
529.95	0.657
530.15	0.659
530.35	0.662
530.55	0.659
530.75	0.659
530.94	0.661
531.14	0.661
531.34	0.659
531.54	0.657
531.74	0.660
531.94	0.663
532.13	0.661
532.33	0.663
532.53	0.661
532.73	0.661
532.93	0.658
533.13	0.660
533.33	0.661
533.52	0.661
533.72	0.664
533.92	0.662
534.12	0.660
534.32	0.661
534.52	0.659
534.71	0.661
534.91	0.664
535.11	0.666
535.31	0.663
535.51	0.666
535.71	0.668
535.90	0.665
536.10	0.665
536.30	0.668
536.50	0.668
536.70	0.669
536.89	0.666
537.09	0.665
537.29	0.666
537.49	0.667
537.69	0.665
537.89	0.666
538.08	0.666
538.28	0.664
538.48	0.665
538.68	0.667
538.88	0.669
539.07	0.669
539.27	0.667
539.47	0.666
539.67	0.666
539.87	0.668
540.06	0.665
540.26	0.665
540.46	0.668
540.66	0.665
540.86	0.662
541.05	0.662
541.25	0.664
541.45	0.664
541.65	0.662
541.84	0.664
542.04	0.665
542.24	0.666
542.44	0.665
542.64	0.665
542.83	0.668
543.03	0.670
543.23	0.667
543.43	0.668
543.62	0.669
543.82	0.670
544.02	0.669
544.22	0.669
544.42	0.672
544.61	0.673
544.81	0.669
545.01	0.669
545.21	0.671
545.40	0.672
545.60	0.669
545.80	0.672
546.00	0.673
546.19	0.672
546.39	0.671
546.59	0.668
546.79	0.671
546.98	0.671
547.18	0.670
547.38	0.671
547.58	0.673
547.77	0.674
547.97	0.670
548.17	0.671
548.37	0.672
548.56	0.672
548.76	0.670
548.96	0.672
549.16	0.676
549.35	0.676
549.55	0.673
549.75	0.674
549.95	0.678
550.14	0.677
550.34	0.675
550.54	0.680
550.73	0.685
550.93	0.686
551.13	0.682
551.33	0.680
551.52	0.680
551.72	0.681
551.92	0.679
552.12	0.679
552.31	0.680
552.51	0.680
552.71	0.675
552.90	0.675
553.10	0.677
553.30	0.677
553.50	0.676
553.69	0.678
553.89	0.679
554.09	0.679
554.28	0.675
554.48	0.677
554.68	0.679
554.87	0.679
555.07	0.675
555.27	0.675
555.47	0.677
555.66	0.677
555.86	0.676
556.06	0.678
556.25	0.679
556.45	0.687
556.65	0.684
556.84	0.688
557.04	0.692
557.24	0.693
557.43	0.693
557.63	0.697
557.83	0.699
558.02	0.699
558.22	0.702
558.42	0.703
558.61	0.696
558.81	0.696
559.01	0.692
559.21	0.691
559.40	0.692
559.60	0.692
559.80	0.687
559.99	0.688
560.19	0.691
560.39	0.685
560.58	0.682
560.78	0.683
560.97	0.687
561.17	0.686
561.37	0.683
561.56	0.684
561.76	0.686
561.96	0.686
562.15	0.684
562.35	0.686
562.55	0.688
562.74	0.688
562.94	0.686
563.14	0.684
563.33	0.685
563.53	0.685
563.73	0.681
563.92	0.684
564.12	0.686
564.31	0.688
564.51	0.685
564.71	0.688
564.90	0.691
565.10	0.691
565.30	0.694
565.49	0.695
565.69	0.698
565.89	0.698
566.08	0.694
566.28	0.695
566.47	0.697
566.67	0.695
566.87	0.691
567.06	0.693
567.26	0.699
567.46	0.694
567.65	0.692
567.85	0.694
568.04	0.698
568.24	0.697
568.44	0.694
568.63	0.692
568.83	0.694
569.02	0.693
569.22	0.688
569.42	0.685
569.61	0.688
569.81	0.686
570.00	0.683
570.20	0.685
570.40	0.686
570.59	0.686
570.79	0.684
570.98	0.682
571.18	0.683
571.38	0.683
571.57	0.680
571.77	0.678
571.96	0.682
572.16	0.680
572.35	0.674
572.55	0.675
572.75	0.673
572.94	0.673
573.14	0.671
573.33	0.671
573.53	0.672
573.73	0.672
573.92	0.669
574.12	0.668
574.31	0.670
574.51	0.671
574.70	0.668
574.90	0.669
575.09	0.672
575.29	0.672
575.49	0.669
575.68	0.669
575.88	0.671
576.07	0.673
576.27	0.670
576.46	0.669
576.66	0.668
576.86	0.667
577.05	0.665
577.25	0.662
577.44	0.665
577.64	0.664
577.83	0.662
578.03	0.662
578.22	0.661
578.42	0.661
578.61	0.659
578.81	0.660
579.00	0.661
579.20	0.661
579.40	0.660
579.59	0.659
579.79	0.660
579.98	0.659
580.18	0.659
580.37	0.660
580.57	0.662
580.76	0.667
580.96	0.665
581.15	0.665
581.35	0.668
581.54	0.667
581.74	0.667
581.93	0.668
582.13	0.670
582.32	0.667
582.52	0.665
582.71	0.665
582.91	0.661
583.10	0.661
583.30	0.659
583.49	0.658
583.69	0.663
583.88	0.664
584.08	0.663
584.27	0.665
584.47	0.668
584.66	0.668
584.86	0.667
585.05	0.669
585.25	0.672
585.44	0.671
585.64	0.669
585.83	0.666
586.03	0.666
586.22	0.665
586.42	0.661
586.61	0.663
586.81	0.666
587.00	0.666
587.20	0.663
587.39	0.664
587.59	0.666
587.78	0.668
587.98	0.668
588.17	0.669
588.37	0.671
588.56	0.674
588.76	0.669
588.95	0.670
589.15	0.674
589.34	0.677
589.54	0.675
589.73	0.676
589.92	0.679
590.12	0.679
590.31	0.676
590.51	0.681
590.70	0.682
590.90	0.683
591.09	0.680
591.29	0.678
591.48	0.678
591.68	0.679
591.87	0.677
592.06	0.677
592.26	0.679
592.45	0.679
592.65	0.672
592.84	0.672
593.04	0.675
593.23	0.677
593.43	0.675
593.62	0.675
593.81	0.675
594.01	0.675
594.20	0.672
594.40	0.672
594.59	0.674
594.79	0.675
594.98	0.673
595.17	0.672
595.37	0.673
595.56	0.675
595.76	0.674
595.95	0.675
596.14	0.679
596.34	0.680
596.53	0.678
596.73	0.679
596.92	0.681
597.12	0.684
597.31	0.683
597.50	0.682
597.70	0.685
597.89	0.683
598.09	0.680
598.28	0.681
598.47	0.683
598.67	0.682
598.86	0.678
599.06	0.680
599.25	0.680
599.44	0.679
599.64	0.676
599.83	0.673
600.03	0.677
600.22	0.678
600.41	0.677
600.61	0.676
600.80	0.679
601.00	0.680
601.19	0.675
601.38	0.673
601.58	0.676
601.77	0.677
601.96	0.679
602.16	0.679
602.35	0.689
602.55	0.686
602.74	0.686
602.93	0.687
603.13	0.692
603.32	0.694
603.51	0.692
603.71	0.695
603.90	0.697
604.09	0.698
604.29	0.694
604.48	0.689
604.68	0.690
604.87	0.689
605.06	0.685
605.26	0.682
605.45	0.683
605.64	0.683
605.84	0.678
606.03	0.677
606.22	0.677
606.42	0.677
606.61	0.673
606.80	0.673
607.00	0.675
607.19	0.675
607.38	0.674
607.58	0.675
607.77	0.678
607.96	0.678
608.16	0.676
608.35	0.680
608.54	0.684
608.74	0.687
608.93	0.692
609.12	0.694
609.32	0.698
609.51	0.701
609.70	0.699
609.90	0.701
610.09	0.705
610.28	0.711
610.48	0.704
610.67	0.705
610.86	0.707
611.06	0.701
611.25	0.699
611.44	0.699
611.64	0.700
611.83	0.703
612.02	0.699
612.21	0.698
612.41	0.697
612.60	0.696
612.79	0.692
612.99	0.691
613.18	0.694
613.37	0.691
613.57	0.688
613.76	0.689
613.95	0.686
614.14	0.686
614.34	0.683
614.53	0.684
614.72	0.687
614.92	0.688
615.11	0.684
615.30	0.682
615.49	0.684
615.69	0.686
615.88	0.684
616.07	0.686
616.26	0.689
616.46	0.690
616.65	0.686
616.84	0.685
617.04	0.687
617.23	0.691
617.42	0.690
617.61	0.694
617.81	0.695
618.00	0.696
618.19	0.695
618.38	0.698
618.58	0.702
618.77	0.704
618.96	0.703
619.15	0.704
619.35	0.706
619.54	0.707
619.73	0.702
619.92	0.704
620.12	0.708
620.31	0.707
620.50	0.702
620.69	0.702
620.89	0.707
621.08	0.707
621.27	0.706
621.46	0.706
621.66	0.711
621.85	0.711
622.04	0.707
622.23	0.707
622.43	0.709
622.62	0.708
622.81	0.706
623.00	0.705
623.19	0.710
623.39	0.709
623.58	0.705
623.77	0.703
623.96	0.707
624.16	0.707
624.35	0.702
624.54	0.705
624.73	0.711
624.92	0.709
625.12	0.705
625.31	0.706
625.50	0.710
625.69	0.711
625.88	0.707
626.08	0.706
626.27	0.709
626.46	0.709
626.65	0.705
626.84	0.704
627.04	0.710
627.23	0.710
627.42	0.705
627.61	0.706
627.80	0.710
628.00	0.711
628.19	0.708
628.38	0.712
628.57	0.715
628.76	0.715
628.96	0.712
629.15	0.713
629.34	0.717
629.53	0.717
629.72	0.711
629.91	0.712
630.11	0.716
630.30	0.717
630.49	0.719
630.68	0.719
630.87	0.723
631.06	0.725
631.26	0.719
631.45	0.721
631.64	0.730
631.83	0.732
632.02	0.729
632.21	0.728
632.41	0.736
632.60	0.731
632.79	0.729
632.98	0.729
633.17	0.730
633.36	0.733
633.55	0.727
633.75	0.724
633.94	0.727
634.13	0.728
634.32	0.724
634.51	0.718
634.70	0.721
634.89	0.721
635.09	0.717
635.28	0.719
635.47	0.721
635.66	0.724
635.85	0.719
636.04	0.719
636.23	0.725
636.43	0.726
636.62	0.724
636.81	0.722
637.00	0.726
637.19	0.729
637.38	0.725
637.57	0.724
637.76	0.726
637.95	0.728
638.15	0.723
638.34	0.719
638.53	0.724
638.72	0.726
638.91	0.722
639.10	0.720
639.29	0.721
639.48	0.722
639.67	0.721
639.87	0.720
640.06	0.726
640.25	0.727
640.44	0.727
640.63	0.727
640.82	0.730
641.01	0.730
641.20	0.729
641.39	0.730
641.58	0.733
641.78	0.732
641.97	0.727
642.16	0.742
642.35	0.743
642.54	0.741
642.73	0.734
642.92	0.732
643.11	0.738
643.30	0.737
643.49	0.732
643.68	0.734
643.87	0.737
644.06	0.738
644.25	0.715
644.45	0.718
644.64	0.720
644.83	0.722
645.02	0.717
645.21	0.716
645.40	0.718
645.59	0.718
645.78	0.711
645.97	0.713
646.16	0.714
646.35	0.714
646.54	0.711
646.73	0.713
646.92	0.716
647.11	0.715
647.30	0.710
647.49	0.712
647.68	0.713
647.88	0.711
648.07	0.704
648.26	0.707
648.45	0.709
648.64	0.705
648.83	0.702
649.02	0.704
649.21	0.716
649.40	0.716
649.59	0.710
649.78	0.711
649.97	0.727
650.16	0.726
650.35	0.720
650.54	0.722
650.73	0.731
650.92	0.727
651.11	0.719
651.30	0.717
651.49	0.722
651.68	0.722
651.87	0.717
652.06	0.706
652.25	0.710
652.44	0.712
652.63	0.707
652.82	0.706
653.01	0.706
653.20	0.704
653.39	0.691
653.58	0.688
653.77	0.687
653.96	0.683
654.15	0.675
654.34	0.673
654.53	0.669
654.72	0.664
654.91	0.654
655.10	0.650
655.29	0.649
655.48	0.647
655.67	0.642
655.86	0.639
656.05	0.638
656.24	0.638
656.43	0.633
656.62	0.632
656.81	0.633
657.00	0.632
657.19	0.630
657.38	0.630
657.57	0.630
657.76	0.633
657.95	0.631
658.14	0.634
658.33	0.637
658.51	0.643
658.70	0.644
658.89	0.645
659.08	0.653
659.27	0.661
659.46	0.660
659.65	0.667
659.84	0.670
660.03	0.673
660.22	0.674
660.41	0.678
660.60	0.677
660.79	0.678
660.98	0.683
661.17	0.683
661.36	0.682
661.55	0.683
661.74	0.680
661.92	0.684
662.11	0.687
662.30	0.684
662.49	0.677
662.68	0.677
662.87	0.681
663.06	0.674
663.25	0.675
663.44	0.675
663.63	0.677
663.82	0.676
664.01	0.669
664.20	0.668
664.38	0.670
664.57	0.671
664.76	0.670
664.95	0.671
665.14	0.677
665.33	0.671
665.52	0.678
665.71	0.681
665.90	0.681
666.09	0.683
666.28	0.681
666.46	0.681
666.65	0.682
666.84	0.680
667.03	0.673
667.22	0.671
667.41	0.675
667.60	0.665
667.79	0.657
667.98	0.659
668.16	0.660
668.35	0.659
668.54	0.653
668.73	0.654
668.92	0.655
669.11	0.655
669.30	0.648
669.49	0.644
669.67	0.646
669.86	0.648
670.05	0.645
670.24	0.643
670.43	0.641
670.62	0.640
670.81	0.635
671.00	0.636
671.18	0.636
671.37	0.636
671.56	0.633
671.75	0.633
671.94	0.630
672.13	0.628
672.32	0.623
672.50	0.622
672.69	0.623
672.88	0.624
673.07	0.619
673.26	0.621
673.45	0.623
673.63	0.622
673.82	0.619
674.01	0.620
674.20	0.620
674.39	0.620
674.58	0.619
674.76	0.619
674.95	0.618
675.14	0.617
675.33	0.612
675.52	0.610
675.71	0.611
675.89	0.610
676.08	0.605
676.27	0.606
676.46	0.607
676.65	0.606
676.84	0.605
677.02	0.606
677.21	0.609
677.40	0.608
677.59	0.606
677.78	0.607
677.96	0.610
678.15	0.609
678.34	0.606
678.53	0.607
678.72	0.607
678.90	0.604
679.09	0.600
679.28	0.596
679.47	0.596
679.66	0.596
679.84	0.592
680.03	0.589
680.22	0.588
680.41	0.590
680.60	0.586
680.78	0.585
680.97	0.589
681.16	0.588
681.35	0.587
681.53	0.586
681.72	0.587
681.91	0.589
682.10	0.587
682.29	0.590
682.47	0.588
682.66	0.588
682.85	0.586
683.04	0.583
683.22	0.583
683.41	0.585
683.60	0.584
683.79	0.585
683.97	0.585
684.16	0.583
684.35	0.579
684.54	0.580
684.72	0.580
684.91	0.581
685.10	0.579
685.29	0.581
685.47	0.578
685.66	0.577
685.85	0.574
686.04	0.572
686.22	0.575
686.41	0.578
686.60	0.575
686.79	0.578
686.97	0.579
687.16	0.580
687.35	0.577
687.54	0.581
687.72	0.586
687.91	0.585
688.10	0.587
688.29	0.586
688.47	0.584
688.66	0.584
688.85	0.580
689.03	0.578
689.22	0.583
689.41	0.582
689.60	0.577
689.78	0.574
689.97	0.575
690.16	0.573
690.34	0.569
690.53	0.568
690.72	0.569
690.91	0.567
691.09	0.565
691.28	0.559
691.47	0.558
691.65	0.557
691.84	0.554
692.03	0.553
692.21	0.551
692.40	0.551
692.59	0.549
692.77	0.548
692.96	0.549
693.15	0.550
693.34	0.547
693.52	0.548
693.71	0.548
693.90	0.550
694.08	0.550
694.27	0.551
694.46	0.561
694.64	0.561
694.83	0.560
695.02	0.559
695.20	0.560
695.39	0.559
695.58	0.559
695.76	0.559
695.95	0.560
696.14	0.558
696.32	0.556
696.51	0.545
696.70	0.546
696.88	0.548
697.07	0.546
697.26	0.548
697.44	0.549
697.63	0.548
697.81	0.545
698.00	0.545
698.19	0.545
698.37	0.546
698.56	0.546
698.75	0.545
698.93	0.545
699.12	0.544
699.31	0.542
699.49	0.542
699.68	0.544
699.87	0.546
700.05	0.546
700.24	0.544
700.42	0.547
700.61	0.546
700.80	0.543
700.98	0.544
701.17	0.546
701.36	0.545
701.54	0.543
701.73	0.545
701.91	0.543
702.10	0.542
702.29	0.540
702.47	0.538
702.66	0.540
702.84	0.542
703.03	0.539
703.22	0.541
703.40	0.541
703.59	0.542
703.77	0.541
703.96	0.541
704.15	0.542
704.33	0.542
704.52	0.541
704.70	0.541
704.89	0.540
705.08	0.539
705.26	0.534
705.45	0.534
705.63	0.535
705.82	0.532
706.00	0.530
706.19	0.529
706.38	0.529
706.56	0.528
706.75	0.526
706.93	0.525
707.12	0.527
707.30	0.527
707.49	0.525
707.68	0.523
707.86	0.522
708.05	0.522
708.23	0.519
708.42	0.520
708.60	0.523
708.79	0.523
708.98	0.522
709.16	0.521
709.35	0.523
709.53	0.528
709.72	0.526
709.90	0.529
710.09	0.531
710.27	0.534
710.46	0.537
710.64	0.535
710.83	0.537
711.02	0.538
711.20	0.536
711.39	0.535
711.57	0.533
711.76	0.533
711.94	0.530
712.13	0.530
712.31	0.530
712.50	0.525
712.68	0.523
712.87	0.524
713.05	0.525
713.24	0.526
713.42	0.524
713.61	0.525
713.79	0.527
713.98	0.527
714.16	0.528
714.35	0.527
714.54	0.529
714.72	0.529
714.91	0.525
715.09	0.532
715.28	0.535
715.46	0.535
715.65	0.533
715.83	0.533
716.02	0.536
716.20	0.533
716.39	0.532
716.57	0.533
716.76	0.536
716.94	0.537
717.12	0.529
717.31	0.531
717.49	0.534
717.68	0.535
717.86	0.535
718.05	0.536
718.23	0.539
718.42	0.541
718.60	0.542
718.79	0.549
718.97	0.552
719.16	0.552
719.34	0.549
719.53	0.549
719.71	0.550
719.90	0.551
720.08	0.547
720.27	0.547
720.45	0.547
720.63	0.546
720.82	0.539
721.00	0.542
721.19	0.546
721.37	0.547
721.56	0.546
721.74	0.549
721.93	0.558
722.11	0.566
722.30	0.566
722.48	0.571
722.66	0.573
722.85	0.573
723.03	0.572
723.22	0.569
723.40	0.572
723.59	0.572
723.77	0.575
723.95	0.568
724.14	0.570
724.32	0.571
724.51	0.569
724.69	0.571
724.88	0.573
725.06	0.571
725.24	0.571
725.43	0.574
725.61	0.577
725.80	0.571
725.98	0.567
726.16	0.563
726.35	0.570
726.53	0.569
726.72	0.567
726.90	0.577
727.09	0.578
727.27	0.585
727.45	0.581
727.64	0.589
727.82	0.599
728.01	0.605
728.19	0.602
728.37	0.608
728.56	0.612
728.74	0.619
728.92	0.606
729.11	0.608
729.29	0.607
729.48	0.610
729.66	0.599
729.84	0.599
730.03	0.603
730.21	0.605
730.40	0.595
730.58	0.598
730.76	0.599
730.95	0.602
731.13	0.601
731.31	0.614
731.50	0.626
731.68	0.630
731.86	0.626
732.05	0.641
732.23	0.645
732.42	0.647
732.60	0.647
732.78	0.652
732.97	0.674
733.15	0.682
733.33	0.668
733.52	0.674
733.70	0.686
733.88	0.695
734.07	0.679
734.25	0.708
734.43	0.719
734.62	0.724
734.80	0.716
734.98	0.704
735.17	0.715
735.35	0.723
735.53	0.710
735.72	0.715
735.90	0.741
736.08	0.759
736.27	0.732
736.45	0.742
736.63	0.757
736.82	0.770
737.00	0.770
737.18	0.778
737.37	0.813
737.55	0.839
737.73	0.832
737.92	0.835
738.10	0.835
738.28	0.857
738.46	0.843
738.65	0.857
738.83	0.883
739.01	0.942
739.20	0.932
739.38	0.914
739.56	0.908
739.75	0.913
739.93	0.869
740.11	0.896
740.29	0.900
740.48	0.910
740.66	0.882
740.84	0.878
741.03	0.846
741.21	0.858
741.39	0.834
741.57	0.850
741.76	0.875
741.94	0.884
742.12	0.844
742.31	0.847
742.49	0.874
742.67	0.903
742.85	0.915
743.04	0.919
743.22	0.937
743.40	1.005
743.58	0.974
743.77	0.992
743.95	1.041
744.13	1.108
744.31	1.086
744.50	1.076
744.68	1.084
744.86	1.053
745.04	1.056
745.23	1.137
745.41	1.114
745.59	1.120
745.77	1.067
745.96	1.048
746.14	1.066
746.32	1.054
746.50	1.043
746.69	1.021
746.87	1.045
747.05	1.030
747.23	0.939
747.42	0.932
747.60	0.975
747.78	0.980
747.96	1.019
748.14	0.964
748.33	1.015
748.51	1.010
748.69	0.995
748.87	1.029
749.06	1.028
749.24	1.019
749.42	0.990
749.60	0.966
749.78	0.984
749.97	0.921
750.15	0.910
750.33	0.906
750.51	0.937
750.69	0.946
750.88	0.942
751.06	0.960
751.24	1.001
751.42	0.986
751.60	0.971
751.79	1.055
751.97	1.132
752.15	1.124
752.33	1.075
752.51	1.155
752.69	1.191
752.88	1.146
753.06	1.204
753.24	1.168
753.42	1.239
753.60	1.520
753.78	1.267
753.97	1.282
754.15	1.322
754.33	1.370
754.51	1.177
754.69	1.139
754.87	1.184
755.06	1.082
755.24	1.070
755.42	1.076
755.60	0.961
755.78	0.972
755.96	0.903
756.15	0.903
756.33	0.910
756.51	0.931
756.69	0.916
756.87	0.877
757.05	0.902
757.23	0.884
757.42	0.842
757.60	0.841
757.78	0.830
757.96	0.833
758.14	0.811
758.32	0.795
758.50	0.814
758.69	0.810
758.87	0.799
759.05	0.805
759.23	0.820
759.41	0.822
759.59	0.811
759.77	0.837
759.95	0.867
760.13	0.923
760.32	0.918
760.50	0.906
760.68	0.935
760.86	0.939
761.04	0.906
761.22	0.913
761.40	0.975
761.58	0.976
761.76	0.939
761.95	0.919
762.13	0.875
762.31	0.878
762.49	0.841
762.67	0.863
762.85	0.881
763.03	0.871
763.21	0.845
763.39	0.822
763.57	0.826
763.75	0.819
763.94	0.799
764.12	0.798
764.30	0.825
764.48	0.829
764.66	0.785
764.84	0.780
765.02	0.827
765.20	0.835
765.38	0.810
765.56	0.818
765.74	0.866
765.92	0.868
766.10	0.872
766.28	0.866
766.46	0.899
766.65	0.904
766.83	0.890
767.01	0.872
767.19	0.885
767.37	0.886
767.55	0.870
767.73	0.845
767.91	0.853
768.09	0.841
768.27	0.824
768.45	0.816
768.63	0.822
768.81	0.821
768.99	0.785
769.17	0.811
769.35	0.829
769.53	0.826
769.71	0.801
769.89	0.811
770.07	0.822
770.25	0.803
770.43	0.775
770.61	0.802
770.79	0.812
770.97	0.826
771.15	0.786
771.33	0.793
771.51	0.799
771.69	0.814
771.87	0.820
772.05	0.829
772.24	0.844
772.42	0.853
772.60	0.823
772.78	0.894
772.96	0.931
773.14	0.929
773.32	0.896
773.49	0.903
773.67	0.898
773.85	0.871
774.03	0.851
774.21	0.886
774.39	0.904
774.57	0.936
774.75	0.849
774.93	0.843
775.11	0.872
775.29	0.881
775.47	0.879
775.65	0.895
775.83	0.921
776.01	0.948
776.19	0.886
776.37	0.889
776.55	0.888
776.73	0.883
776.91	0.873
777.09	0.853
777.27	0.853
777.45	0.842
777.63	0.814
777.81	0.808
777.99	0.799
778.17	0.800
778.35	0.772
778.53	0.760
778.71	0.768
778.89	0.755
779.07	0.741
779.24	0.747
779.42	0.752
779.60	0.774
779.78	0.769
779.96	0.770
780.14	0.781
780.32	0.806
780.50	0.786
780.68	0.784
780.86	0.776
781.04	0.795
781.22	0.798
781.40	0.809
781.58	0.797
781.75	0.786
781.93	0.767
782.11	0.765
782.29	0.751
782.47	0.751
782.65	0.739
782.83	0.768
783.01	0.765
783.19	0.756
783.37	0.739
783.55	0.746
783.72	0.771
783.90	0.783
784.08	0.775
784.26	0.789
784.44	0.812
784.62	0.815
784.80	0.775
784.98	0.777
785.16	0.784
785.33	0.800
785.51	0.780
785.69	0.762
785.87	0.763
786.05	0.774
786.23	0.766
786.41	0.763
786.59	0.770
786.77	0.771
786.94	0.757
787.12	0.763
787.30	0.767
787.48	0.761
787.66	0.748
787.84	0.749
788.02	0.740
788.19	0.737
788.37	0.719
788.55	0.722
788.73	0.725
788.91	0.718
789.09	0.697
789.27	0.686
789.44	0.700
789.62	0.705
789.80	0.713
789.98	0.740
790.16	0.730
790.34	0.727
790.51	0.712
790.69	0.734
790.87	0.743
791.05	0.738
791.23	0.729
791.41	0.731
791.58	0.740
791.76	0.716
791.94	0.680
792.12	0.688
792.30	0.692
792.48	0.688
792.65	0.679
792.83	0.687
793.01	0.696
793.19	0.695
793.37	0.678
793.54	0.675
793.72	0.690
793.90	0.691
794.08	0.679
794.26	0.681
794.43	0.694
794.61	0.676
794.79	0.662
794.97	0.661
795.15	0.670
795.32	0.674
795.50	0.661
795.68	0.655
795.86	0.659
796.04	0.660
796.21	0.653
796.39	0.649
796.57	0.666
796.75	0.676
796.92	0.676
797.10	0.678
797.28	0.681
797.46	0.686
797.64	0.685
797.81	0.695
797.99	0.701
798.17	0.704
798.35	0.697
798.52	0.699
798.70	0.695
798.88	0.704
799.06	0.702
799.23	0.705
799.41	0.716
799.59	0.711
799.77	0.694
799.94	0.705
800.12	0.718
800.30	0.739
800.48	0.738
800.65	0.737
800.83	0.727
801.01	0.718
801.19	0.718
801.36	0.714
801.54	0.717
801.72	0.729
801.90	0.712
802.07	0.704
802.25	0.689
802.43	0.670
802.60	0.666
802.78	0.673
802.96	0.682
803.14	0.675
803.31	0.670
803.49	0.669
803.67	0.667
803.84	0.672
804.02	0.663
804.20	0.666
804.38	0.673
804.55	0.671
804.73	0.655
804.91	0.656
805.08	0.671
805.26	0.667
805.44	0.732
805.61	0.736
805.79	0.737
805.97	0.737
806.15	0.727
806.32	0.722
806.50	0.731
806.68	0.730
806.85	0.718
807.03	0.708
807.21	0.728
807.38	0.659
807.56	0.646
807.74	0.657
807.91	0.664
808.09	0.666
808.27	0.686
808.44	0.712
808.62	0.723
808.80	0.725
808.97	0.719
809.15	0.710
809.33	0.731
809.50	0.740
809.68	0.723
809.86	0.736
810.03	0.773
810.21	0.750
810.39	0.729
810.56	0.736
810.74	0.764
810.91	0.846
811.09	0.837
811.27	0.862
811.44	0.867
811.62	0.867
811.80	0.842
811.97	0.806
812.15	0.803
812.33	0.798
812.50	0.782
812.68	0.771
812.85	0.710
813.03	0.709
813.21	0.672
813.38	0.664
813.56	0.671
813.74	0.683
813.91	0.690
814.09	0.726
814.26	0.719
814.44	0.724
814.62	0.710
814.79	0.714
814.97	0.724
815.14	0.729
815.32	0.736
815.50	0.752
815.67	0.756
815.85	0.746
816.02	0.732
816.20	0.741
816.38	0.758
816.55	0.764
816.73	0.760
816.90	0.773
817.08	0.811
817.26	0.818
817.43	0.794
817.61	0.820
817.78	0.845
817.96	0.822
818.13	0.809
818.31	0.811
818.49	0.827
818.66	0.817
818.84	0.794
819.01	0.768
819.19	0.778
819.36	0.780
819.54	0.746
819.71	0.793
819.89	0.810
820.07	0.825
820.24	0.816
820.42	0.816
820.59	0.841
820.77	0.872
820.94	0.863
821.12	0.884
821.29	0.908
821.47	0.911
821.64	0.832
821.82	0.848
822.00	0.844
822.17	0.840
822.35	0.830
822.52	0.830
822.70	0.820
822.87	0.825
823.05	0.798
823.22	0.813
823.40	0.849
823.57	0.877
823.75	0.852
823.92	0.886
824.10	0.914
824.27	0.963
824.45	0.955
824.62	1.036
824.80	1.071
824.97	1.093
825.15	1.072
825.32	1.091
825.50	1.097
825.67	1.115
825.85	1.087
826.02	1.122
826.20	1.174
826.37	1.396
826.55	1.243
826.72	1.690
826.90	2.084
827.07	3.032
827.25	2.039
827.42	-0.000
827.60	-0.000
827.77	-0.000
827.95	-0.000
828.12	-0.000
828.30	-0.000
828.47	-0.000
828.65	2.038
828.82	2.933
829.00	-0.000
829.17	-0.000
829.34	-0.000
829.52	-0.000
829.69	-0.000
829.87	-0.000
830.04	-0.000
830.22	-0.000
830.39	-0.000
830.57	-0.000
830.74	-0.000
830.92	-0.000
831.09	-0.000
831.26	-0.000
831.44	-0.000
831.61	-0.000
831.79	-0.000
831.96	-0.000
832.14	-0.000
832.31	-0.000
832.49	-0.000
832.66	-0.000
832.83	-0.000
833.01	-0.000
833.18	-0.000
833.36	-0.000
833.53	-0.000
833.70	-0.000
833.88	-0.000
834.05	-0.000
834.23	-0.000
834.40	-0.000
834.58	-0.000
834.75	-0.000
834.92	-0.000
835.10	-0.000
835.27	-0.000
835.45	-0.000
835.62	-0.000
835.79	-0.000
835.97	-0.000
836.14	-0.000
836.32	-0.000
836.49	-0.000
836.66	-0.000
836.84	-0.000
837.01	-0.000
837.18	-0.000
837.36	-0.000
837.53	-0.000
837.71	-0.000
837.88	-0.000
838.05	-0.000
838.23	-0.000
838.40	-0.000
838.58	-0.000
838.75	-0.000
838.92	-0.000
839.10	-0.000
839.27	-0.000
839.44	-0.000
839.62	-0.000
839.79	-0.000
839.96	-0.000
840.14	-0.000
840.31	-0.000
840.48	-0.000
840.66	-0.000
840.83	-0.000
841.01	-0.000
841.18	-0.000
841.35	-0.000
841.53	-0.000
841.70	-0.000
841.87	-0.000
842.05	-0.000
842.22	-0.000
842.39	-0.000
842.57	-0.000
842.74	-0.000
842.91	-0.000
843.09	-0.000
843.26	-0.000
843.43	-0.000
843.60	-0.000
843.78	-0.000
843.95	-0.000
844.12	-0.000
844.30	-0.000
844.47	-0.000
844.64	-0.000
844.82	-0.000
844.99	-0.000
845.16	-0.000
845.34	-0.000
845.51	-0.000
845.68	-0.000
845.85	-0.000
846.03	-0.000
846.20	-0.000
846.37	-0.000
846.55	-0.000
846.72	-0.000
846.89	-0.000
847.06	-0.000
847.24	-0.000
847.41	-0.000
847.58	-0.000
847.76	-0.000
847.93	-0.000
848.10	-0.000
848.27	-0.000
848.45	-0.000
848.62	-0.000
848.79	-0.000
848.97	-0.000
849.14	-0.000
849.31	-0.000
849.48	-0.000
849.66	-0.000
849.83	-0.000
850.00	-0.000
850.17	-0.000
850.35	-0.000
850.52	-0.000
850.69	-0.000
850.86	-0.000
851.04	-0.000
851.21	-0.000
851.38	-0.000
851.55	-0.000
851.72	-0.000
851.90	-0.000
852.07	-0.000
852.24	-0.000
852.41	-0.000
852.59	-0.000
852.76	-0.000
852.93	-0.000
853.10	-0.000
853.28	-0.000
853.45	-0.000
853.62	-0.000
853.79	-0.000
853.96	-0.000
854.14	-0.000
854.31	-0.000
854.48	-0.000
854.65	-0.000
854.82	-0.000
855.00	-0.000
855.17	-0.000
855.34	-0.000
855.51	-0.000
855.68	-0.000
855.86	-0.000
856.03	-0.000
856.20	-0.000
856.37	-0.000
856.54	-0.000
856.72	-0.000
856.89	-0.000
857.06	-0.000
857.23	-0.000
857.40	-0.000
857.57	-0.000
857.75	-0.000
857.92	-0.000
858.09	-0.000
858.26	-0.000
858.43	-0.000
858.60	-0.000
858.78	-0.000
858.95	-0.000
859.12	-0.000
859.29	-0.000
859.46	-0.000
859.63	-0.000
859.81	-0.000
859.98	-0.000
860.15	-0.000
860.32	-0.000
860.49	-0.000
860.66	-0.000
860.83	-0.000
861.01	-0.000
861.18	-0.000
861.35	-0.000
861.52	-0.000
861.69	-0.000
861.86	-0.000
862.03	-0.000
862.21	-0.000
862.38	-0.000
862.55	-0.000
862.72	-0.000
862.89	-0.000
863.06	-0.000
863.23	-0.000
863.40	-0.000
863.58	-0.000
863.75	-0.000
863.92	-0.000
864.09	-0.000
864.26	-0.000
864.43	-0.000
864.60	-0.000
864.77	-0.000
864.94	-0.000
865.11	-0.000
865.29	-0.000
865.46	-0.000
865.63	-0.000
865.80	-0.000
865.97	-0.000
866.14	-0.000
866.31	-0.000
866.48	-0.000
866.65	-0.000
866.82	-0.000
866.99	-0.000
867.16	-0.000
867.34	-0.000
867.51	-0.000
867.68	-0.000
867.85	-0.000
868.02	-0.000
868.19	-0.000
868.36	-0.000
868.53	-0.000
868.70	-0.000
868.87	-0.000
869.04	-0.000
869.21	-0.000
869.38	-0.000
869.55	-0.000
869.72	-0.000
869.89	-0.000
870.06	-0.000
870.24	-0.000
870.41	-0.000
870.58	-0.000
870.75	-0.000
870.92	-0.000
871.09	-0.000
871.26	-0.000
871.43	-0.000
871.60	-0.000
871.77	-0.000
871.94	-0.000
872.11	-0.000
872.28	-0.000
872.45	-0.000
872.62	-0.000
872.79	-0.000
872.96	-0.000
873.13	-0.000
873.30	-0.000
873.47	-0.000
873.64	-0.000
873.81	-0.000
873.98	-0.000
874.15	-0.000
874.32	-0.000
874.49	-0.000
874.66	-0.000
874.83	-0.000
875.00	-0.000
875.17	-0.000
875.34	-0.000
875.51	-0.000
875.68	-0.000
875.85	-0.000
876.02	-0.000
876.19	-0.000
876.36	-0.000
876.53	-0.000
876.70	-0.000
876.87	-0.000
877.04	-0.000
877.21	-0.000
877.38	-0.000
877.55	-0.000
877.72	-0.000
877.89	-0.000
878.06	-0.000
878.23	-0.000
878.39	-0.000
878.56	-0.000
878.73	-0.000
878.90	-0.000
879.07	-0.000
879.24	-0.000
879.41	-0.000
879.58	-0.000
879.75	-0.000
879.92	-0.000
880.09	-0.000
880.26	-0.000
880.43	-0.000
880.60	-0.000
880.77	-0.000
880.94	-0.000
881.11	-0.000
881.27	-0.000
881.44	-0.000
881.61	-0.000
881.78	-0.000
881.95	-0.000
882.12	-0.000
882.29	-0.000
882.46	-0.000
882.63	-0.000
882.80	-0.000
882.97	-0.000
883.14	-0.000
883.30	-0.000
883.47	-0.000
883.64	-0.000
883.81	-0.000
883.98	-0.000
884.15	-0.000
884.32	-0.000
884.49	-0.000
884.66	-0.000
884.82	-0.000
884.99	-0.000
885.16	-0.000
885.33	-0.000
885.50	-0.000
885.67	-0.000
885.84	-0.000
886.01	-0.000
886.17	-0.000
886.34	-0.000
886.51	-0.000
886.68	-0.000
886.85	-0.000
887.02	-0.000
887.19	-0.000
887.36	-0.000
887.52	-0.000
887.69	-0.000
887.86	-0.000
888.03	-0.000
888.20	-0.000
888.37	-0.000
888.54	-0.000
888.70	-0.000
888.87	-0.000
889.04	-0.000
889.21	-0.000
889.38	-0.000
889.55	-0.000
889.71	-0.000
889.88	-0.000
890.05	-0.000
890.22	-0.000
890.39	-0.000
>>>>>End Processed Spectral Data<<<<<
