SpectraSuite Data File
++++++++++++++++++++++++++++++++++++
Date: Fri Jun 19 13:07:20 CEST 2015
User: introlabs
Dark Spectrum Present: Yes
Reference Spectrum Present: Yes
Number of Sampled Component Spectra: 1
Spectrometers: USB4H08886
Integration Time (usec): 745692 (USB4H08886)
Spectra Averaged: 5 (USB4H08886)
Boxcar Smoothing: 5 (USB4H08886)
Correct for Electrical Dark: Yes (USB4H08886)
Strobe/Lamp Enabled: No (USB4H08886)
Correct for Detector Non-linearity: Yes (USB4H08886)
Correct for Stray Light: Yes (USB4H08886)
Number of Pixels in Processed Spectrum: 3648
>>>>>Begin Processed Spectral Data<<<<<
178.14	-0.000
178.36	-0.000
178.57	-0.000
178.79	-0.000
179.01	-0.000
179.22	-0.000
179.44	-0.000
179.65	-0.000
179.87	-0.000
180.08	-0.000
180.30	-0.000
180.52	-0.000
180.73	-0.000
180.95	-0.000
181.16	-0.000
181.38	-0.000
181.59	-0.000
181.81	-0.000
182.03	-0.000
182.24	-0.000
182.46	-0.000
182.67	-0.000
182.89	-0.000
183.10	-0.000
183.32	-0.000
183.54	-0.000
183.75	-0.000
183.97	-0.000
184.18	-0.000
184.40	-0.000
184.61	-0.000
184.83	-0.000
185.04	-0.000
185.26	-0.000
185.48	-0.000
185.69	-0.000
185.91	-0.000
186.12	-0.000
186.34	-0.000
186.55	-0.000
186.77	-0.000
186.98	-0.000
187.20	-0.000
187.42	-0.000
187.63	-0.000
187.85	-0.000
188.06	-0.000
188.28	-0.000
188.49	-0.000
188.71	-0.000
188.92	-0.000
189.14	-0.000
189.36	-0.000
189.57	-0.000
189.79	-0.000
190.00	-0.000
190.22	-0.000
190.43	-0.000
190.65	-0.000
190.86	-0.000
191.08	-0.000
191.29	-0.000
191.51	-0.000
191.72	-0.000
191.94	-0.000
192.16	-0.000
192.37	-0.000
192.59	-0.000
192.80	-0.000
193.02	-0.000
193.23	-0.000
193.45	-0.000
193.66	-0.000
193.88	-0.000
194.09	-0.000
194.31	-0.000
194.52	-0.000
194.74	-0.000
194.95	-0.000
195.17	-0.000
195.38	-0.000
195.60	-0.000
195.81	-0.000
196.03	-0.000
196.25	-0.000
196.46	-0.000
196.68	-0.000
196.89	-0.000
197.11	-0.000
197.32	-0.000
197.54	-0.000
197.75	-0.000
197.97	-0.000
198.18	-0.000
198.40	-0.000
198.61	-0.000
198.83	-0.000
199.04	-0.000
199.26	-0.000
199.47	-0.000
199.69	-0.000
199.90	-0.000
200.12	-0.000
200.33	-0.000
200.55	-0.000
200.76	-0.000
200.98	-0.000
201.19	-0.000
201.41	-0.000
201.62	-0.000
201.84	-0.000
202.05	-0.000
202.27	-0.000
202.48	-0.000
202.70	-0.000
202.91	-0.000
203.13	-0.000
203.34	-0.000
203.56	-0.000
203.77	-0.000
203.99	-0.000
204.20	-0.000
204.42	-0.000
204.63	-0.000
204.85	-0.000
205.06	-0.000
205.28	-0.000
205.49	-0.000
205.71	-0.000
205.92	-0.000
206.14	-0.000
206.35	-0.000
206.56	-0.000
206.78	-0.000
206.99	-0.000
207.21	-0.000
207.42	-0.000
207.64	-0.000
207.85	-0.000
208.07	-0.000
208.28	-0.000
208.50	-0.000
208.71	-0.000
208.93	-0.000
209.14	-0.000
209.36	-0.000
209.57	-0.000
209.79	-0.000
210.00	-0.000
210.22	-0.000
210.43	-0.000
210.64	-0.000
210.86	-0.000
211.07	-0.000
211.29	-0.000
211.50	-0.000
211.72	-0.000
211.93	-0.000
212.15	-0.000
212.36	-0.000
212.58	-0.000
212.79	-0.000
213.01	-0.000
213.22	-0.000
213.43	-0.000
213.65	-0.000
213.86	-0.000
214.08	-0.000
214.29	-0.000
214.51	-0.000
214.72	-0.000
214.94	-0.000
215.15	-0.000
215.36	-0.000
215.58	-0.000
215.79	-0.000
216.01	-0.000
216.22	-0.000
216.44	-0.000
216.65	-0.000
216.87	-0.000
217.08	-0.000
217.29	-0.000
217.51	-0.000
217.72	-0.000
217.94	-0.000
218.15	-0.000
218.37	-0.000
218.58	-0.000
218.80	-0.000
219.01	-0.000
219.22	-0.000
219.44	-0.000
219.65	-0.000
219.87	-0.000
220.08	-0.000
220.30	-0.000
220.51	-0.000
220.72	-0.000
220.94	-0.000
221.15	-0.000
221.37	-0.000
221.58	-0.000
221.79	-0.000
222.01	-0.000
222.22	-0.000
222.44	-0.000
222.65	-0.000
222.87	-0.000
223.08	-0.000
223.29	-0.000
223.51	-0.000
223.72	-0.000
223.94	-0.000
224.15	-0.000
224.36	-0.000
224.58	-0.000
224.79	-0.000
225.01	-0.000
225.22	-0.000
225.44	-0.000
225.65	-0.000
225.86	-0.000
226.08	-0.000
226.29	-0.000
226.51	-0.000
226.72	-0.000
226.93	-0.000
227.15	-0.000
227.36	-0.000
227.58	-0.000
227.79	-0.000
228.00	-0.000
228.22	-0.000
228.43	-0.000
228.65	-0.000
228.86	-0.000
229.07	-0.000
229.29	-0.000
229.50	-0.000
229.72	-0.000
229.93	-0.000
230.14	-0.000
230.36	-0.000
230.57	-0.000
230.78	-0.000
231.00	-0.000
231.21	-0.000
231.43	-0.000
231.64	-0.000
231.85	-0.000
232.07	-0.000
232.28	-0.000
232.50	-0.000
232.71	-0.000
232.92	-0.000
233.14	-0.000
233.35	-0.000
233.56	-0.000
233.78	-0.000
233.99	-0.000
234.21	-0.000
234.42	-0.000
234.63	-0.000
234.85	-0.000
235.06	-0.000
235.27	-0.000
235.49	-0.000
235.70	-0.000
235.91	-0.000
236.13	-0.000
236.34	-0.000
236.56	-0.000
236.77	-0.000
236.98	-0.000
237.20	-0.000
237.41	-0.000
237.62	-0.000
237.84	-0.000
238.05	-0.000
238.26	-0.000
238.48	-0.000
238.69	-0.000
238.91	-0.000
239.12	-0.000
239.33	-0.000
239.55	-0.000
239.76	-0.000
239.97	-0.000
240.19	-0.000
240.40	-0.000
240.61	-0.000
240.83	-0.000
241.04	-0.000
241.25	-0.000
241.47	-0.000
241.68	-0.000
241.89	-0.000
242.11	-0.000
242.32	-0.000
242.53	-0.000
242.75	-0.000
242.96	-0.000
243.17	-0.000
243.39	-0.000
243.60	-0.000
243.81	-0.000
244.03	-0.000
244.24	-0.000
244.45	-0.000
244.67	-0.000
244.88	-0.000
245.09	-0.000
245.31	-0.000
245.52	-0.000
245.73	-0.000
245.95	-0.000
246.16	-0.000
246.37	-0.000
246.59	-0.000
246.80	-0.000
247.01	-0.000
247.23	-0.000
247.44	-0.000
247.65	-0.000
247.87	-0.000
248.08	-0.000
248.29	-0.000
248.51	-0.000
248.72	-0.000
248.93	-0.000
249.15	-0.000
249.36	-0.000
249.57	-0.000
249.78	-0.000
250.00	-0.000
250.21	-0.000
250.42	-0.000
250.64	-0.000
250.85	-0.000
251.06	-0.000
251.28	-0.000
251.49	-0.000
251.70	-0.000
251.92	-0.000
252.13	-0.000
252.34	-0.000
252.55	-0.000
252.77	-0.000
252.98	-0.000
253.19	-0.000
253.41	-0.000
253.62	-0.000
253.83	-0.000
254.05	-0.000
254.26	-0.000
254.47	-0.000
254.68	-0.000
254.90	-0.000
255.11	-0.000
255.32	-0.000
255.54	-0.000
255.75	-0.000
255.96	-0.000
256.17	-0.000
256.39	-0.000
256.60	-0.000
256.81	-0.000
257.03	-0.000
257.24	-0.000
257.45	-0.000
257.66	-0.000
257.88	-0.000
258.09	-0.000
258.30	-0.000
258.51	-0.000
258.73	-0.000
258.94	-0.000
259.15	-0.000
259.37	-0.000
259.58	-0.000
259.79	-0.000
260.00	-0.000
260.22	-0.000
260.43	-0.000
260.64	-0.000
260.85	-0.000
261.07	-0.000
261.28	-0.000
261.49	-0.000
261.71	-0.000
261.92	-0.000
262.13	-0.000
262.34	-0.000
262.56	-0.000
262.77	-0.000
262.98	-0.000
263.19	-0.000
263.41	-0.000
263.62	-0.000
263.83	-0.000
264.04	-0.000
264.26	-0.000
264.47	-0.000
264.68	-0.000
264.89	-0.000
265.11	-0.000
265.32	-0.000
265.53	-0.000
265.74	-0.000
265.96	-0.000
266.17	-0.000
266.38	-0.000
266.59	-0.000
266.81	-0.000
267.02	-0.000
267.23	-0.000
267.44	-0.000
267.65	-0.000
267.87	-0.000
268.08	-0.000
268.29	-0.000
268.50	-0.000
268.72	-0.000
268.93	-0.000
269.14	-0.000
269.35	-0.000
269.57	-0.000
269.78	-0.000
269.99	-0.000
270.20	-0.000
270.41	-0.000
270.63	-0.000
270.84	-0.000
271.05	-0.000
271.26	-0.000
271.48	-0.000
271.69	-0.000
271.90	-0.000
272.11	-0.000
272.32	-0.000
272.54	-0.000
272.75	-0.000
272.96	-0.000
273.17	-0.000
273.39	-0.000
273.60	-0.000
273.81	-0.000
274.02	-0.000
274.23	-0.000
274.45	-0.000
274.66	-0.000
274.87	-0.000
275.08	-0.000
275.29	-0.000
275.51	-0.000
275.72	-0.000
275.93	-0.000
276.14	-0.000
276.35	-0.000
276.57	-0.000
276.78	-0.000
276.99	-0.000
277.20	-0.000
277.41	-0.000
277.63	-0.000
277.84	-0.000
278.05	-0.000
278.26	-0.000
278.47	-0.000
278.69	-0.000
278.90	-0.000
279.11	-0.000
279.32	-0.000
279.53	-0.000
279.74	-0.000
279.96	-0.000
280.17	-0.000
280.38	-0.000
280.59	-0.000
280.80	-0.000
281.02	-0.000
281.23	-0.000
281.44	-0.000
281.65	-0.000
281.86	-0.000
282.07	-0.000
282.29	-0.000
282.50	-0.000
282.71	-0.000
282.92	-0.000
283.13	-0.000
283.35	-0.000
283.56	-0.000
283.77	-0.000
283.98	-0.000
284.19	-0.000
284.40	-0.000
284.62	-0.000
284.83	-0.000
285.04	-0.000
285.25	-0.000
285.46	-0.000
285.67	-0.000
285.88	-0.000
286.10	-0.000
286.31	-0.000
286.52	-0.000
286.73	-0.000
286.94	-0.000
287.15	-0.000
287.37	-0.000
287.58	-0.000
287.79	-0.000
288.00	-0.000
288.21	-0.000
288.42	-0.000
288.63	-0.000
288.85	-0.000
289.06	-0.000
289.27	-0.000
289.48	-0.000
289.69	-0.000
289.90	-0.000
290.11	-0.000
290.33	-0.000
290.54	-0.000
290.75	-0.000
290.96	-0.000
291.17	-0.000
291.38	-0.000
291.59	-0.000
291.81	-0.000
292.02	-0.000
292.23	-0.000
292.44	-0.000
292.65	-0.000
292.86	-0.000
293.07	-0.000
293.28	-0.000
293.50	-0.000
293.71	-0.000
293.92	-0.000
294.13	-0.000
294.34	-0.000
294.55	-0.000
294.76	-0.000
294.97	-0.000
295.19	-0.000
295.40	-0.000
295.61	-0.000
295.82	-0.000
296.03	-0.000
296.24	-0.000
296.45	-0.000
296.66	-0.000
296.87	-0.000
297.09	-0.000
297.30	-0.000
297.51	4.071
297.72	2.572
297.93	-0.000
298.14	-0.000
298.35	2.645
298.56	2.438
298.77	-0.000
298.99	-0.000
299.20	2.883
299.41	2.577
299.62	2.365
299.83	2.305
300.04	2.055
300.25	2.014
300.46	2.180
300.67	2.082
300.88	1.905
301.10	1.917
301.31	2.143
301.52	1.965
301.73	1.822
301.94	1.825
302.15	1.869
302.36	1.758
302.57	1.629
302.78	1.641
302.99	1.719
303.20	1.759
303.41	1.589
303.63	1.561
303.84	1.578
304.05	1.562
304.26	1.464
304.47	1.467
304.68	1.473
304.89	1.466
305.10	1.400
305.31	1.383
305.52	1.438
305.73	1.427
305.94	1.372
306.15	1.358
306.37	1.394
306.58	1.405
306.79	1.361
307.00	1.387
307.21	1.435
307.42	1.426
307.63	1.372
307.84	1.329
308.05	1.374
308.26	1.374
308.47	1.343
308.68	1.337
308.89	1.340
309.10	1.338
309.31	1.288
309.52	1.277
309.73	1.299
309.95	1.292
310.16	1.257
310.37	1.245
310.58	1.265
310.79	1.262
311.00	1.252
311.21	1.256
311.42	1.259
311.63	1.252
311.84	1.231
312.05	1.225
312.26	1.252
312.47	1.268
312.68	1.237
312.89	1.219
313.10	1.230
313.31	1.198
313.52	1.193
313.73	1.194
313.94	1.199
314.15	1.177
314.36	1.153
314.57	1.144
314.78	1.128
314.99	1.123
315.21	1.107
315.42	1.112
315.63	1.129
315.84	1.104
316.05	1.088
316.26	1.095
316.47	1.117
316.68	1.112
316.89	1.091
317.10	1.114
317.31	1.123
317.52	1.123
317.73	1.099
317.94	1.097
318.15	1.147
318.36	1.146
318.57	1.124
318.78	1.110
318.99	1.152
319.20	1.147
319.41	1.108
319.62	1.108
319.83	1.121
320.04	1.114
320.25	1.099
320.46	1.063
320.67	1.067
320.88	1.062
321.09	1.046
321.30	1.030
321.51	1.047
321.72	1.044
321.93	1.025
322.14	1.018
322.35	1.048
322.56	1.049
322.77	1.034
322.98	1.046
323.19	1.057
323.40	1.064
323.61	1.039
323.82	1.034
324.03	1.040
324.24	1.038
324.45	1.023
324.66	1.004
324.87	1.000
325.08	1.000
325.29	0.978
325.50	0.971
325.71	0.977
325.92	0.984
326.13	0.969
326.34	0.970
326.55	0.981
326.76	0.980
326.97	0.967
327.18	0.961
327.39	0.989
327.60	0.988
327.80	0.988
328.01	0.985
328.22	0.986
328.43	0.988
328.64	0.973
328.85	0.975
329.06	0.977
329.27	0.977
329.48	0.971
329.69	0.949
329.90	0.961
330.11	0.953
330.32	0.944
330.53	0.936
330.74	0.939
330.95	0.938
331.16	0.922
331.37	0.931
331.58	0.932
331.79	0.931
332.00	0.922
332.21	0.915
332.42	0.920
332.63	0.912
332.83	0.907
333.04	0.907
333.25	0.920
333.46	0.919
333.67	0.903
333.88	0.903
334.09	0.914
334.30	0.911
334.51	0.899
334.72	0.894
334.93	0.899
335.14	0.898
335.35	0.890
335.56	0.885
335.77	0.895
335.98	0.894
336.18	0.887
336.39	0.879
336.60	0.885
336.81	0.884
337.02	0.884
337.23	0.888
337.44	0.891
337.65	0.894
337.86	0.882
338.07	0.877
338.28	0.882
338.49	0.880
338.70	0.873
338.91	0.879
339.11	0.886
339.32	0.881
339.53	0.868
339.74	0.865
339.95	0.861
340.16	0.860
340.37	0.851
340.58	0.849
340.79	0.854
341.00	0.853
341.21	0.841
341.41	0.841
341.62	0.845
341.83	0.845
342.04	0.840
342.25	0.852
342.46	0.857
342.67	0.856
342.88	0.848
343.09	0.847
343.30	0.855
343.50	0.858
343.71	0.847
343.92	0.845
344.13	0.850
344.34	0.850
344.55	0.832
344.76	0.830
344.97	0.835
345.18	0.834
345.38	0.832
345.59	0.826
345.80	0.826
346.01	0.826
346.22	0.820
346.43	0.815
346.64	0.825
346.85	0.824
347.06	0.816
347.26	0.815
347.47	0.820
347.68	0.815
347.89	0.810
348.10	0.805
348.31	0.812
348.52	0.812
348.73	0.809
348.93	0.805
349.14	0.808
349.35	0.808
349.56	0.802
349.77	0.798
349.98	0.805
350.19	0.802
350.39	0.796
350.60	0.793
350.81	0.809
351.02	0.807
351.23	0.803
351.44	0.806
351.65	0.809
351.86	0.806
352.06	0.804
352.27	0.803
352.48	0.805
352.69	0.805
352.90	0.798
353.11	0.784
353.31	0.792
353.52	0.788
353.73	0.779
353.94	0.781
354.15	0.788
354.36	0.787
354.57	0.778
354.77	0.782
354.98	0.782
355.19	0.782
355.40	0.781
355.61	0.787
355.82	0.791
356.02	0.791
356.23	0.783
356.44	0.785
356.65	0.788
356.86	0.788
357.07	0.780
357.27	0.783
357.48	0.785
357.69	0.780
357.90	0.765
358.11	0.762
358.32	0.766
358.52	0.770
358.73	0.759
358.94	0.761
359.15	0.767
359.36	0.767
359.56	0.762
359.77	0.759
359.98	0.766
360.19	0.765
360.40	0.761
360.61	0.762
360.81	0.761
361.02	0.762
361.23	0.754
361.44	0.753
361.65	0.754
361.85	0.753
362.06	0.751
362.27	0.753
362.48	0.754
362.69	0.755
362.89	0.749
363.10	0.750
363.31	0.755
363.52	0.757
363.73	0.752
363.93	0.753
364.14	0.756
364.35	0.758
364.56	0.748
364.77	0.750
364.97	0.754
365.18	0.754
365.39	0.748
365.60	0.744
365.81	0.745
366.01	0.745
366.22	0.740
366.43	0.739
366.64	0.741
366.84	0.747
367.05	0.743
367.26	0.742
367.47	0.745
367.68	0.745
367.88	0.743
368.09	0.741
368.30	0.743
368.51	0.744
368.71	0.743
368.92	0.748
369.13	0.746
369.34	0.746
369.55	0.745
369.75	0.744
369.96	0.752
370.17	0.752
370.38	0.748
370.58	0.747
370.79	0.753
371.00	0.751
371.21	0.741
371.41	0.746
371.62	0.750
371.83	0.745
372.04	0.742
372.24	0.735
372.45	0.736
372.66	0.736
372.87	0.733
373.07	0.729
373.28	0.730
373.49	0.734
373.70	0.724
373.90	0.723
374.11	0.733
374.32	0.732
374.53	0.730
374.73	0.730
374.94	0.734
375.15	0.734
375.36	0.730
375.56	0.740
375.77	0.740
375.98	0.740
376.19	0.737
376.39	0.730
376.60	0.734
376.81	0.735
377.02	0.732
377.22	0.730
377.43	0.730
377.64	0.730
377.84	0.722
378.05	0.726
378.26	0.732
378.47	0.731
378.67	0.727
378.88	0.725
379.09	0.725
379.30	0.726
379.50	0.724
379.71	0.726
379.92	0.730
380.12	0.728
380.33	0.719
380.54	0.716
380.75	0.723
380.95	0.723
381.16	0.721
381.37	0.722
381.57	0.724
381.78	0.724
381.99	0.722
382.20	0.722
382.40	0.725
382.61	0.726
382.82	0.721
383.02	0.714
383.23	0.718
383.44	0.718
383.64	0.715
383.85	0.717
384.06	0.720
384.27	0.717
384.47	0.716
384.68	0.717
384.89	0.721
385.09	0.721
385.30	0.721
385.51	0.719
385.71	0.723
385.92	0.723
386.13	0.721
386.33	0.722
386.54	0.724
386.75	0.722
386.95	0.718
387.16	0.714
387.37	0.717
387.58	0.716
387.78	0.714
387.99	0.711
388.20	0.714
388.40	0.711
388.61	0.707
388.82	0.710
389.02	0.712
389.23	0.711
389.44	0.709
389.64	0.708
389.85	0.721
390.06	0.721
390.26	0.720
390.47	0.719
390.68	0.722
390.88	0.719
391.09	0.715
391.30	0.714
391.50	0.714
391.71	0.714
391.92	0.711
392.12	0.703
392.33	0.703
392.53	0.703
392.74	0.703
392.95	0.703
393.15	0.706
393.36	0.708
393.57	0.705
393.77	0.708
393.98	0.711
394.19	0.710
394.39	0.709
394.60	0.711
394.81	0.713
395.01	0.711
395.22	0.708
395.43	0.708
395.63	0.713
395.84	0.714
396.04	0.709
396.25	0.711
396.46	0.713
396.66	0.710
396.87	0.707
397.08	0.704
397.28	0.705
397.49	0.706
397.69	0.701
397.90	0.697
398.11	0.698
398.31	0.699
398.52	0.695
398.73	0.696
398.93	0.695
399.14	0.694
399.34	0.693
399.55	0.695
399.76	0.695
399.96	0.697
400.17	0.694
400.37	0.692
400.58	0.698
400.79	0.700
400.99	0.697
401.20	0.703
401.41	0.706
401.61	0.707
401.82	0.711
402.02	0.710
402.23	0.711
402.44	0.711
402.64	0.711
402.85	0.706
403.05	0.704
403.26	0.703
403.47	0.696
403.67	0.695
403.88	0.696
404.08	0.690
404.29	0.689
404.50	0.689
404.70	0.690
404.91	0.688
405.11	0.685
405.32	0.686
405.52	0.686
405.73	0.686
405.94	0.684
406.14	0.687
406.35	0.688
406.55	0.688
406.76	0.685
406.97	0.686
407.17	0.689
407.38	0.689
407.58	0.687
407.79	0.690
407.99	0.693
408.20	0.693
408.41	0.688
408.61	0.687
408.82	0.689
409.02	0.688
409.23	0.685
409.43	0.684
409.64	0.686
409.84	0.686
410.05	0.682
410.26	0.681
410.46	0.681
410.67	0.680
410.87	0.681
411.08	0.683
411.28	0.684
411.49	0.686
411.69	0.683
411.90	0.684
412.11	0.686
412.31	0.687
412.52	0.685
412.72	0.686
412.93	0.687
413.13	0.686
413.34	0.682
413.54	0.684
413.75	0.685
413.95	0.685
414.16	0.681
414.37	0.684
414.57	0.684
414.78	0.686
414.98	0.685
415.19	0.685
415.39	0.683
415.60	0.685
415.80	0.684
416.01	0.683
416.21	0.685
416.42	0.685
416.62	0.680
416.83	0.680
417.03	0.680
417.24	0.679
417.44	0.677
417.65	0.676
417.86	0.677
418.06	0.675
418.27	0.673
418.47	0.675
418.68	0.676
418.88	0.676
419.09	0.673
419.29	0.674
419.50	0.675
419.70	0.675
419.91	0.673
420.11	0.671
420.32	0.673
420.52	0.673
420.73	0.672
420.93	0.673
421.14	0.675
421.34	0.674
421.55	0.670
421.75	0.670
421.96	0.671
422.16	0.672
422.37	0.671
422.57	0.668
422.78	0.670
422.98	0.667
423.19	0.664
423.39	0.663
423.60	0.667
423.80	0.668
424.01	0.667
424.21	0.670
424.42	0.670
424.62	0.670
424.83	0.669
425.03	0.670
425.23	0.673
425.44	0.673
425.64	0.672
425.85	0.672
426.05	0.673
426.26	0.673
426.46	0.669
426.67	0.669
426.87	0.674
427.08	0.675
427.28	0.671
427.49	0.673
427.69	0.674
427.90	0.673
428.10	0.670
428.31	0.670
428.51	0.672
428.71	0.671
428.92	0.671
429.12	0.668
429.33	0.670
429.53	0.674
429.74	0.677
429.94	0.677
430.15	0.676
430.35	0.676
430.56	0.673
430.76	0.673
430.96	0.674
431.17	0.672
431.37	0.669
431.58	0.667
431.78	0.664
431.99	0.657
432.19	0.660
432.40	0.662
432.60	0.663
432.80	0.665
433.01	0.663
433.21	0.663
433.42	0.666
433.62	0.667
433.83	0.666
434.03	0.668
434.23	0.671
434.44	0.669
434.64	0.667
434.85	0.672
435.05	0.674
435.26	0.674
435.46	0.672
435.66	0.672
435.87	0.672
436.07	0.672
436.28	0.668
436.48	0.665
436.69	0.665
436.89	0.665
437.09	0.658
437.30	0.657
437.50	0.658
437.71	0.669
437.91	0.668
438.11	0.670
438.32	0.674
438.52	0.675
438.73	0.674
438.93	0.672
439.13	0.673
439.34	0.677
439.54	0.673
439.75	0.674
439.95	0.664
440.15	0.669
440.36	0.667
440.56	0.665
440.77	0.666
440.97	0.666
441.17	0.665
441.38	0.666
441.58	0.664
441.79	0.664
441.99	0.663
442.19	0.662
442.40	0.659
442.60	0.659
442.81	0.656
443.01	0.656
443.21	0.658
443.42	0.657
443.62	0.655
443.82	0.655
444.03	0.657
444.23	0.657
444.44	0.657
444.64	0.656
444.84	0.657
445.05	0.657
445.25	0.655
445.45	0.655
445.66	0.658
445.86	0.657
446.06	0.658
446.27	0.657
446.47	0.661
446.68	0.659
446.88	0.658
447.08	0.658
447.29	0.660
447.49	0.660
447.69	0.659
447.90	0.658
448.10	0.662
448.30	0.659
448.51	0.660
448.71	0.658
448.91	0.660
449.12	0.659
449.32	0.660
449.52	0.659
449.73	0.663
449.93	0.663
450.14	0.663
450.34	0.663
450.54	0.665
450.75	0.662
450.95	0.662
451.15	0.661
451.36	0.664
451.56	0.661
451.76	0.660
451.97	0.657
452.17	0.658
452.37	0.657
452.58	0.654
452.78	0.653
452.98	0.656
453.19	0.655
453.39	0.656
453.59	0.654
453.79	0.656
454.00	0.656
454.20	0.655
454.40	0.655
454.61	0.658
454.81	0.659
455.01	0.656
455.22	0.658
455.42	0.660
455.62	0.657
455.83	0.657
456.03	0.660
456.23	0.662
456.44	0.663
456.64	0.661
456.84	0.661
457.04	0.662
457.25	0.662
457.45	0.659
457.65	0.657
457.86	0.659
458.06	0.657
458.26	0.652
458.47	0.651
458.67	0.653
458.87	0.653
459.07	0.651
459.28	0.653
459.48	0.656
459.68	0.656
459.89	0.655
460.09	0.654
460.29	0.656
460.49	0.657
460.70	0.656
460.90	0.656
461.10	0.656
461.31	0.655
461.51	0.652
461.71	0.653
461.91	0.655
462.12	0.655
462.32	0.653
462.52	0.654
462.72	0.658
462.93	0.658
463.13	0.656
463.33	0.657
463.53	0.659
463.74	0.659
463.94	0.654
464.14	0.655
464.35	0.657
464.55	0.657
464.75	0.655
464.95	0.652
465.16	0.655
465.36	0.653
465.56	0.652
465.76	0.651
465.97	0.652
466.17	0.652
466.37	0.650
466.57	0.651
466.78	0.651
466.98	0.651
467.18	0.649
467.38	0.648
467.59	0.650
467.79	0.651
467.99	0.650
468.19	0.651
468.39	0.655
468.60	0.655
468.80	0.653
469.00	0.656
469.20	0.657
469.41	0.658
469.61	0.656
469.81	0.657
470.01	0.656
470.22	0.657
470.42	0.654
470.62	0.652
470.82	0.653
471.02	0.652
471.23	0.649
471.43	0.650
471.63	0.653
471.83	0.652
472.04	0.651
472.24	0.649
472.44	0.655
472.64	0.656
472.84	0.653
473.05	0.653
473.25	0.656
473.45	0.655
473.65	0.653
473.85	0.653
474.06	0.655
474.26	0.654
474.46	0.655
474.66	0.651
474.86	0.652
475.07	0.652
475.27	0.650
475.47	0.648
475.67	0.649
475.87	0.650
476.08	0.647
476.28	0.648
476.48	0.650
476.68	0.648
476.88	0.646
477.09	0.647
477.29	0.649
477.49	0.649
477.69	0.648
477.89	0.648
478.09	0.648
478.30	0.650
478.50	0.647
478.70	0.647
478.90	0.647
479.10	0.650
479.31	0.650
479.51	0.648
479.71	0.649
479.91	0.649
480.11	0.648
480.31	0.648
480.52	0.647
480.72	0.647
480.92	0.646
481.12	0.645
481.32	0.642
481.52	0.640
481.72	0.641
481.93	0.644
482.13	0.645
482.33	0.644
482.53	0.642
482.73	0.643
482.93	0.644
483.14	0.643
483.34	0.643
483.54	0.644
483.74	0.643
483.94	0.642
484.14	0.638
484.34	0.638
484.55	0.639
484.75	0.638
484.95	0.637
485.15	0.636
485.35	0.636
485.55	0.636
485.75	0.634
485.96	0.634
486.16	0.636
486.36	0.636
486.56	0.634
486.76	0.634
486.96	0.635
487.16	0.634
487.36	0.633
487.57	0.633
487.77	0.634
487.97	0.634
488.17	0.632
488.37	0.631
488.57	0.632
488.77	0.632
488.97	0.630
489.18	0.629
489.38	0.632
489.58	0.633
489.78	0.632
489.98	0.631
490.18	0.631
490.38	0.632
490.58	0.630
490.78	0.631
490.98	0.633
491.19	0.633
491.39	0.632
491.59	0.631
491.79	0.634
491.99	0.634
492.19	0.634
492.39	0.637
492.59	0.637
492.79	0.639
492.99	0.639
493.20	0.639
493.40	0.640
493.60	0.641
493.80	0.640
494.00	0.637
494.20	0.638
494.40	0.638
494.60	0.636
494.80	0.640
495.00	0.639
495.20	0.638
495.40	0.637
495.61	0.638
495.81	0.638
496.01	0.642
496.21	0.642
496.41	0.642
496.61	0.643
496.81	0.641
497.01	0.636
497.21	0.636
497.41	0.637
497.61	0.637
497.81	0.634
498.01	0.634
498.21	0.632
498.41	0.630
498.61	0.630
498.82	0.631
499.02	0.634
499.22	0.634
499.42	0.633
499.62	0.634
499.82	0.635
500.02	0.636
500.22	0.635
500.42	0.637
500.62	0.638
500.82	0.638
501.02	0.636
501.22	0.635
501.42	0.636
501.62	0.639
501.82	0.638
502.02	0.637
502.22	0.637
502.42	0.639
502.62	0.636
502.82	0.637
503.02	0.638
503.22	0.638
503.42	0.636
503.63	0.636
503.83	0.633
504.03	0.632
504.23	0.631
504.43	0.632
504.63	0.633
504.83	0.633
505.03	0.632
505.23	0.633
505.43	0.634
505.63	0.635
505.83	0.634
506.03	0.636
506.23	0.639
506.43	0.639
506.63	0.637
506.83	0.635
507.03	0.638
507.23	0.639
507.43	0.636
507.63	0.637
507.83	0.638
508.03	0.639
508.23	0.638
508.43	0.636
508.63	0.638
508.83	0.639
509.03	0.640
509.23	0.639
509.43	0.640
509.63	0.640
509.83	0.638
510.03	0.641
510.23	0.642
510.43	0.643
510.63	0.643
510.83	0.643
511.03	0.645
511.23	0.642
511.43	0.642
511.63	0.643
511.83	0.646
512.03	0.646
512.22	0.642
512.42	0.642
512.62	0.643
512.82	0.643
513.02	0.641
513.22	0.641
513.42	0.643
513.62	0.646
513.82	0.644
514.02	0.644
514.22	0.645
514.42	0.646
514.62	0.645
514.82	0.646
515.02	0.648
515.22	0.652
515.42	0.650
515.62	0.653
515.82	0.651
516.02	0.653
516.22	0.652
516.42	0.653
516.62	0.655
516.82	0.656
517.01	0.654
517.21	0.653
517.41	0.657
517.61	0.657
517.81	0.653
518.01	0.653
518.21	0.652
518.41	0.651
518.61	0.650
518.81	0.651
519.01	0.652
519.21	0.652
519.41	0.651
519.61	0.646
519.81	0.649
520.00	0.649
520.20	0.650
520.40	0.653
520.60	0.654
520.80	0.653
521.00	0.653
521.20	0.655
521.40	0.659
521.60	0.660
521.80	0.658
522.00	0.658
522.20	0.661
522.39	0.660
522.59	0.657
522.79	0.658
522.99	0.661
523.19	0.658
523.39	0.656
523.59	0.654
523.79	0.657
523.99	0.659
524.19	0.658
524.38	0.656
524.58	0.658
524.78	0.659
524.98	0.657
525.18	0.659
525.38	0.661
525.58	0.661
525.78	0.658
525.98	0.657
526.18	0.658
526.37	0.657
526.57	0.659
526.77	0.659
526.97	0.660
527.17	0.660
527.37	0.656
527.57	0.658
527.77	0.660
527.96	0.660
528.16	0.659
528.36	0.659
528.56	0.661
528.76	0.659
528.96	0.658
529.16	0.659
529.36	0.663
529.55	0.663
529.75	0.659
529.95	0.659
530.15	0.661
530.35	0.663
530.55	0.661
530.75	0.661
530.94	0.663
531.14	0.664
531.34	0.662
531.54	0.659
531.74	0.663
531.94	0.666
532.13	0.664
532.33	0.665
532.53	0.664
532.73	0.663
532.93	0.661
533.13	0.662
533.33	0.663
533.52	0.663
533.72	0.666
533.92	0.664
534.12	0.662
534.32	0.663
534.52	0.661
534.71	0.662
534.91	0.666
535.11	0.667
535.31	0.665
535.51	0.668
535.71	0.670
535.90	0.667
536.10	0.668
536.30	0.670
536.50	0.671
536.70	0.671
536.89	0.668
537.09	0.668
537.29	0.670
537.49	0.670
537.69	0.667
537.89	0.668
538.08	0.668
538.28	0.665
538.48	0.666
538.68	0.668
538.88	0.671
539.07	0.671
539.27	0.669
539.47	0.668
539.67	0.669
539.87	0.671
540.06	0.669
540.26	0.670
540.46	0.672
540.66	0.669
540.86	0.666
541.05	0.666
541.25	0.668
541.45	0.667
541.65	0.666
541.84	0.668
542.04	0.668
542.24	0.669
542.44	0.667
542.64	0.668
542.83	0.672
543.03	0.672
543.23	0.669
543.43	0.670
543.62	0.672
543.82	0.671
544.02	0.670
544.22	0.670
544.42	0.674
544.61	0.674
544.81	0.671
545.01	0.669
545.21	0.671
545.40	0.671
545.60	0.670
545.80	0.673
546.00	0.674
546.19	0.673
546.39	0.672
546.59	0.669
546.79	0.671
546.98	0.671
547.18	0.671
547.38	0.672
547.58	0.675
547.77	0.675
547.97	0.671
548.17	0.672
548.37	0.673
548.56	0.672
548.76	0.672
548.96	0.674
549.16	0.677
549.35	0.677
549.55	0.674
549.75	0.675
549.95	0.679
550.14	0.679
550.34	0.677
550.54	0.682
550.73	0.686
550.93	0.687
551.13	0.683
551.33	0.681
551.52	0.682
551.72	0.683
551.92	0.680
552.12	0.680
552.31	0.680
552.51	0.681
552.71	0.676
552.90	0.676
553.10	0.677
553.30	0.678
553.50	0.677
553.69	0.678
553.89	0.679
554.09	0.679
554.28	0.677
554.48	0.678
554.68	0.681
554.87	0.681
555.07	0.677
555.27	0.677
555.47	0.679
555.66	0.680
555.86	0.678
556.06	0.680
556.25	0.682
556.45	0.690
556.65	0.688
556.84	0.691
557.04	0.695
557.24	0.696
557.43	0.695
557.63	0.697
557.83	0.699
558.02	0.699
558.22	0.703
558.42	0.704
558.61	0.697
558.81	0.696
559.01	0.692
559.21	0.691
559.40	0.693
559.60	0.693
559.80	0.689
559.99	0.691
560.19	0.693
560.39	0.687
560.58	0.683
560.78	0.683
560.97	0.688
561.17	0.687
561.37	0.685
561.56	0.686
561.76	0.688
561.96	0.688
562.15	0.685
562.35	0.688
562.55	0.689
562.74	0.690
562.94	0.689
563.14	0.687
563.33	0.687
563.53	0.687
563.73	0.684
563.92	0.685
564.12	0.689
564.31	0.691
564.51	0.689
564.71	0.690
564.90	0.693
565.10	0.694
565.30	0.696
565.49	0.697
565.69	0.700
565.89	0.700
566.08	0.697
566.28	0.698
566.47	0.700
566.67	0.698
566.87	0.695
567.06	0.696
567.26	0.703
567.46	0.699
567.65	0.697
567.85	0.699
568.04	0.702
568.24	0.701
568.44	0.697
568.63	0.695
568.83	0.697
569.02	0.696
569.22	0.691
569.42	0.687
569.61	0.690
569.81	0.689
570.00	0.685
570.20	0.687
570.40	0.688
570.59	0.689
570.79	0.686
570.98	0.684
571.18	0.686
571.38	0.685
571.57	0.682
571.77	0.680
571.96	0.683
572.16	0.681
572.35	0.676
572.55	0.677
572.75	0.675
572.94	0.675
573.14	0.673
573.33	0.673
573.53	0.674
573.73	0.674
573.92	0.672
574.12	0.670
574.31	0.672
574.51	0.673
574.70	0.670
574.90	0.672
575.09	0.674
575.29	0.674
575.49	0.671
575.68	0.671
575.88	0.673
576.07	0.675
576.27	0.672
576.46	0.671
576.66	0.670
576.86	0.670
577.05	0.667
577.25	0.666
577.44	0.668
577.64	0.668
577.83	0.666
578.03	0.667
578.22	0.667
578.42	0.666
578.61	0.664
578.81	0.664
579.00	0.665
579.20	0.665
579.40	0.663
579.59	0.662
579.79	0.663
579.98	0.662
580.18	0.661
580.37	0.661
580.57	0.664
580.76	0.669
580.96	0.667
581.15	0.668
581.35	0.670
581.54	0.670
581.74	0.669
581.93	0.670
582.13	0.672
582.32	0.669
582.52	0.667
582.71	0.667
582.91	0.663
583.10	0.663
583.30	0.662
583.49	0.661
583.69	0.665
583.88	0.666
584.08	0.664
584.27	0.666
584.47	0.669
584.66	0.670
584.86	0.669
585.05	0.670
585.25	0.672
585.44	0.672
585.64	0.670
585.83	0.667
586.03	0.668
586.22	0.667
586.42	0.664
586.61	0.666
586.81	0.668
587.00	0.668
587.20	0.665
587.39	0.666
587.59	0.669
587.78	0.670
587.98	0.671
588.17	0.671
588.37	0.673
588.56	0.675
588.76	0.671
588.95	0.671
589.15	0.675
589.34	0.678
589.54	0.676
589.73	0.676
589.92	0.680
590.12	0.679
590.31	0.677
590.51	0.682
590.70	0.684
590.90	0.684
591.09	0.682
591.29	0.680
591.48	0.680
591.68	0.682
591.87	0.680
592.06	0.679
592.26	0.682
592.45	0.681
592.65	0.675
592.84	0.674
593.04	0.676
593.23	0.679
593.43	0.676
593.62	0.675
593.81	0.676
594.01	0.675
594.20	0.672
594.40	0.672
594.59	0.675
594.79	0.676
594.98	0.674
595.17	0.674
595.37	0.675
595.56	0.677
595.76	0.676
595.95	0.677
596.14	0.680
596.34	0.681
596.53	0.679
596.73	0.680
596.92	0.682
597.12	0.684
597.31	0.684
597.50	0.683
597.70	0.686
597.89	0.685
598.09	0.681
598.28	0.683
598.47	0.686
598.67	0.684
598.86	0.680
599.06	0.683
599.25	0.683
599.44	0.681
599.64	0.678
599.83	0.675
600.03	0.679
600.22	0.679
600.41	0.679
600.61	0.677
600.80	0.680
601.00	0.681
601.19	0.676
601.38	0.675
601.58	0.678
601.77	0.679
601.96	0.681
602.16	0.681
602.35	0.690
602.55	0.688
602.74	0.688
602.93	0.689
603.13	0.694
603.32	0.695
603.51	0.694
603.71	0.697
603.90	0.699
604.09	0.700
604.29	0.697
604.48	0.691
604.68	0.692
604.87	0.691
605.06	0.688
605.26	0.685
605.45	0.686
605.64	0.686
605.84	0.680
606.03	0.679
606.22	0.678
606.42	0.677
606.61	0.673
606.80	0.674
607.00	0.676
607.19	0.676
607.38	0.674
607.58	0.675
607.77	0.678
607.96	0.679
608.16	0.677
608.35	0.683
608.54	0.686
608.74	0.690
608.93	0.695
609.12	0.698
609.32	0.700
609.51	0.704
609.70	0.703
609.90	0.705
610.09	0.709
610.28	0.715
610.48	0.707
610.67	0.708
610.86	0.709
611.06	0.703
611.25	0.701
611.44	0.702
611.64	0.702
611.83	0.704
612.02	0.699
612.21	0.698
612.41	0.697
612.60	0.696
612.79	0.692
612.99	0.692
613.18	0.694
613.37	0.692
613.57	0.689
613.76	0.691
613.95	0.689
614.14	0.689
614.34	0.687
614.53	0.688
614.72	0.691
614.92	0.692
615.11	0.689
615.30	0.686
615.49	0.688
615.69	0.691
615.88	0.687
616.07	0.689
616.26	0.692
616.46	0.693
616.65	0.690
616.84	0.688
617.04	0.690
617.23	0.693
617.42	0.693
617.61	0.697
617.81	0.698
618.00	0.700
618.19	0.697
618.38	0.702
618.58	0.705
618.77	0.706
618.96	0.705
619.15	0.707
619.35	0.709
619.54	0.709
619.73	0.704
619.92	0.706
620.12	0.711
620.31	0.711
620.50	0.704
620.69	0.705
620.89	0.708
621.08	0.708
621.27	0.708
621.46	0.707
621.66	0.711
621.85	0.712
622.04	0.708
622.23	0.708
622.43	0.709
622.62	0.709
622.81	0.708
623.00	0.708
623.19	0.712
623.39	0.711
623.58	0.707
623.77	0.706
623.96	0.709
624.16	0.708
624.35	0.703
624.54	0.706
624.73	0.711
624.92	0.709
625.12	0.706
625.31	0.707
625.50	0.710
625.69	0.711
625.88	0.707
626.08	0.707
626.27	0.710
626.46	0.710
626.65	0.706
626.84	0.706
627.04	0.712
627.23	0.712
627.42	0.708
627.61	0.709
627.80	0.713
628.00	0.713
628.19	0.711
628.38	0.715
628.57	0.718
628.76	0.718
628.96	0.713
629.15	0.714
629.34	0.718
629.53	0.718
629.72	0.712
629.91	0.713
630.11	0.718
630.30	0.718
630.49	0.720
630.68	0.720
630.87	0.724
631.06	0.727
631.26	0.720
631.45	0.722
631.64	0.731
631.83	0.733
632.02	0.729
632.21	0.730
632.41	0.738
632.60	0.732
632.79	0.729
632.98	0.730
633.17	0.732
633.36	0.734
633.55	0.730
633.75	0.726
633.94	0.730
634.13	0.730
634.32	0.726
634.51	0.719
634.70	0.722
634.89	0.722
635.09	0.717
635.28	0.718
635.47	0.720
635.66	0.722
635.85	0.717
636.04	0.717
636.23	0.723
636.43	0.725
636.62	0.723
636.81	0.722
637.00	0.726
637.19	0.729
637.38	0.725
637.57	0.724
637.76	0.727
637.95	0.729
638.15	0.725
638.34	0.722
638.53	0.726
638.72	0.728
638.91	0.725
639.10	0.722
639.29	0.723
639.48	0.724
639.67	0.724
639.87	0.722
640.06	0.727
640.25	0.727
640.44	0.727
640.63	0.727
640.82	0.730
641.01	0.729
641.20	0.729
641.39	0.731
641.58	0.735
641.78	0.732
641.97	0.728
642.16	0.743
642.35	0.744
642.54	0.743
642.73	0.736
642.92	0.734
643.11	0.740
643.30	0.740
643.49	0.734
643.68	0.736
643.87	0.738
644.06	0.738
644.25	0.716
644.45	0.719
644.64	0.721
644.83	0.723
645.02	0.718
645.21	0.717
645.40	0.719
645.59	0.719
645.78	0.713
645.97	0.715
646.16	0.717
646.35	0.717
646.54	0.715
646.73	0.716
646.92	0.718
647.11	0.717
647.30	0.712
647.49	0.713
647.68	0.713
647.88	0.711
648.07	0.703
648.26	0.706
648.45	0.708
648.64	0.704
648.83	0.701
649.02	0.704
649.21	0.715
649.40	0.714
649.59	0.709
649.78	0.710
649.97	0.725
650.16	0.724
650.35	0.717
650.54	0.721
650.73	0.730
650.92	0.727
651.11	0.720
651.30	0.717
651.49	0.724
651.68	0.724
651.87	0.720
652.06	0.710
652.25	0.714
652.44	0.716
652.63	0.712
652.82	0.710
653.01	0.709
653.20	0.706
653.39	0.693
653.58	0.690
653.77	0.689
653.96	0.683
654.15	0.675
654.34	0.673
654.53	0.669
654.72	0.664
654.91	0.655
655.10	0.652
655.29	0.650
655.48	0.648
655.67	0.643
655.86	0.640
656.05	0.639
656.24	0.639
656.43	0.634
656.62	0.633
656.81	0.633
657.00	0.631
657.19	0.629
657.38	0.629
657.57	0.629
657.76	0.632
657.95	0.630
658.14	0.634
658.33	0.638
658.51	0.643
658.70	0.643
658.89	0.644
659.08	0.654
659.27	0.661
659.46	0.661
659.65	0.667
659.84	0.670
660.03	0.674
660.22	0.675
660.41	0.678
660.60	0.679
660.79	0.681
660.98	0.686
661.17	0.685
661.36	0.686
661.55	0.686
661.74	0.683
661.92	0.687
662.11	0.690
662.30	0.688
662.49	0.680
662.68	0.679
662.87	0.683
663.06	0.676
663.25	0.676
663.44	0.677
663.63	0.678
663.82	0.676
664.01	0.670
664.20	0.668
664.38	0.671
664.57	0.672
664.76	0.671
664.95	0.671
665.14	0.676
665.33	0.670
665.52	0.677
665.71	0.682
665.90	0.682
666.09	0.684
666.28	0.681
666.46	0.680
666.65	0.681
666.84	0.678
667.03	0.672
667.22	0.670
667.41	0.675
667.60	0.664
667.79	0.657
667.98	0.658
668.16	0.659
668.35	0.660
668.54	0.655
668.73	0.656
668.92	0.657
669.11	0.657
669.30	0.651
669.49	0.646
669.67	0.648
669.86	0.650
670.05	0.648
670.24	0.645
670.43	0.643
670.62	0.642
670.81	0.637
671.00	0.638
671.18	0.638
671.37	0.637
671.56	0.635
671.75	0.634
671.94	0.631
672.13	0.629
672.32	0.624
672.50	0.624
672.69	0.625
672.88	0.626
673.07	0.620
673.26	0.623
673.45	0.625
673.63	0.625
673.82	0.621
674.01	0.622
674.20	0.622
674.39	0.621
674.58	0.620
674.76	0.619
674.95	0.618
675.14	0.619
675.33	0.613
675.52	0.611
675.71	0.611
675.89	0.611
676.08	0.607
676.27	0.606
676.46	0.607
676.65	0.606
676.84	0.605
677.02	0.607
677.21	0.610
677.40	0.609
677.59	0.607
677.78	0.607
677.96	0.611
678.15	0.610
678.34	0.608
678.53	0.608
678.72	0.608
678.90	0.605
679.09	0.600
679.28	0.597
679.47	0.597
679.66	0.597
679.84	0.594
680.03	0.591
680.22	0.590
680.41	0.592
680.60	0.588
680.78	0.587
680.97	0.590
681.16	0.590
681.35	0.589
681.53	0.587
681.72	0.589
681.91	0.591
682.10	0.589
682.29	0.592
682.47	0.590
682.66	0.590
682.85	0.588
683.04	0.586
683.22	0.587
683.41	0.588
683.60	0.587
683.79	0.588
683.97	0.587
684.16	0.586
684.35	0.581
684.54	0.583
684.72	0.583
684.91	0.584
685.10	0.582
685.29	0.583
685.47	0.580
685.66	0.579
685.85	0.575
686.04	0.574
686.22	0.577
686.41	0.580
686.60	0.576
686.79	0.579
686.97	0.580
687.16	0.582
687.35	0.579
687.54	0.583
687.72	0.587
687.91	0.587
688.10	0.588
688.29	0.587
688.47	0.586
688.66	0.585
688.85	0.581
689.03	0.579
689.22	0.583
689.41	0.583
689.60	0.579
689.78	0.576
689.97	0.576
690.16	0.574
690.34	0.570
690.53	0.571
690.72	0.571
690.91	0.569
691.09	0.567
691.28	0.561
691.47	0.559
691.65	0.558
691.84	0.554
692.03	0.553
692.21	0.552
692.40	0.551
692.59	0.549
692.77	0.548
692.96	0.549
693.15	0.550
693.34	0.547
693.52	0.547
693.71	0.548
693.90	0.550
694.08	0.550
694.27	0.551
694.46	0.561
694.64	0.561
694.83	0.560
695.02	0.559
695.20	0.560
695.39	0.560
695.58	0.559
695.76	0.560
695.95	0.560
696.14	0.559
696.32	0.557
696.51	0.547
696.70	0.547
696.88	0.549
697.07	0.547
697.26	0.548
697.44	0.549
697.63	0.548
697.81	0.545
698.00	0.545
698.19	0.545
698.37	0.546
698.56	0.545
698.75	0.545
698.93	0.544
699.12	0.544
699.31	0.543
699.49	0.543
699.68	0.544
699.87	0.546
700.05	0.545
700.24	0.544
700.42	0.545
700.61	0.545
700.80	0.543
700.98	0.542
701.17	0.543
701.36	0.543
701.54	0.542
701.73	0.543
701.91	0.541
702.10	0.541
702.29	0.540
702.47	0.539
702.66	0.541
702.84	0.542
703.03	0.540
703.22	0.542
703.40	0.541
703.59	0.543
703.77	0.542
703.96	0.542
704.15	0.543
704.33	0.543
704.52	0.542
704.70	0.542
704.89	0.542
705.08	0.541
705.26	0.536
705.45	0.536
705.63	0.536
705.82	0.533
706.00	0.531
706.19	0.530
706.38	0.531
706.56	0.529
706.75	0.527
706.93	0.525
707.12	0.527
707.30	0.528
707.49	0.525
707.68	0.523
707.86	0.523
708.05	0.523
708.23	0.520
708.42	0.520
708.60	0.524
708.79	0.524
708.98	0.522
709.16	0.522
709.35	0.524
709.53	0.528
709.72	0.527
709.90	0.529
710.09	0.531
710.27	0.534
710.46	0.537
710.64	0.535
710.83	0.537
711.02	0.538
711.20	0.536
711.39	0.534
711.57	0.532
711.76	0.533
711.94	0.530
712.13	0.531
712.31	0.531
712.50	0.526
712.68	0.523
712.87	0.524
713.05	0.525
713.24	0.526
713.42	0.524
713.61	0.525
713.79	0.526
713.98	0.526
714.16	0.527
714.35	0.526
714.54	0.528
714.72	0.528
714.91	0.525
715.09	0.532
715.28	0.535
715.46	0.536
715.65	0.533
715.83	0.533
716.02	0.536
716.20	0.532
716.39	0.531
716.57	0.533
716.76	0.535
716.94	0.535
717.12	0.527
717.31	0.529
717.49	0.532
717.68	0.534
717.86	0.533
718.05	0.535
718.23	0.538
718.42	0.540
718.60	0.540
718.79	0.549
718.97	0.552
719.16	0.553
719.34	0.550
719.53	0.550
719.71	0.550
719.90	0.552
720.08	0.549
720.27	0.550
720.45	0.550
720.63	0.548
720.82	0.541
721.00	0.543
721.19	0.547
721.37	0.546
721.56	0.546
721.74	0.549
721.93	0.558
722.11	0.565
722.30	0.565
722.48	0.570
722.66	0.572
722.85	0.571
723.03	0.571
723.22	0.570
723.40	0.573
723.59	0.573
723.77	0.577
723.95	0.571
724.14	0.573
724.32	0.574
724.51	0.573
724.69	0.574
724.88	0.576
725.06	0.574
725.24	0.574
725.43	0.576
725.61	0.579
725.80	0.571
725.98	0.568
726.16	0.565
726.35	0.571
726.53	0.570
726.72	0.569
726.90	0.579
727.09	0.580
727.27	0.585
727.45	0.582
727.64	0.592
727.82	0.603
728.01	0.608
728.19	0.603
728.37	0.608
728.56	0.613
728.74	0.619
728.92	0.607
729.11	0.609
729.29	0.609
729.48	0.612
729.66	0.599
729.84	0.598
730.03	0.603
730.21	0.606
730.40	0.595
730.58	0.595
730.76	0.597
730.95	0.600
731.13	0.599
731.31	0.612
731.50	0.622
731.68	0.626
731.86	0.621
732.05	0.636
732.23	0.639
732.42	0.643
732.60	0.648
732.78	0.653
732.97	0.673
733.15	0.680
733.33	0.667
733.52	0.674
733.70	0.686
733.88	0.696
734.07	0.681
734.25	0.709
734.43	0.719
734.62	0.720
734.80	0.713
734.98	0.704
735.17	0.713
735.35	0.721
735.53	0.709
735.72	0.713
735.90	0.739
736.08	0.759
736.27	0.732
736.45	0.744
736.63	0.759
736.82	0.772
737.00	0.771
737.18	0.780
737.37	0.816
737.55	0.840
737.73	0.832
737.92	0.834
738.10	0.834
738.28	0.856
738.46	0.840
738.65	0.854
738.83	0.879
739.01	0.939
739.20	0.925
739.38	0.907
739.56	0.903
739.75	0.910
739.93	0.872
740.11	0.902
740.29	0.905
740.48	0.916
740.66	0.891
740.84	0.886
741.03	0.854
741.21	0.868
741.39	0.841
741.57	0.857
741.76	0.877
741.94	0.883
742.12	0.839
742.31	0.845
742.49	0.870
742.67	0.896
742.85	0.910
743.04	0.910
743.22	0.928
743.40	0.994
743.58	0.967
743.77	0.992
743.95	1.040
744.13	1.107
744.31	1.078
744.50	1.068
744.68	1.076
744.86	1.041
745.04	1.052
745.23	1.131
745.41	1.120
745.59	1.121
745.77	1.073
745.96	1.060
746.14	1.078
746.32	1.078
746.50	1.065
746.69	1.045
746.87	1.063
747.05	1.047
747.23	0.954
747.42	0.935
747.60	0.978
747.78	0.982
747.96	1.020
748.14	0.964
748.33	1.004
748.51	0.991
748.69	0.972
748.87	1.011
749.06	1.000
749.24	1.002
749.42	0.979
749.60	0.953
749.78	0.968
749.97	0.914
750.15	0.905
750.33	0.905
750.51	0.946
750.69	0.952
750.88	0.950
751.06	0.971
751.24	1.006
751.42	0.994
751.60	0.979
751.79	1.065
751.97	1.129
752.15	1.123
752.33	1.078
752.51	1.152
752.69	1.191
752.88	1.149
753.06	1.201
753.24	1.162
753.42	1.212
753.60	1.484
753.78	1.249
753.97	1.267
754.15	1.308
754.33	1.353
754.51	1.163
754.69	1.134
754.87	1.172
755.06	1.079
755.24	1.077
755.42	1.092
755.60	0.971
755.78	0.983
755.96	0.914
756.15	0.910
756.33	0.919
756.51	0.940
756.69	0.920
756.87	0.881
757.05	0.906
757.23	0.885
757.42	0.845
757.60	0.844
757.78	0.832
757.96	0.834
758.14	0.816
758.32	0.799
758.50	0.818
758.69	0.816
758.87	0.803
759.05	0.809
759.23	0.824
759.41	0.824
759.59	0.815
759.77	0.840
759.95	0.874
760.13	0.929
760.32	0.924
760.50	0.912
760.68	0.942
760.86	0.944
761.04	0.905
761.22	0.905
761.40	0.962
761.58	0.964
761.76	0.930
761.95	0.907
762.13	0.861
762.31	0.862
762.49	0.830
762.67	0.850
762.85	0.869
763.03	0.866
763.21	0.843
763.39	0.820
763.57	0.825
763.75	0.816
763.94	0.796
764.12	0.795
764.30	0.823
764.48	0.827
764.66	0.787
764.84	0.783
765.02	0.828
765.20	0.836
765.38	0.814
765.56	0.820
765.74	0.866
765.92	0.872
766.10	0.882
766.28	0.871
766.46	0.903
766.65	0.906
766.83	0.892
767.01	0.874
767.19	0.884
767.37	0.887
767.55	0.869
767.73	0.845
767.91	0.846
768.09	0.833
768.27	0.820
768.45	0.812
768.63	0.816
768.81	0.819
768.99	0.787
769.17	0.814
769.35	0.828
769.53	0.827
769.71	0.808
769.89	0.823
770.07	0.831
770.25	0.811
770.43	0.782
770.61	0.810
770.79	0.818
770.97	0.834
771.15	0.798
771.33	0.802
771.51	0.805
771.69	0.816
771.87	0.822
772.05	0.827
772.24	0.839
772.42	0.850
772.60	0.825
772.78	0.895
772.96	0.922
773.14	0.916
773.32	0.890
773.49	0.899
773.67	0.897
773.85	0.870
774.03	0.856
774.21	0.894
774.39	0.914
774.57	0.937
774.75	0.851
774.93	0.848
775.11	0.879
775.29	0.889
775.47	0.889
775.65	0.904
775.83	0.929
776.01	0.956
776.19	0.894
776.37	0.889
776.55	0.892
776.73	0.889
776.91	0.881
777.09	0.859
777.27	0.858
777.45	0.845
777.63	0.816
777.81	0.811
777.99	0.800
778.17	0.799
778.35	0.776
778.53	0.764
778.71	0.771
778.89	0.757
779.07	0.743
779.24	0.747
779.42	0.750
779.60	0.773
779.78	0.764
779.96	0.769
780.14	0.779
780.32	0.801
780.50	0.781
780.68	0.781
780.86	0.772
781.04	0.790
781.22	0.792
781.40	0.804
781.58	0.792
781.75	0.784
781.93	0.763
782.11	0.763
782.29	0.749
782.47	0.748
782.65	0.732
782.83	0.765
783.01	0.762
783.19	0.754
783.37	0.737
783.55	0.742
783.72	0.763
783.90	0.777
784.08	0.767
784.26	0.783
784.44	0.806
784.62	0.809
784.80	0.770
784.98	0.775
785.16	0.782
785.33	0.797
785.51	0.779
785.69	0.765
785.87	0.765
786.05	0.775
786.23	0.768
786.41	0.764
786.59	0.774
786.77	0.772
786.94	0.755
787.12	0.758
787.30	0.761
787.48	0.758
787.66	0.742
787.84	0.742
788.02	0.735
788.19	0.730
788.37	0.714
788.55	0.713
788.73	0.717
788.91	0.712
789.09	0.694
789.27	0.683
789.44	0.697
789.62	0.703
789.80	0.712
789.98	0.738
790.16	0.725
790.34	0.719
790.51	0.706
790.69	0.725
790.87	0.734
791.05	0.733
791.23	0.723
791.41	0.724
791.58	0.735
791.76	0.712
791.94	0.677
792.12	0.687
792.30	0.691
792.48	0.690
792.65	0.683
792.83	0.690
793.01	0.698
793.19	0.698
793.37	0.679
793.54	0.674
793.72	0.688
793.90	0.689
794.08	0.678
794.26	0.682
794.43	0.692
794.61	0.673
794.79	0.660
794.97	0.658
795.15	0.667
795.32	0.672
795.50	0.661
795.68	0.653
795.86	0.660
796.04	0.660
796.21	0.652
796.39	0.650
796.57	0.667
796.75	0.680
796.92	0.679
797.10	0.683
797.28	0.687
797.46	0.690
797.64	0.691
797.81	0.697
797.99	0.705
798.17	0.708
798.35	0.701
798.52	0.704
798.70	0.696
798.88	0.708
799.06	0.705
799.23	0.709
799.41	0.720
799.59	0.713
799.77	0.701
799.94	0.710
800.12	0.722
800.30	0.743
800.48	0.739
800.65	0.739
800.83	0.726
801.01	0.717
801.19	0.715
801.36	0.709
801.54	0.715
801.72	0.723
801.90	0.706
802.07	0.701
802.25	0.686
802.43	0.669
802.60	0.665
802.78	0.674
802.96	0.679
803.14	0.671
803.31	0.669
803.49	0.670
803.67	0.669
803.84	0.673
804.02	0.662
804.20	0.665
804.38	0.671
804.55	0.670
804.73	0.652
804.91	0.654
805.08	0.668
805.26	0.664
805.44	0.724
805.61	0.727
805.79	0.728
805.97	0.729
806.15	0.717
806.32	0.710
806.50	0.717
806.68	0.717
806.85	0.705
807.03	0.697
807.21	0.716
807.38	0.652
807.56	0.640
807.74	0.651
807.91	0.659
808.09	0.662
808.27	0.683
808.44	0.711
808.62	0.724
808.80	0.725
808.97	0.718
809.15	0.712
809.33	0.733
809.50	0.740
809.68	0.720
809.86	0.728
810.03	0.767
810.21	0.744
810.39	0.723
810.56	0.727
810.74	0.756
810.91	0.839
811.09	0.827
811.27	0.852
811.44	0.860
811.62	0.865
811.80	0.846
811.97	0.809
812.15	0.810
812.33	0.803
812.50	0.786
812.68	0.772
812.85	0.707
813.03	0.709
813.21	0.670
813.38	0.665
813.56	0.669
813.74	0.681
813.91	0.690
814.09	0.725
814.26	0.721
814.44	0.725
814.62	0.713
814.79	0.720
814.97	0.727
815.14	0.733
815.32	0.733
815.50	0.751
815.67	0.756
815.85	0.745
816.02	0.730
816.20	0.738
816.38	0.758
816.55	0.764
816.73	0.759
816.90	0.772
817.08	0.808
817.26	0.818
817.43	0.793
817.61	0.816
817.78	0.841
817.96	0.817
818.13	0.802
818.31	0.802
818.49	0.818
818.66	0.809
818.84	0.792
819.01	0.769
819.19	0.777
819.36	0.778
819.54	0.749
819.71	0.796
819.89	0.816
820.07	0.831
820.24	0.823
820.42	0.822
820.59	0.848
820.77	0.872
820.94	0.857
821.12	0.881
821.29	0.906
821.47	0.905
821.64	0.828
821.82	0.842
822.00	0.838
822.17	0.835
822.35	0.830
822.52	0.830
822.70	0.822
822.87	0.835
823.05	0.807
823.22	0.820
823.40	0.854
823.57	0.883
823.75	0.861
823.92	0.895
824.10	0.922
824.27	0.971
824.45	0.960
824.62	1.040
824.80	1.069
824.97	1.093
825.15	1.072
825.32	1.091
825.50	1.098
825.67	1.108
825.85	1.076
826.02	1.104
826.20	1.154
826.37	1.373
826.55	1.233
826.72	1.638
826.90	1.941
827.07	2.340
827.25	1.920
827.42	-0.000
827.60	-0.000
827.77	-0.000
827.95	-0.000
828.12	-0.000
828.30	-0.000
828.47	-0.000
828.65	1.878
828.82	2.302
829.00	-0.000
829.17	-0.000
829.34	-0.000
829.52	-0.000
829.69	-0.000
829.87	-0.000
830.04	-0.000
830.22	-0.000
830.39	-0.000
830.57	-0.000
830.74	-0.000
830.92	-0.000
831.09	-0.000
831.26	-0.000
831.44	-0.000
831.61	-0.000
831.79	-0.000
831.96	-0.000
832.14	-0.000
832.31	-0.000
832.49	-0.000
832.66	-0.000
832.83	-0.000
833.01	-0.000
833.18	-0.000
833.36	-0.000
833.53	-0.000
833.70	-0.000
833.88	-0.000
834.05	-0.000
834.23	-0.000
834.40	-0.000
834.58	-0.000
834.75	-0.000
834.92	-0.000
835.10	-0.000
835.27	-0.000
835.45	-0.000
835.62	-0.000
835.79	-0.000
835.97	-0.000
836.14	-0.000
836.32	-0.000
836.49	-0.000
836.66	-0.000
836.84	-0.000
837.01	-0.000
837.18	-0.000
837.36	-0.000
837.53	-0.000
837.71	-0.000
837.88	-0.000
838.05	-0.000
838.23	-0.000
838.40	-0.000
838.58	-0.000
838.75	-0.000
838.92	-0.000
839.10	-0.000
839.27	-0.000
839.44	-0.000
839.62	-0.000
839.79	-0.000
839.96	-0.000
840.14	-0.000
840.31	-0.000
840.48	-0.000
840.66	-0.000
840.83	-0.000
841.01	-0.000
841.18	-0.000
841.35	-0.000
841.53	-0.000
841.70	-0.000
841.87	-0.000
842.05	-0.000
842.22	-0.000
842.39	-0.000
842.57	-0.000
842.74	-0.000
842.91	-0.000
843.09	-0.000
843.26	-0.000
843.43	-0.000
843.60	-0.000
843.78	-0.000
843.95	-0.000
844.12	-0.000
844.30	-0.000
844.47	-0.000
844.64	-0.000
844.82	-0.000
844.99	-0.000
845.16	-0.000
845.34	-0.000
845.51	-0.000
845.68	-0.000
845.85	-0.000
846.03	-0.000
846.20	-0.000
846.37	-0.000
846.55	-0.000
846.72	-0.000
846.89	-0.000
847.06	-0.000
847.24	-0.000
847.41	-0.000
847.58	-0.000
847.76	-0.000
847.93	-0.000
848.10	-0.000
848.27	-0.000
848.45	-0.000
848.62	-0.000
848.79	-0.000
848.97	-0.000
849.14	-0.000
849.31	-0.000
849.48	-0.000
849.66	-0.000
849.83	-0.000
850.00	-0.000
850.17	-0.000
850.35	-0.000
850.52	-0.000
850.69	-0.000
850.86	-0.000
851.04	-0.000
851.21	-0.000
851.38	-0.000
851.55	-0.000
851.72	-0.000
851.90	-0.000
852.07	-0.000
852.24	-0.000
852.41	-0.000
852.59	-0.000
852.76	-0.000
852.93	-0.000
853.10	-0.000
853.28	-0.000
853.45	-0.000
853.62	-0.000
853.79	-0.000
853.96	-0.000
854.14	-0.000
854.31	-0.000
854.48	-0.000
854.65	-0.000
854.82	-0.000
855.00	-0.000
855.17	-0.000
855.34	-0.000
855.51	-0.000
855.68	-0.000
855.86	-0.000
856.03	-0.000
856.20	-0.000
856.37	-0.000
856.54	-0.000
856.72	-0.000
856.89	-0.000
857.06	-0.000
857.23	-0.000
857.40	-0.000
857.57	-0.000
857.75	-0.000
857.92	-0.000
858.09	-0.000
858.26	-0.000
858.43	-0.000
858.60	-0.000
858.78	-0.000
858.95	-0.000
859.12	-0.000
859.29	-0.000
859.46	-0.000
859.63	-0.000
859.81	-0.000
859.98	-0.000
860.15	-0.000
860.32	-0.000
860.49	-0.000
860.66	-0.000
860.83	-0.000
861.01	-0.000
861.18	-0.000
861.35	-0.000
861.52	-0.000
861.69	-0.000
861.86	-0.000
862.03	-0.000
862.21	-0.000
862.38	-0.000
862.55	-0.000
862.72	-0.000
862.89	-0.000
863.06	-0.000
863.23	-0.000
863.40	-0.000
863.58	-0.000
863.75	-0.000
863.92	-0.000
864.09	-0.000
864.26	-0.000
864.43	-0.000
864.60	-0.000
864.77	-0.000
864.94	-0.000
865.11	-0.000
865.29	-0.000
865.46	-0.000
865.63	-0.000
865.80	-0.000
865.97	-0.000
866.14	-0.000
866.31	-0.000
866.48	-0.000
866.65	-0.000
866.82	-0.000
866.99	-0.000
867.16	-0.000
867.34	-0.000
867.51	-0.000
867.68	-0.000
867.85	-0.000
868.02	-0.000
868.19	-0.000
868.36	-0.000
868.53	-0.000
868.70	-0.000
868.87	-0.000
869.04	-0.000
869.21	-0.000
869.38	-0.000
869.55	-0.000
869.72	-0.000
869.89	-0.000
870.06	-0.000
870.24	-0.000
870.41	-0.000
870.58	-0.000
870.75	-0.000
870.92	-0.000
871.09	-0.000
871.26	-0.000
871.43	-0.000
871.60	-0.000
871.77	-0.000
871.94	-0.000
872.11	-0.000
872.28	-0.000
872.45	-0.000
872.62	-0.000
872.79	-0.000
872.96	-0.000
873.13	-0.000
873.30	-0.000
873.47	-0.000
873.64	-0.000
873.81	-0.000
873.98	-0.000
874.15	-0.000
874.32	-0.000
874.49	-0.000
874.66	-0.000
874.83	-0.000
875.00	-0.000
875.17	-0.000
875.34	-0.000
875.51	-0.000
875.68	-0.000
875.85	-0.000
876.02	-0.000
876.19	-0.000
876.36	-0.000
876.53	-0.000
876.70	-0.000
876.87	-0.000
877.04	-0.000
877.21	-0.000
877.38	-0.000
877.55	-0.000
877.72	-0.000
877.89	-0.000
878.06	-0.000
878.23	-0.000
878.39	-0.000
878.56	-0.000
878.73	-0.000
878.90	-0.000
879.07	-0.000
879.24	-0.000
879.41	-0.000
879.58	-0.000
879.75	-0.000
879.92	-0.000
880.09	-0.000
880.26	-0.000
880.43	-0.000
880.60	-0.000
880.77	-0.000
880.94	-0.000
881.11	-0.000
881.27	-0.000
881.44	-0.000
881.61	-0.000
881.78	-0.000
881.95	-0.000
882.12	-0.000
882.29	-0.000
882.46	-0.000
882.63	-0.000
882.80	-0.000
882.97	-0.000
883.14	-0.000
883.30	-0.000
883.47	-0.000
883.64	-0.000
883.81	-0.000
883.98	-0.000
884.15	-0.000
884.32	-0.000
884.49	-0.000
884.66	-0.000
884.82	-0.000
884.99	-0.000
885.16	-0.000
885.33	-0.000
885.50	-0.000
885.67	-0.000
885.84	-0.000
886.01	-0.000
886.17	-0.000
886.34	-0.000
886.51	-0.000
886.68	-0.000
886.85	-0.000
887.02	-0.000
887.19	-0.000
887.36	-0.000
887.52	-0.000
887.69	-0.000
887.86	-0.000
888.03	-0.000
888.20	-0.000
888.37	-0.000
888.54	-0.000
888.70	-0.000
888.87	-0.000
889.04	-0.000
889.21	-0.000
889.38	-0.000
889.55	-0.000
889.71	-0.000
889.88	-0.000
890.05	-0.000
890.22	-0.000
890.39	-0.000
>>>>>End Processed Spectral Data<<<<<
