SpectraSuite Data File
++++++++++++++++++++++++++++++++++++
Date: Mon Jul 27 09:31:19 PDT 2015
User: HawkinsLab
Dark Spectrum Present: Yes
Reference Spectrum Present: Yes
Number of Sampled Component Spectra: 1
Spectrometers: USB4H04298
Integration Time (usec): 16229 (USB4H04298)
Spectra Averaged: 10 (USB4H04298)
Boxcar Smoothing: 5 (USB4H04298)
Correct for Electrical Dark: Yes (USB4H04298)
Strobe/Lamp Enabled: No (USB4H04298)
Correct for Detector Non-linearity: Yes (USB4H04298)
Correct for Stray Light: Yes (USB4H04298)
Number of Pixels in Processed Spectrum: 3648
>>>>>Begin Processed Spectral Data<<<<<
195.57	-0.689
195.79	-0.689
196.00	-0.689
196.22	-0.337
196.44	-0.000
196.65	-1.123
196.87	-0.443
197.09	-0.456
197.30	-0.777
197.52	-0.726
197.73	-0.393
197.95	-0.104
198.17	-0.136
198.38	-0.123
198.60	-0.127
198.81	-0.018
199.03	-0.025
199.25	-0.010
199.46	0.012
199.68	0.016
199.89	0.008
200.11	0.014
200.33	0.018
200.54	0.028
200.76	0.031
200.97	0.031
201.19	0.025
201.41	0.039
201.62	0.024
201.84	0.025
202.05	0.024
202.27	0.028
202.49	0.041
202.70	0.051
202.92	0.063
203.13	0.063
203.35	0.067
203.57	0.068
203.78	0.069
204.00	0.074
204.21	0.072
204.43	0.071
204.64	0.059
204.86	0.050
205.08	0.035
205.29	0.018
205.51	0.005
205.72	-0.005
205.94	-0.013
206.16	-0.024
206.37	-0.022
206.59	-0.018
206.80	-0.005
207.02	-0.010
207.23	-0.008
207.45	-0.005
207.67	-0.015
207.88	-0.030
208.10	-0.012
208.31	-0.003
208.53	0.000
208.74	-0.003
208.96	-0.009
209.18	-0.019
209.39	-0.012
209.61	-0.026
209.82	-0.018
210.04	-0.015
210.25	0.001
210.47	-0.008
210.69	-0.013
210.90	-0.008
211.12	-0.009
211.33	-0.007
211.55	0.001
211.76	-0.005
211.98	0.003
212.19	-0.012
212.41	-0.004
212.63	0.004
212.84	-0.002
213.06	0.004
213.27	-0.000
213.49	-0.002
213.70	0.008
213.92	0.003
214.13	0.007
214.35	0.015
214.56	0.026
214.78	0.026
215.00	0.021
215.21	0.026
215.43	0.026
215.64	0.015
215.86	0.025
216.07	0.025
216.29	0.031
216.50	0.033
216.72	0.021
216.93	0.024
217.15	0.026
217.37	0.021
217.58	0.027
217.80	0.021
218.01	0.037
218.23	0.034
218.44	0.029
218.66	0.029
218.87	0.035
219.09	0.038
219.30	0.032
219.52	0.036
219.73	0.042
219.95	0.039
220.16	0.042
220.38	0.040
220.59	0.036
220.81	0.035
221.03	0.030
221.24	0.035
221.46	0.038
221.67	0.045
221.89	0.036
222.10	0.036
222.32	0.042
222.53	0.040
222.75	0.034
222.96	0.042
223.18	0.040
223.39	0.037
223.61	0.034
223.82	0.036
224.04	0.038
224.25	0.042
224.47	0.043
224.68	0.039
224.90	0.043
225.11	0.051
225.33	0.049
225.54	0.055
225.76	0.062
225.97	0.065
226.19	0.065
226.40	0.065
226.62	0.067
226.83	0.065
227.05	0.067
227.26	0.064
227.48	0.059
227.69	0.059
227.91	0.059
228.12	0.058
228.34	0.055
228.55	0.055
228.77	0.052
228.98	0.051
229.20	0.052
229.41	0.052
229.63	0.050
229.84	0.054
230.06	0.057
230.27	0.055
230.49	0.056
230.70	0.055
230.92	0.055
231.13	0.055
231.35	0.055
231.56	0.057
231.78	0.058
231.99	0.061
232.21	0.058
232.42	0.058
232.64	0.056
232.85	0.055
233.06	0.057
233.28	0.055
233.49	0.056
233.71	0.057
233.92	0.058
234.14	0.059
234.35	0.059
234.57	0.060
234.78	0.059
235.00	0.062
235.21	0.061
235.43	0.060
235.64	0.060
235.86	0.059
236.07	0.058
236.29	0.056
236.50	0.054
236.71	0.053
236.93	0.051
237.14	0.050
237.36	0.049
237.57	0.050
237.79	0.050
238.00	0.051
238.22	0.051
238.43	0.051
238.65	0.052
238.86	0.050
239.07	0.050
239.29	0.052
239.50	0.054
239.72	0.055
239.93	0.053
240.15	0.051
240.36	0.052
240.58	0.052
240.79	0.050
241.00	0.051
241.22	0.051
241.43	0.051
241.65	0.049
241.86	0.047
242.08	0.047
242.29	0.047
242.51	0.046
242.72	0.046
242.93	0.044
243.15	0.046
243.36	0.046
243.58	0.045
243.79	0.045
244.01	0.046
244.22	0.046
244.43	0.045
244.65	0.045
244.86	0.045
245.08	0.044
245.29	0.045
245.51	0.045
245.72	0.044
245.93	0.045
246.15	0.046
246.36	0.046
246.58	0.046
246.79	0.046
247.01	0.045
247.22	0.046
247.43	0.046
247.65	0.047
247.86	0.046
248.08	0.045
248.29	0.044
248.50	0.044
248.72	0.044
248.93	0.044
249.15	0.045
249.36	0.045
249.58	0.044
249.79	0.044
250.00	0.043
250.22	0.044
250.43	0.044
250.65	0.043
250.86	0.043
251.07	0.043
251.29	0.043
251.50	0.043
251.72	0.043
251.93	0.044
252.14	0.044
252.36	0.042
252.57	0.042
252.79	0.043
253.00	0.042
253.21	0.043
253.43	0.043
253.64	0.042
253.86	0.042
254.07	0.040
254.28	0.039
254.50	0.040
254.71	0.041
254.92	0.041
255.14	0.040
255.35	0.041
255.57	0.041
255.78	0.041
255.99	0.041
256.21	0.041
256.42	0.042
256.64	0.042
256.85	0.043
257.06	0.043
257.28	0.043
257.49	0.043
257.70	0.043
257.92	0.043
258.13	0.043
258.35	0.044
258.56	0.044
258.77	0.044
258.99	0.043
259.20	0.043
259.41	0.043
259.63	0.043
259.84	0.043
260.06	0.043
260.27	0.043
260.48	0.043
260.70	0.042
260.91	0.042
261.12	0.043
261.34	0.043
261.55	0.043
261.76	0.043
261.98	0.043
262.19	0.043
262.40	0.043
262.62	0.043
262.83	0.044
263.05	0.043
263.26	0.044
263.47	0.043
263.69	0.043
263.90	0.043
264.11	0.042
264.33	0.042
264.54	0.042
264.75	0.042
264.97	0.041
265.18	0.040
265.39	0.040
265.61	0.040
265.82	0.040
266.03	0.040
266.25	0.040
266.46	0.041
266.67	0.041
266.89	0.041
267.10	0.041
267.31	0.042
267.53	0.042
267.74	0.042
267.95	0.041
268.17	0.041
268.38	0.041
268.59	0.041
268.81	0.040
269.02	0.040
269.23	0.040
269.45	0.040
269.66	0.039
269.87	0.039
270.09	0.040
270.30	0.040
270.51	0.041
270.73	0.041
270.94	0.041
271.15	0.041
271.37	0.042
271.58	0.042
271.79	0.042
272.01	0.042
272.22	0.042
272.43	0.041
272.65	0.042
272.86	0.041
273.07	0.041
273.28	0.041
273.50	0.041
273.71	0.042
273.92	0.042
274.14	0.042
274.35	0.041
274.56	0.042
274.78	0.042
274.99	0.041
275.20	0.041
275.42	0.041
275.63	0.041
275.84	0.040
276.05	0.040
276.27	0.039
276.48	0.038
276.69	0.039
276.91	0.038
277.12	0.038
277.33	0.039
277.54	0.039
277.76	0.039
277.97	0.039
278.18	0.040
278.40	0.040
278.61	0.040
278.82	0.040
279.04	0.040
279.25	0.040
279.46	0.040
279.67	0.040
279.89	0.040
280.10	0.039
280.31	0.039
280.52	0.039
280.74	0.039
280.95	0.040
281.16	0.040
281.38	0.039
281.59	0.039
281.80	0.039
282.01	0.039
282.23	0.038
282.44	0.039
282.65	0.039
282.87	0.039
283.08	0.039
283.29	0.038
283.50	0.039
283.72	0.039
283.93	0.039
284.14	0.039
284.35	0.039
284.57	0.039
284.78	0.039
284.99	0.039
285.20	0.039
285.42	0.039
285.63	0.039
285.84	0.039
286.05	0.038
286.27	0.038
286.48	0.039
286.69	0.039
286.90	0.039
287.12	0.038
287.33	0.038
287.54	0.038
287.75	0.038
287.97	0.038
288.18	0.038
288.39	0.038
288.60	0.038
288.82	0.038
289.03	0.038
289.24	0.038
289.45	0.038
289.67	0.038
289.88	0.038
290.09	0.037
290.30	0.037
290.52	0.037
290.73	0.037
290.94	0.037
291.15	0.037
291.37	0.037
291.58	0.037
291.79	0.037
292.00	0.037
292.21	0.037
292.43	0.037
292.64	0.037
292.85	0.037
293.06	0.037
293.28	0.037
293.49	0.038
293.70	0.038
293.91	0.038
294.12	0.038
294.34	0.037
294.55	0.038
294.76	0.038
294.97	0.037
295.19	0.037
295.40	0.037
295.61	0.036
295.82	0.036
296.03	0.036
296.25	0.036
296.46	0.037
296.67	0.036
296.88	0.036
297.09	0.036
297.31	0.036
297.52	0.036
297.73	0.036
297.94	0.036
298.15	0.036
298.37	0.036
298.58	0.036
298.79	0.036
299.00	0.036
299.21	0.036
299.43	0.036
299.64	0.036
299.85	0.036
300.06	0.036
300.27	0.036
300.49	0.036
300.70	0.036
300.91	0.036
301.12	0.036
301.33	0.036
301.55	0.036
301.76	0.036
301.97	0.036
302.18	0.036
302.39	0.035
302.61	0.035
302.82	0.035
303.03	0.035
303.24	0.035
303.45	0.035
303.66	0.035
303.88	0.035
304.09	0.035
304.30	0.035
304.51	0.035
304.72	0.035
304.93	0.035
305.15	0.035
305.36	0.035
305.57	0.035
305.78	0.035
305.99	0.035
306.20	0.035
306.42	0.035
306.63	0.034
306.84	0.035
307.05	0.035
307.26	0.034
307.47	0.034
307.69	0.035
307.90	0.035
308.11	0.035
308.32	0.034
308.53	0.034
308.74	0.034
308.96	0.035
309.17	0.034
309.38	0.034
309.59	0.034
309.80	0.034
310.01	0.034
310.22	0.033
310.44	0.033
310.65	0.033
310.86	0.033
311.07	0.033
311.28	0.033
311.49	0.034
311.70	0.033
311.92	0.033
312.13	0.033
312.34	0.033
312.55	0.033
312.76	0.033
312.97	0.033
313.18	0.033
313.40	0.033
313.61	0.033
313.82	0.032
314.03	0.033
314.24	0.033
314.45	0.033
314.66	0.033
314.87	0.033
315.09	0.033
315.30	0.033
315.51	0.033
315.72	0.033
315.93	0.033
316.14	0.033
316.35	0.033
316.56	0.033
316.78	0.033
316.99	0.033
317.20	0.033
317.41	0.033
317.62	0.033
317.83	0.033
318.04	0.033
318.25	0.033
318.46	0.033
318.68	0.033
318.89	0.033
319.10	0.033
319.31	0.033
319.52	0.033
319.73	0.033
319.94	0.032
320.15	0.032
320.36	0.032
320.58	0.032
320.79	0.032
321.00	0.032
321.21	0.031
321.42	0.031
321.63	0.031
321.84	0.031
322.05	0.031
322.26	0.032
322.47	0.032
322.69	0.031
322.90	0.032
323.11	0.031
323.32	0.032
323.53	0.032
323.74	0.032
323.95	0.032
324.16	0.031
324.37	0.031
324.58	0.031
324.79	0.030
325.00	0.031
325.22	0.030
325.43	0.030
325.64	0.030
325.85	0.030
326.06	0.030
326.27	0.030
326.48	0.030
326.69	0.030
326.90	0.031
327.11	0.031
327.32	0.031
327.53	0.031
327.74	0.031
327.95	0.032
328.17	0.031
328.38	0.032
328.59	0.032
328.80	0.032
329.01	0.032
329.22	0.031
329.43	0.031
329.64	0.031
329.85	0.031
330.06	0.031
330.27	0.031
330.48	0.031
330.69	0.031
330.90	0.031
331.11	0.031
331.32	0.031
331.53	0.031
331.75	0.030
331.96	0.031
332.17	0.031
332.38	0.031
332.59	0.031
332.80	0.031
333.01	0.031
333.22	0.030
333.43	0.030
333.64	0.031
333.85	0.031
334.06	0.031
334.27	0.030
334.48	0.030
334.69	0.030
334.90	0.030
335.11	0.030
335.32	0.030
335.53	0.030
335.74	0.030
335.95	0.029
336.16	0.030
336.37	0.030
336.58	0.030
336.79	0.030
337.00	0.029
337.21	0.030
337.42	0.030
337.63	0.030
337.84	0.030
338.06	0.030
338.27	0.030
338.48	0.030
338.69	0.030
338.90	0.030
339.11	0.030
339.32	0.030
339.53	0.030
339.74	0.030
339.95	0.030
340.16	0.029
340.37	0.030
340.58	0.030
340.79	0.030
341.00	0.030
341.21	0.029
341.42	0.029
341.63	0.030
341.84	0.030
342.05	0.030
342.26	0.030
342.47	0.030
342.68	0.030
342.89	0.030
343.10	0.029
343.31	0.029
343.52	0.029
343.73	0.029
343.94	0.029
344.15	0.029
344.36	0.029
344.57	0.029
344.78	0.029
344.99	0.029
345.20	0.029
345.41	0.029
345.62	0.029
345.83	0.029
346.04	0.029
346.24	0.029
346.45	0.029
346.66	0.028
346.87	0.028
347.08	0.028
347.29	0.028
347.50	0.028
347.71	0.028
347.92	0.028
348.13	0.028
348.34	0.028
348.55	0.028
348.76	0.028
348.97	0.028
349.18	0.028
349.39	0.028
349.60	0.028
349.81	0.028
350.02	0.028
350.23	0.028
350.44	0.028
350.65	0.028
350.86	0.028
351.07	0.028
351.28	0.028
351.49	0.028
351.70	0.028
351.91	0.028
352.12	0.028
352.32	0.028
352.53	0.028
352.74	0.028
352.95	0.028
353.16	0.028
353.37	0.028
353.58	0.028
353.79	0.028
354.00	0.028
354.21	0.028
354.42	0.028
354.63	0.028
354.84	0.028
355.05	0.028
355.26	0.028
355.47	0.028
355.68	0.028
355.88	0.027
356.09	0.027
356.30	0.027
356.51	0.027
356.72	0.027
356.93	0.027
357.14	0.027
357.35	0.027
357.56	0.027
357.77	0.027
357.98	0.028
358.19	0.028
358.40	0.028
358.61	0.028
358.81	0.028
359.02	0.027
359.23	0.027
359.44	0.027
359.65	0.027
359.86	0.027
360.07	0.027
360.28	0.027
360.49	0.026
360.70	0.026
360.91	0.026
361.11	0.026
361.32	0.026
361.53	0.026
361.74	0.027
361.95	0.027
362.16	0.027
362.37	0.027
362.58	0.027
362.79	0.026
363.00	0.027
363.20	0.027
363.41	0.027
363.62	0.026
363.83	0.026
364.04	0.026
364.25	0.025
364.46	0.025
364.67	0.025
364.88	0.025
365.09	0.025
365.29	0.025
365.50	0.024
365.71	0.024
365.92	0.024
366.13	0.024
366.34	0.024
366.55	0.024
366.76	0.024
366.96	0.024
367.17	0.024
367.38	0.024
367.59	0.024
367.80	0.024
368.01	0.024
368.22	0.024
368.43	0.024
368.63	0.024
368.84	0.024
369.05	0.024
369.26	0.024
369.47	0.025
369.68	0.025
369.89	0.025
370.10	0.025
370.30	0.025
370.51	0.025
370.72	0.026
370.93	0.025
371.14	0.026
371.35	0.026
371.56	0.026
371.76	0.026
371.97	0.026
372.18	0.026
372.39	0.026
372.60	0.026
372.81	0.026
373.01	0.026
373.22	0.026
373.43	0.026
373.64	0.026
373.85	0.025
374.06	0.025
374.27	0.025
374.47	0.025
374.68	0.025
374.89	0.024
375.10	0.024
375.31	0.024
375.52	0.024
375.72	0.023
375.93	0.023
376.14	0.023
376.35	0.022
376.56	0.022
376.77	0.022
376.97	0.022
377.18	0.021
377.39	0.021
377.60	0.021
377.81	0.020
378.02	0.020
378.22	0.020
378.43	0.020
378.64	0.020
378.85	0.019
379.06	0.019
379.26	0.019
379.47	0.019
379.68	0.018
379.89	0.018
380.10	0.018
380.31	0.018
380.51	0.019
380.72	0.019
380.93	0.019
381.14	0.019
381.35	0.020
381.55	0.020
381.76	0.020
381.97	0.021
382.18	0.021
382.39	0.021
382.59	0.021
382.80	0.021
383.01	0.021
383.22	0.021
383.43	0.021
383.63	0.021
383.84	0.021
384.05	0.021
384.26	0.021
384.47	0.022
384.67	0.022
384.88	0.022
385.09	0.022
385.30	0.022
385.50	0.022
385.71	0.022
385.92	0.021
386.13	0.021
386.34	0.021
386.54	0.021
386.75	0.021
386.96	0.021
387.17	0.021
387.37	0.021
387.58	0.021
387.79	0.020
388.00	0.020
388.21	0.020
388.41	0.020
388.62	0.020
388.83	0.020
389.04	0.020
389.24	0.020
389.45	0.019
389.66	0.019
389.87	0.019
390.07	0.018
390.28	0.018
390.49	0.018
390.70	0.018
390.90	0.017
391.11	0.017
391.32	0.017
391.53	0.017
391.73	0.016
391.94	0.016
392.15	0.016
392.36	0.016
392.56	0.016
392.77	0.016
392.98	0.015
393.19	0.015
393.39	0.015
393.60	0.016
393.81	0.016
394.02	0.016
394.22	0.016
394.43	0.016
394.64	0.016
394.85	0.017
395.05	0.017
395.26	0.017
395.47	0.017
395.68	0.016
395.88	0.016
396.09	0.016
396.30	0.015
396.51	0.015
396.71	0.015
396.92	0.014
397.13	0.014
397.33	0.013
397.54	0.013
397.75	0.013
397.96	0.013
398.16	0.012
398.37	0.012
398.58	0.013
398.78	0.013
398.99	0.013
399.20	0.013
399.41	0.013
399.61	0.013
399.82	0.013
400.03	0.014
400.23	0.014
400.44	0.015
400.65	0.015
400.86	0.015
401.06	0.016
401.27	0.016
401.48	0.016
401.68	0.017
401.89	0.018
402.10	0.018
402.30	0.018
402.51	0.017
402.72	0.018
402.93	0.017
403.13	0.018
403.34	0.017
403.55	0.017
403.75	0.017
403.96	0.017
404.17	0.016
404.37	0.017
404.58	0.017
404.79	0.017
404.99	0.017
405.20	0.017
405.41	0.017
405.61	0.017
405.82	0.017
406.03	0.017
406.23	0.017
406.44	0.017
406.65	0.017
406.86	0.017
407.06	0.017
407.27	0.017
407.48	0.017
407.68	0.018
407.89	0.018
408.10	0.018
408.30	0.018
408.51	0.018
408.72	0.018
408.92	0.018
409.13	0.018
409.34	0.018
409.54	0.018
409.75	0.018
409.95	0.018
410.16	0.018
410.37	0.019
410.57	0.019
410.78	0.018
410.99	0.018
411.19	0.018
411.40	0.018
411.61	0.018
411.81	0.018
412.02	0.018
412.23	0.018
412.43	0.018
412.64	0.018
412.85	0.018
413.05	0.018
413.26	0.019
413.46	0.018
413.67	0.019
413.88	0.018
414.08	0.018
414.29	0.018
414.50	0.018
414.70	0.018
414.91	0.018
415.12	0.018
415.32	0.018
415.53	0.018
415.73	0.018
415.94	0.018
416.15	0.018
416.35	0.019
416.56	0.019
416.77	0.019
416.97	0.018
417.18	0.018
417.38	0.018
417.59	0.018
417.80	0.018
418.00	0.018
418.21	0.017
418.41	0.017
418.62	0.016
418.83	0.016
419.03	0.016
419.24	0.016
419.44	0.015
419.65	0.015
419.86	0.014
420.06	0.013
420.27	0.013
420.48	0.013
420.68	0.012
420.89	0.012
421.09	0.011
421.30	0.011
421.50	0.011
421.71	0.010
421.92	0.010
422.12	0.010
422.33	0.010
422.53	0.010
422.74	0.009
422.95	0.009
423.15	0.009
423.36	0.009
423.56	0.010
423.77	0.010
423.98	0.010
424.18	0.011
424.39	0.011
424.59	0.012
424.80	0.012
425.00	0.012
425.21	0.013
425.42	0.013
425.62	0.013
425.83	0.013
426.03	0.013
426.24	0.013
426.44	0.013
426.65	0.014
426.86	0.013
427.06	0.013
427.27	0.013
427.47	0.012
427.68	0.012
427.88	0.011
428.09	0.011
428.29	0.010
428.50	0.010
428.71	0.009
428.91	0.008
429.12	0.008
429.32	0.008
429.53	0.007
429.73	0.007
429.94	0.007
430.14	0.007
430.35	0.007
430.56	0.007
430.76	0.007
430.97	0.007
431.17	0.007
431.38	0.008
431.58	0.008
431.79	0.008
431.99	0.009
432.20	0.009
432.40	0.010
432.61	0.011
432.81	0.011
433.02	0.012
433.23	0.012
433.43	0.012
433.64	0.013
433.84	0.013
434.05	0.013
434.25	0.013
434.46	0.013
434.66	0.013
434.87	0.013
435.07	0.012
435.28	0.012
435.48	0.012
435.69	0.011
435.89	0.011
436.10	0.011
436.30	0.010
436.51	0.010
436.71	0.010
436.92	0.010
437.12	0.009
437.33	0.009
437.53	0.009
437.74	0.009
437.94	0.009
438.15	0.009
438.35	0.009
438.56	0.009
438.76	0.010
438.97	0.009
439.17	0.009
439.38	0.010
439.58	0.009
439.79	0.010
439.99	0.009
440.20	0.010
440.40	0.009
440.61	0.009
440.81	0.009
441.02	0.008
441.22	0.008
441.43	0.008
441.63	0.007
441.84	0.007
442.04	0.007
442.25	0.006
442.45	0.006
442.66	0.006
442.86	0.006
443.07	0.005
443.27	0.005
443.48	0.005
443.68	0.004
443.89	0.004
444.09	0.004
444.29	0.004
444.50	0.004
444.70	0.003
444.91	0.003
445.11	0.003
445.32	0.003
445.52	0.003
445.73	0.003
445.93	0.003
446.14	0.003
446.34	0.003
446.55	0.002
446.75	0.002
446.95	0.002
447.16	0.002
447.36	0.001
447.57	0.002
447.77	0.001
447.98	0.001
448.18	0.001
448.39	0.001
448.59	0.001
448.79	0.001
449.00	0.001
449.20	0.001
449.41	0.001
449.61	0.001
449.82	0.001
450.02	0.002
450.23	0.002
450.43	0.002
450.63	0.002
450.84	0.002
451.04	0.002
451.25	0.002
451.45	0.002
451.66	0.003
451.86	0.003
452.06	0.002
452.27	0.002
452.47	0.003
452.68	0.003
452.88	0.003
453.08	0.004
453.29	0.004
453.49	0.004
453.70	0.004
453.90	0.004
454.11	0.004
454.31	0.005
454.51	0.005
454.72	0.005
454.92	0.005
455.13	0.005
455.33	0.006
455.53	0.006
455.74	0.006
455.94	0.006
456.15	0.006
456.35	0.006
456.55	0.006
456.76	0.006
456.96	0.006
457.17	0.006
457.37	0.007
457.57	0.007
457.78	0.007
457.98	0.006
458.19	0.007
458.39	0.007
458.59	0.007
458.80	0.007
459.00	0.007
459.21	0.006
459.41	0.006
459.61	0.006
459.82	0.007
460.02	0.007
460.22	0.007
460.43	0.007
460.63	0.007
460.84	0.007
461.04	0.008
461.24	0.008
461.45	0.009
461.65	0.009
461.85	0.009
462.06	0.009
462.26	0.010
462.46	0.010
462.67	0.010
462.87	0.010
463.08	0.011
463.28	0.010
463.48	0.010
463.69	0.010
463.89	0.010
464.09	0.009
464.30	0.009
464.50	0.009
464.70	0.008
464.91	0.008
465.11	0.008
465.31	0.007
465.52	0.007
465.72	0.007
465.93	0.007
466.13	0.007
466.33	0.007
466.54	0.007
466.74	0.007
466.94	0.007
467.15	0.007
467.35	0.007
467.55	0.008
467.76	0.008
467.96	0.009
468.16	0.009
468.37	0.010
468.57	0.011
468.77	0.011
468.98	0.011
469.18	0.012
469.38	0.012
469.59	0.012
469.79	0.013
469.99	0.013
470.19	0.013
470.40	0.013
470.60	0.013
470.80	0.014
471.01	0.014
471.21	0.014
471.41	0.013
471.62	0.013
471.82	0.013
472.02	0.013
472.23	0.013
472.43	0.013
472.63	0.012
472.84	0.012
473.04	0.012
473.24	0.011
473.44	0.011
473.65	0.011
473.85	0.010
474.05	0.010
474.26	0.010
474.46	0.009
474.66	0.009
474.86	0.008
475.07	0.008
475.27	0.008
475.47	0.008
475.68	0.008
475.88	0.008
476.08	0.008
476.28	0.008
476.49	0.008
476.69	0.008
476.89	0.009
477.10	0.009
477.30	0.009
477.50	0.009
477.70	0.009
477.91	0.009
478.11	0.009
478.31	0.009
478.52	0.009
478.72	0.009
478.92	0.009
479.12	0.008
479.33	0.008
479.53	0.008
479.73	0.007
479.93	0.007
480.14	0.007
480.34	0.007
480.54	0.007
480.74	0.007
480.95	0.006
481.15	0.006
481.35	0.006
481.55	0.006
481.76	0.006
481.96	0.006
482.16	0.006
482.36	0.005
482.57	0.005
482.77	0.004
482.97	0.004
483.17	0.003
483.38	0.003
483.58	0.003
483.78	0.002
483.98	0.002
484.19	0.002
484.39	0.001
484.59	0.001
484.79	0.000
485.00	0.000
485.20	0.000
485.40	0.000
485.60	-0.000
485.80	-0.000
486.01	-0.001
486.21	-0.001
486.41	-0.000
486.61	-0.001
486.82	-0.000
487.02	0.000
487.22	-0.000
487.42	0.000
487.62	0.000
487.83	0.001
488.03	0.001
488.23	0.002
488.43	0.002
488.64	0.003
488.84	0.003
489.04	0.003
489.24	0.004
489.44	0.004
489.65	0.004
489.85	0.004
490.05	0.004
490.25	0.005
490.45	0.005
490.66	0.005
490.86	0.005
491.06	0.005
491.26	0.005
491.46	0.004
491.67	0.005
491.87	0.005
492.07	0.005
492.27	0.005
492.47	0.004
492.67	0.004
492.88	0.003
493.08	0.003
493.28	0.003
493.48	0.003
493.68	0.003
493.89	0.002
494.09	0.002
494.29	0.002
494.49	0.001
494.69	0.001
494.89	0.001
495.10	0.001
495.30	0.001
495.50	0.001
495.70	0.001
495.90	0.000
496.10	0.000
496.31	0.000
496.51	0.000
496.71	0.000
496.91	0.000
497.11	0.000
497.31	0.001
497.52	0.001
497.72	0.001
497.92	0.001
498.12	0.001
498.32	0.002
498.52	0.002
498.72	0.002
498.93	0.002
499.13	0.002
499.33	0.002
499.53	0.002
499.73	0.002
499.93	0.002
500.13	0.002
500.34	0.001
500.54	0.001
500.74	0.001
500.94	0.001
501.14	0.000
501.34	0.000
501.54	0.000
501.75	0.000
501.95	-0.000
502.15	-0.001
502.35	-0.001
502.55	-0.000
502.75	-0.001
502.95	-0.001
503.15	-0.001
503.36	-0.001
503.56	-0.001
503.76	-0.001
503.96	-0.001
504.16	-0.001
504.36	-0.001
504.56	-0.001
504.76	-0.001
504.96	-0.001
505.17	-0.001
505.37	-0.001
505.57	-0.001
505.77	-0.001
505.97	-0.000
506.17	-0.000
506.37	0.000
506.57	0.001
506.77	0.001
506.97	0.001
507.18	0.001
507.38	0.002
507.58	0.002
507.78	0.002
507.98	0.003
508.18	0.003
508.38	0.003
508.58	0.003
508.78	0.003
508.98	0.002
509.18	0.002
509.39	0.002
509.59	0.002
509.79	0.002
509.99	0.002
510.19	0.002
510.39	0.002
510.59	0.002
510.79	0.002
510.99	0.002
511.19	0.002
511.39	0.002
511.59	0.002
511.79	0.002
512.00	0.002
512.20	0.002
512.40	0.002
512.60	0.002
512.80	0.002
513.00	0.002
513.20	0.002
513.40	0.002
513.60	0.002
513.80	0.002
514.00	0.003
514.20	0.003
514.40	0.003
514.60	0.003
514.80	0.003
515.00	0.003
515.20	0.003
515.40	0.003
515.60	0.004
515.81	0.004
516.01	0.004
516.21	0.003
516.41	0.003
516.61	0.003
516.81	0.003
517.01	0.003
517.21	0.003
517.41	0.003
517.61	0.003
517.81	0.003
518.01	0.003
518.21	0.003
518.41	0.004
518.61	0.004
518.81	0.004
519.01	0.004
519.21	0.003
519.41	0.003
519.61	0.003
519.81	0.003
520.01	0.004
520.21	0.004
520.41	0.004
520.61	0.004
520.81	0.004
521.01	0.004
521.21	0.004
521.41	0.004
521.61	0.004
521.81	0.004
522.01	0.004
522.21	0.004
522.41	0.004
522.61	0.004
522.81	0.004
523.01	0.004
523.21	0.004
523.41	0.005
523.61	0.004
523.81	0.004
524.01	0.005
524.21	0.005
524.41	0.005
524.61	0.005
524.81	0.005
525.01	0.004
525.21	0.004
525.41	0.004
525.61	0.004
525.81	0.004
526.01	0.004
526.21	0.004
526.41	0.004
526.61	0.004
526.81	0.004
527.01	0.004
527.21	0.004
527.41	0.004
527.61	0.004
527.81	0.004
528.01	0.003
528.21	0.003
528.41	0.003
528.61	0.003
528.81	0.003
529.01	0.003
529.20	0.003
529.40	0.002
529.60	0.002
529.80	0.002
530.00	0.002
530.20	0.002
530.40	0.002
530.60	0.002
530.80	0.002
531.00	0.002
531.20	0.001
531.40	0.001
531.60	0.001
531.80	0.001
532.00	0.001
532.20	0.001
532.40	0.001
532.60	0.000
532.80	0.000
532.99	0.000
533.19	0.000
533.39	-0.000
533.59	-0.000
533.79	-0.000
533.99	-0.000
534.19	-0.000
534.39	-0.000
534.59	-0.000
534.79	-0.000
534.99	-0.001
535.19	-0.001
535.39	-0.001
535.58	-0.000
535.78	-0.001
535.98	-0.001
536.18	-0.001
536.38	-0.001
536.58	-0.001
536.78	-0.002
536.98	-0.002
537.18	-0.002
537.38	-0.002
537.58	-0.002
537.77	-0.003
537.97	-0.003
538.17	-0.003
538.37	-0.003
538.57	-0.003
538.77	-0.003
538.97	-0.004
539.17	-0.004
539.37	-0.004
539.57	-0.004
539.76	-0.004
539.96	-0.004
540.16	-0.004
540.36	-0.004
540.56	-0.004
540.76	-0.004
540.96	-0.004
541.16	-0.004
541.35	-0.004
541.55	-0.004
541.75	-0.003
541.95	-0.003
542.15	-0.004
542.35	-0.003
542.55	-0.003
542.75	-0.003
542.94	-0.003
543.14	-0.003
543.34	-0.003
543.54	-0.003
543.74	-0.003
543.94	-0.004
544.14	-0.004
544.33	-0.004
544.53	-0.004
544.73	-0.004
544.93	-0.004
545.13	-0.004
545.33	-0.005
545.53	-0.005
545.72	-0.005
545.92	-0.005
546.12	-0.005
546.32	-0.005
546.52	-0.005
546.72	-0.006
546.92	-0.006
547.11	-0.006
547.31	-0.006
547.51	-0.006
547.71	-0.006
547.91	-0.006
548.11	-0.006
548.30	-0.006
548.50	-0.005
548.70	-0.005
548.90	-0.005
549.10	-0.005
549.30	-0.005
549.49	-0.005
549.69	-0.005
549.89	-0.005
550.09	-0.005
550.29	-0.005
550.48	-0.005
550.68	-0.005
550.88	-0.005
551.08	-0.005
551.28	-0.005
551.48	-0.005
551.67	-0.005
551.87	-0.006
552.07	-0.006
552.27	-0.006
552.47	-0.006
552.66	-0.006
552.86	-0.006
553.06	-0.007
553.26	-0.007
553.46	-0.007
553.65	-0.007
553.85	-0.007
554.05	-0.007
554.25	-0.007
554.45	-0.007
554.64	-0.007
554.84	-0.007
555.04	-0.007
555.24	-0.007
555.44	-0.007
555.63	-0.007
555.83	-0.007
556.03	-0.007
556.23	-0.006
556.42	-0.006
556.62	-0.006
556.82	-0.005
557.02	-0.005
557.22	-0.005
557.41	-0.005
557.61	-0.005
557.81	-0.005
558.01	-0.005
558.20	-0.005
558.40	-0.005
558.60	-0.005
558.80	-0.005
558.99	-0.006
559.19	-0.006
559.39	-0.006
559.59	-0.006
559.78	-0.007
559.98	-0.007
560.18	-0.007
560.38	-0.008
560.57	-0.008
560.77	-0.008
560.97	-0.008
561.17	-0.009
561.36	-0.009
561.56	-0.009
561.76	-0.009
561.96	-0.009
562.15	-0.009
562.35	-0.009
562.55	-0.009
562.75	-0.009
562.94	-0.009
563.14	-0.008
563.34	-0.008
563.54	-0.008
563.73	-0.008
563.93	-0.008
564.13	-0.008
564.33	-0.008
564.52	-0.008
564.72	-0.007
564.92	-0.007
565.11	-0.007
565.31	-0.007
565.51	-0.007
565.71	-0.007
565.90	-0.007
566.10	-0.007
566.30	-0.007
566.49	-0.007
566.69	-0.007
566.89	-0.007
567.09	-0.008
567.28	-0.008
567.48	-0.009
567.68	-0.009
567.87	-0.009
568.07	-0.010
568.27	-0.010
568.46	-0.011
568.66	-0.011
568.86	-0.012
569.06	-0.012
569.25	-0.012
569.45	-0.012
569.65	-0.013
569.84	-0.013
570.04	-0.013
570.24	-0.014
570.43	-0.014
570.63	-0.014
570.83	-0.015
571.02	-0.015
571.22	-0.015
571.42	-0.015
571.61	-0.016
571.81	-0.016
572.01	-0.016
572.20	-0.016
572.40	-0.017
572.60	-0.017
572.79	-0.017
572.99	-0.017
573.19	-0.017
573.38	-0.017
573.58	-0.017
573.78	-0.017
573.97	-0.017
574.17	-0.017
574.37	-0.017
574.56	-0.017
574.76	-0.017
574.96	-0.018
575.15	-0.018
575.35	-0.018
575.55	-0.018
575.74	-0.018
575.94	-0.018
576.14	-0.018
576.33	-0.018
576.53	-0.018
576.73	-0.018
576.92	-0.018
577.12	-0.018
577.31	-0.018
577.51	-0.018
577.71	-0.018
577.90	-0.018
578.10	-0.018
578.30	-0.018
578.49	-0.018
578.69	-0.018
578.89	-0.018
579.08	-0.018
579.28	-0.018
579.47	-0.019
579.67	-0.019
579.87	-0.019
580.06	-0.019
580.26	-0.019
580.46	-0.019
580.65	-0.019
580.85	-0.019
581.04	-0.019
581.24	-0.018
581.44	-0.018
581.63	-0.018
581.83	-0.018
582.02	-0.018
582.22	-0.018
582.42	-0.018
582.61	-0.018
582.81	-0.018
583.00	-0.018
583.20	-0.018
583.40	-0.018
583.59	-0.019
583.79	-0.019
583.98	-0.019
584.18	-0.019
584.38	-0.019
584.57	-0.019
584.77	-0.019
584.96	-0.019
585.16	-0.019
585.35	-0.019
585.55	-0.019
585.75	-0.019
585.94	-0.019
586.14	-0.019
586.33	-0.019
586.53	-0.019
586.72	-0.018
586.92	-0.018
587.12	-0.018
587.31	-0.018
587.51	-0.018
587.70	-0.018
587.90	-0.018
588.09	-0.017
588.29	-0.017
588.49	-0.017
588.68	-0.016
588.88	-0.016
589.07	-0.016
589.27	-0.016
589.46	-0.015
589.66	-0.015
589.85	-0.015
590.05	-0.015
590.25	-0.015
590.44	-0.015
590.64	-0.015
590.83	-0.015
591.03	-0.015
591.22	-0.015
591.42	-0.015
591.61	-0.015
591.81	-0.015
592.00	-0.015
592.20	-0.015
592.39	-0.015
592.59	-0.015
592.79	-0.015
592.98	-0.015
593.18	-0.015
593.37	-0.015
593.57	-0.015
593.76	-0.015
593.96	-0.015
594.15	-0.015
594.35	-0.014
594.54	-0.014
594.74	-0.014
594.93	-0.014
595.13	-0.014
595.32	-0.013
595.52	-0.013
595.71	-0.013
595.91	-0.013
596.10	-0.013
596.30	-0.013
596.49	-0.014
596.69	-0.014
596.88	-0.014
597.08	-0.014
597.27	-0.014
597.47	-0.014
597.66	-0.015
597.86	-0.015
598.05	-0.015
598.25	-0.015
598.44	-0.015
598.64	-0.015
598.83	-0.015
599.03	-0.015
599.22	-0.014
599.42	-0.014
599.61	-0.014
599.81	-0.014
600.00	-0.013
600.20	-0.013
600.39	-0.013
600.59	-0.013
600.78	-0.013
600.98	-0.013
601.17	-0.012
601.36	-0.012
601.56	-0.012
601.75	-0.012
601.95	-0.012
602.14	-0.012
602.34	-0.012
602.53	-0.012
602.73	-0.012
602.92	-0.012
603.12	-0.012
603.31	-0.012
603.51	-0.013
603.70	-0.013
603.89	-0.013
604.09	-0.013
604.28	-0.014
604.48	-0.014
604.67	-0.014
604.87	-0.014
605.06	-0.014
605.26	-0.014
605.45	-0.014
605.64	-0.014
605.84	-0.015
606.03	-0.015
606.23	-0.014
606.42	-0.014
606.62	-0.014
606.81	-0.014
607.00	-0.014
607.20	-0.014
607.39	-0.014
607.59	-0.013
607.78	-0.013
607.98	-0.013
608.17	-0.013
608.36	-0.013
608.56	-0.013
608.75	-0.012
608.95	-0.012
609.14	-0.012
609.34	-0.012
609.53	-0.012
609.72	-0.012
609.92	-0.011
610.11	-0.011
610.31	-0.011
610.50	-0.011
610.69	-0.011
610.89	-0.011
611.08	-0.011
611.28	-0.012
611.47	-0.012
611.66	-0.012
611.86	-0.012
612.05	-0.012
612.25	-0.013
612.44	-0.013
612.63	-0.013
612.83	-0.013
613.02	-0.014
613.21	-0.014
613.41	-0.014
613.60	-0.014
613.80	-0.014
613.99	-0.014
614.18	-0.014
614.38	-0.013
614.57	-0.013
614.76	-0.013
614.96	-0.013
615.15	-0.013
615.35	-0.012
615.54	-0.012
615.73	-0.012
615.93	-0.012
616.12	-0.012
616.31	-0.011
616.51	-0.011
616.70	-0.011
616.89	-0.011
617.09	-0.010
617.28	-0.010
617.48	-0.010
617.67	-0.010
617.86	-0.010
618.06	-0.010
618.25	-0.010
618.44	-0.010
618.64	-0.009
618.83	-0.009
619.02	-0.009
619.22	-0.009
619.41	-0.010
619.60	-0.010
619.80	-0.010
619.99	-0.010
620.18	-0.010
620.38	-0.010
620.57	-0.010
620.76	-0.010
620.96	-0.010
621.15	-0.010
621.34	-0.010
621.54	-0.010
621.73	-0.010
621.92	-0.009
622.12	-0.009
622.31	-0.009
622.50	-0.009
622.70	-0.009
622.89	-0.009
623.08	-0.009
623.27	-0.009
623.47	-0.009
623.66	-0.009
623.85	-0.009
624.05	-0.009
624.24	-0.009
624.43	-0.009
624.63	-0.009
624.82	-0.009
625.01	-0.008
625.20	-0.008
625.40	-0.008
625.59	-0.008
625.78	-0.008
625.98	-0.008
626.17	-0.008
626.36	-0.008
626.55	-0.008
626.75	-0.008
626.94	-0.008
627.13	-0.008
627.33	-0.008
627.52	-0.008
627.71	-0.008
627.90	-0.008
628.10	-0.008
628.29	-0.008
628.48	-0.008
628.68	-0.007
628.87	-0.007
629.06	-0.007
629.25	-0.007
629.45	-0.007
629.64	-0.007
629.83	-0.007
630.02	-0.006
630.22	-0.006
630.41	-0.006
630.60	-0.006
630.79	-0.006
630.99	-0.005
631.18	-0.005
631.37	-0.005
631.56	-0.005
631.76	-0.005
631.95	-0.004
632.14	-0.004
632.33	-0.004
632.53	-0.004
632.72	-0.004
632.91	-0.004
633.10	-0.004
633.30	-0.004
633.49	-0.004
633.68	-0.003
633.87	-0.003
634.07	-0.004
634.26	-0.004
634.45	-0.004
634.64	-0.004
634.83	-0.004
635.03	-0.004
635.22	-0.004
635.41	-0.004
635.60	-0.004
635.80	-0.004
635.99	-0.004
636.18	-0.004
636.37	-0.004
636.56	-0.004
636.76	-0.004
636.95	-0.004
637.14	-0.004
637.33	-0.004
637.52	-0.004
637.72	-0.004
637.91	-0.004
638.10	-0.004
638.29	-0.004
638.48	-0.004
638.68	-0.004
638.87	-0.003
639.06	-0.003
639.25	-0.003
639.44	-0.003
639.64	-0.003
639.83	-0.003
640.02	-0.003
640.21	-0.003
640.40	-0.003
640.59	-0.003
640.79	-0.003
640.98	-0.003
641.17	-0.003
641.36	-0.003
641.55	-0.003
641.74	-0.003
641.94	-0.003
642.13	-0.003
642.32	-0.002
642.51	-0.002
642.70	-0.002
642.89	-0.002
643.09	-0.002
643.28	-0.002
643.47	-0.002
643.66	-0.002
643.85	-0.002
644.04	-0.002
644.24	-0.002
644.43	-0.002
644.62	-0.002
644.81	-0.002
645.00	-0.002
645.19	-0.002
645.38	-0.002
645.58	-0.002
645.77	-0.002
645.96	-0.002
646.15	-0.002
646.34	-0.002
646.53	-0.002
646.72	-0.002
646.92	-0.002
647.11	-0.002
647.30	-0.002
647.49	-0.003
647.68	-0.003
647.87	-0.003
648.06	-0.003
648.25	-0.003
648.45	-0.003
648.64	-0.003
648.83	-0.003
649.02	-0.004
649.21	-0.004
649.40	-0.004
649.59	-0.004
649.78	-0.004
649.97	-0.004
650.17	-0.004
650.36	-0.004
650.55	-0.004
650.74	-0.004
650.93	-0.004
651.12	-0.004
651.31	-0.003
651.50	-0.003
651.69	-0.003
651.89	-0.003
652.08	-0.004
652.27	-0.004
652.46	-0.005
652.65	-0.005
652.84	-0.006
653.03	-0.007
653.22	-0.008
653.41	-0.009
653.60	-0.010
653.79	-0.011
653.98	-0.012
654.18	-0.013
654.37	-0.014
654.56	-0.014
654.75	-0.015
654.94	-0.015
655.13	-0.016
655.32	-0.016
655.51	-0.016
655.70	-0.016
655.89	-0.016
656.08	-0.016
656.27	-0.016
656.46	-0.016
656.65	-0.015
656.84	-0.015
657.03	-0.014
657.23	-0.013
657.42	-0.013
657.61	-0.012
657.80	-0.011
657.99	-0.009
658.18	-0.008
658.37	-0.007
658.56	-0.006
658.75	-0.005
658.94	-0.004
659.13	-0.004
659.32	-0.003
659.51	-0.002
659.70	-0.002
659.89	-0.002
660.08	-0.002
660.27	-0.001
660.46	-0.001
660.65	-0.001
660.84	-0.001
661.03	-0.001
661.22	-0.001
661.41	-0.001
661.60	-0.001
661.79	-0.001
661.98	-0.001
662.17	-0.001
662.36	-0.001
662.55	-0.001
662.74	-0.001
662.93	-0.001
663.12	-0.001
663.31	-0.002
663.50	-0.002
663.69	-0.002
663.88	-0.002
664.07	-0.002
664.26	-0.001
664.45	-0.002
664.64	-0.001
664.83	-0.001
665.02	-0.001
665.21	-0.001
665.40	-0.001
665.59	-0.001
665.78	-0.001
665.97	-0.001
666.16	-0.001
666.35	-0.001
666.54	-0.001
666.73	-0.001
666.92	-0.001
667.11	-0.001
667.30	-0.001
667.49	-0.001
667.68	-0.001
667.87	-0.001
668.06	-0.001
668.25	-0.001
668.44	-0.001
668.63	-0.002
668.82	-0.001
669.01	-0.002
669.20	-0.002
669.39	-0.002
669.58	-0.002
669.77	-0.002
669.96	-0.002
670.15	-0.003
670.34	-0.003
670.53	-0.003
670.72	-0.003
670.90	-0.003
671.09	-0.003
671.28	-0.003
671.47	-0.003
671.66	-0.003
671.85	-0.003
672.04	-0.003
672.23	-0.003
672.42	-0.003
672.61	-0.003
672.80	-0.003
672.99	-0.003
673.18	-0.003
673.37	-0.003
673.56	-0.003
673.74	-0.003
673.93	-0.003
674.12	-0.003
674.31	-0.003
674.50	-0.002
674.69	-0.002
674.88	-0.002
675.07	-0.002
675.26	-0.002
675.45	-0.002
675.64	-0.002
675.83	-0.002
676.01	-0.003
676.20	-0.003
676.39	-0.003
676.58	-0.003
676.77	-0.003
676.96	-0.003
677.15	-0.003
677.34	-0.004
677.53	-0.003
677.71	-0.003
677.90	-0.004
678.09	-0.004
678.28	-0.004
678.47	-0.003
678.66	-0.004
678.85	-0.004
679.04	-0.004
679.23	-0.004
679.41	-0.004
679.60	-0.004
679.79	-0.004
679.98	-0.004
680.17	-0.004
680.36	-0.004
680.55	-0.004
680.74	-0.003
680.92	-0.003
681.11	-0.003
681.30	-0.003
681.49	-0.003
681.68	-0.003
681.87	-0.003
682.06	-0.003
682.24	-0.004
682.43	-0.004
682.62	-0.004
682.81	-0.004
683.00	-0.004
683.19	-0.004
683.38	-0.004
683.56	-0.004
683.75	-0.004
683.94	-0.004
684.13	-0.004
684.32	-0.004
684.51	-0.004
684.69	-0.004
684.88	-0.004
685.07	-0.004
685.26	-0.004
685.45	-0.004
685.64	-0.004
685.82	-0.005
686.01	-0.004
686.20	-0.004
686.39	-0.005
686.58	-0.005
686.77	-0.005
686.95	-0.005
687.14	-0.005
687.33	-0.005
687.52	-0.005
687.71	-0.004
687.89	-0.004
688.08	-0.004
688.27	-0.004
688.46	-0.004
688.65	-0.004
688.83	-0.004
689.02	-0.004
689.21	-0.004
689.40	-0.004
689.59	-0.004
689.77	-0.004
689.96	-0.004
690.15	-0.004
690.34	-0.004
690.53	-0.004
690.71	-0.004
690.90	-0.004
691.09	-0.004
691.28	-0.004
691.46	-0.004
691.65	-0.005
691.84	-0.005
692.03	-0.005
692.22	-0.005
692.40	-0.005
692.59	-0.005
692.78	-0.005
692.97	-0.004
693.15	-0.004
693.34	-0.004
693.53	-0.004
693.72	-0.004
693.90	-0.004
694.09	-0.004
694.28	-0.004
694.47	-0.004
694.66	-0.004
694.84	-0.004
695.03	-0.005
695.22	-0.005
695.41	-0.005
695.59	-0.005
695.78	-0.005
695.97	-0.005
696.15	-0.005
696.34	-0.005
696.53	-0.005
696.72	-0.005
696.90	-0.005
697.09	-0.005
697.28	-0.005
697.47	-0.005
697.65	-0.004
697.84	-0.004
698.03	-0.004
698.22	-0.004
698.40	-0.004
698.59	-0.004
698.78	-0.004
698.96	-0.003
699.15	-0.003
699.34	-0.003
699.53	-0.003
699.71	-0.003
699.90	-0.003
700.09	-0.003
700.27	-0.003
700.46	-0.003
700.65	-0.003
700.84	-0.004
701.02	-0.004
701.21	-0.004
701.40	-0.004
701.58	-0.004
701.77	-0.004
701.96	-0.004
702.14	-0.004
702.33	-0.004
702.52	-0.004
702.70	-0.004
702.89	-0.003
703.08	-0.004
703.27	-0.003
703.45	-0.003
703.64	-0.003
703.83	-0.003
704.01	-0.003
704.20	-0.003
704.39	-0.003
704.57	-0.003
704.76	-0.003
704.95	-0.003
705.13	-0.003
705.32	-0.003
705.51	-0.003
705.69	-0.003
705.88	-0.003
706.07	-0.004
706.25	-0.004
706.44	-0.004
706.63	-0.004
706.81	-0.004
707.00	-0.004
707.19	-0.005
707.37	-0.005
707.56	-0.005
707.74	-0.005
707.93	-0.005
708.12	-0.005
708.30	-0.005
708.49	-0.005
708.68	-0.005
708.86	-0.005
709.05	-0.005
709.24	-0.005
709.42	-0.004
709.61	-0.004
709.79	-0.004
709.98	-0.004
710.17	-0.004
710.35	-0.004
710.54	-0.004
710.73	-0.004
710.91	-0.004
711.10	-0.004
711.28	-0.004
711.47	-0.003
711.66	-0.003
711.84	-0.003
712.03	-0.003
712.22	-0.004
712.40	-0.003
712.59	-0.004
712.77	-0.003
712.96	-0.003
713.15	-0.003
713.33	-0.003
713.52	-0.003
713.70	-0.003
713.89	-0.003
714.08	-0.003
714.26	-0.003
714.45	-0.003
714.63	-0.002
714.82	-0.002
715.00	-0.002
715.19	-0.003
715.38	-0.002
715.56	-0.002
715.75	-0.002
715.93	-0.002
716.12	-0.002
716.30	-0.002
716.49	-0.002
716.68	-0.002
716.86	-0.002
717.05	-0.001
717.23	-0.002
717.42	-0.002
717.60	-0.002
717.79	-0.001
717.98	-0.001
718.16	-0.001
718.35	-0.001
718.53	-0.002
718.72	-0.002
718.90	-0.002
719.09	-0.002
719.27	-0.002
719.46	-0.002
719.65	-0.002
719.83	-0.002
720.02	-0.002
720.20	-0.002
720.39	-0.002
720.57	-0.002
720.76	-0.001
720.94	-0.002
721.13	-0.001
721.31	-0.001
721.50	-0.001
721.68	-0.001
721.87	-0.001
722.06	-0.001
722.24	-0.001
722.43	-0.001
722.61	-0.000
722.80	-0.000
722.98	0.000
723.17	-0.000
723.35	-0.000
723.54	-0.000
723.72	-0.000
723.91	-0.000
724.09	-0.000
724.28	-0.000
724.46	-0.000
724.65	-0.001
724.83	-0.001
725.02	-0.001
725.20	-0.001
725.39	-0.001
725.57	-0.001
725.76	-0.000
725.94	-0.001
726.13	-0.001
726.31	-0.001
726.50	-0.001
726.68	-0.001
726.87	-0.001
727.05	-0.001
727.24	-0.001
727.42	-0.001
727.61	-0.001
727.79	-0.001
727.97	-0.001
728.16	-0.001
728.34	-0.001
728.53	-0.001
728.71	-0.001
728.90	-0.001
729.08	-0.001
729.27	-0.001
729.45	-0.001
729.64	-0.000
729.82	-0.001
730.01	-0.001
730.19	-0.001
730.37	-0.001
730.56	-0.001
730.74	-0.001
730.93	-0.002
731.11	-0.002
731.30	-0.002
731.48	-0.002
731.67	-0.001
731.85	-0.001
732.03	-0.001
732.22	-0.002
732.40	-0.001
732.59	-0.000
732.77	-0.000
732.96	0.000
733.14	0.000
733.33	0.001
733.51	0.001
733.69	0.001
733.88	0.001
734.06	0.001
734.25	0.002
734.43	0.002
734.61	0.001
734.80	0.001
734.98	0.001
735.17	0.001
735.35	0.001
735.54	0.001
735.72	0.000
735.90	-0.000
736.09	0.000
736.27	0.000
736.46	0.000
736.64	0.001
736.82	0.000
737.01	0.000
737.19	-0.001
737.38	-0.000
737.56	-0.000
737.74	0.000
737.93	0.001
738.11	0.001
738.29	0.001
738.48	0.001
738.66	0.001
738.85	0.002
739.03	0.002
739.21	0.003
739.40	0.003
739.58	0.003
739.76	0.003
739.95	0.003
740.13	0.003
740.32	0.003
740.50	0.003
740.68	0.003
740.87	0.003
741.05	0.003
741.23	0.003
741.42	0.002
741.60	0.002
741.78	0.002
741.97	0.001
742.15	0.002
742.34	0.002
742.52	0.002
742.70	0.002
742.89	0.001
743.07	0.000
743.25	0.000
743.44	0.001
743.62	0.001
743.80	0.001
743.99	0.001
744.17	0.000
744.35	0.001
744.54	0.001
744.72	0.001
744.90	0.001
745.09	0.002
745.27	0.002
745.45	0.002
745.64	0.002
745.82	0.002
746.00	0.003
746.18	0.003
746.37	0.003
746.55	0.003
746.73	0.003
746.92	0.003
747.10	0.003
747.28	0.003
747.47	0.003
747.65	0.002
747.83	0.002
748.02	0.002
748.20	0.003
748.38	0.003
748.56	0.003
748.75	0.002
748.93	0.002
749.11	0.002
749.30	0.002
749.48	0.001
749.66	0.001
749.84	0.002
750.03	0.000
750.21	-0.000
750.39	-0.001
750.58	0.000
750.76	0.000
750.94	-0.000
751.12	0.000
751.31	0.001
751.49	0.001
751.67	0.001
751.85	0.000
752.04	0.001
752.22	0.001
752.40	0.001
752.58	0.000
752.77	0.000
752.95	0.000
753.13	-0.001
753.32	-0.001
753.50	-0.001
753.68	-0.000
753.86	-0.000
754.05	-0.000
754.23	-0.001
754.41	-0.001
754.59	-0.000
754.77	-0.001
754.96	-0.001
755.14	-0.001
755.32	-0.001
755.50	-0.001
755.69	-0.002
755.87	-0.002
756.05	-0.002
756.23	-0.002
756.42	-0.001
756.60	-0.002
756.78	-0.002
756.96	-0.002
757.14	-0.001
757.33	-0.001
757.51	-0.001
757.69	-0.002
757.87	-0.002
758.05	-0.003
758.24	-0.003
758.42	-0.003
758.60	-0.003
758.78	-0.002
758.97	-0.002
759.15	-0.003
759.33	-0.002
759.51	-0.003
759.69	-0.001
759.87	-0.002
760.06	-0.002
760.24	-0.002
760.42	-0.004
760.60	-0.004
760.78	-0.005
760.97	-0.005
761.15	-0.005
761.33	-0.006
761.51	-0.005
761.69	-0.006
761.87	-0.007
762.06	-0.006
762.24	-0.006
762.42	-0.005
762.60	-0.005
762.78	-0.004
762.97	-0.004
763.15	-0.004
763.33	-0.004
763.51	-0.004
763.69	-0.004
763.87	-0.003
764.05	-0.004
764.24	-0.004
764.42	-0.004
764.60	-0.004
764.78	-0.004
764.96	-0.004
765.14	-0.005
765.32	-0.005
765.51	-0.005
765.69	-0.005
765.87	-0.005
766.05	-0.005
766.23	-0.005
766.41	-0.005
766.59	-0.004
766.78	-0.004
766.96	-0.003
767.14	-0.003
767.32	-0.002
767.50	-0.003
767.68	-0.003
767.86	-0.002
768.04	-0.003
768.23	-0.002
768.41	-0.002
768.59	-0.002
768.77	-0.002
768.95	-0.002
769.13	-0.002
769.31	-0.002
769.49	-0.001
769.67	-0.001
769.86	-0.001
770.04	-0.000
770.22	-0.000
770.40	-0.000
770.58	-0.000
770.76	-0.001
770.94	-0.001
771.12	-0.001
771.30	-0.001
771.48	-0.002
771.66	-0.003
771.85	-0.002
772.03	-0.003
772.21	-0.003
772.39	-0.003
772.57	-0.003
772.75	-0.002
772.93	-0.002
773.11	-0.001
773.29	-0.001
773.47	-0.000
773.65	-0.000
773.83	-0.000
774.01	-0.000
774.19	0.000
774.38	0.000
774.56	-0.000
774.74	-0.001
774.92	-0.001
775.10	-0.001
775.28	-0.002
775.46	-0.002
775.64	-0.002
775.82	-0.003
776.00	-0.002
776.18	-0.002
776.36	-0.002
776.54	-0.003
776.72	-0.003
776.90	-0.004
777.08	-0.004
777.26	-0.003
777.44	-0.003
777.62	-0.004
777.80	-0.003
777.98	-0.004
778.16	-0.003
778.34	-0.003
778.52	-0.003
778.70	-0.003
778.89	-0.003
779.07	-0.003
779.25	-0.003
779.43	-0.003
779.61	-0.003
779.79	-0.003
779.97	-0.003
780.15	-0.004
780.33	-0.003
780.51	-0.003
780.69	-0.003
780.87	-0.003
781.05	-0.003
781.23	-0.002
781.41	-0.003
781.59	-0.003
781.77	-0.002
781.95	-0.002
782.13	-0.003
782.31	-0.003
782.49	-0.002
782.67	-0.003
782.84	-0.003
783.02	-0.004
783.20	-0.004
783.38	-0.005
783.56	-0.005
783.74	-0.005
783.92	-0.006
784.10	-0.006
784.28	-0.006
784.46	-0.006
784.64	-0.005
784.82	-0.005
785.00	-0.005
785.18	-0.005
785.36	-0.005
785.54	-0.004
785.72	-0.004
785.90	-0.004
786.08	-0.004
786.26	-0.004
786.44	-0.004
786.62	-0.005
786.80	-0.005
786.98	-0.005
787.16	-0.004
787.33	-0.004
787.51	-0.004
787.69	-0.004
787.87	-0.004
788.05	-0.004
788.23	-0.004
788.41	-0.003
788.59	-0.003
788.77	-0.003
788.95	-0.003
789.13	-0.004
789.31	-0.004
789.49	-0.005
789.67	-0.005
789.84	-0.005
790.02	-0.005
790.20	-0.006
790.38	-0.006
790.56	-0.006
790.74	-0.005
790.92	-0.006
791.10	-0.005
791.28	-0.005
791.46	-0.004
791.64	-0.004
791.81	-0.004
791.99	-0.004
792.17	-0.004
792.35	-0.004
792.53	-0.004
792.71	-0.005
792.89	-0.004
793.07	-0.004
793.25	-0.004
793.42	-0.004
793.60	-0.005
793.78	-0.005
793.96	-0.005
794.14	-0.006
794.32	-0.006
794.50	-0.005
794.68	-0.006
794.85	-0.006
795.03	-0.006
795.21	-0.006
795.39	-0.006
795.57	-0.006
795.75	-0.005
795.93	-0.004
796.10	-0.004
796.28	-0.004
796.46	-0.004
796.64	-0.004
796.82	-0.004
797.00	-0.004
797.18	-0.004
797.35	-0.004
797.53	-0.004
797.71	-0.004
797.89	-0.004
798.07	-0.005
798.25	-0.005
798.42	-0.004
798.60	-0.004
798.78	-0.005
798.96	-0.005
799.14	-0.005
799.32	-0.005
799.49	-0.004
799.67	-0.004
799.85	-0.004
800.03	-0.004
800.21	-0.004
800.38	-0.005
800.56	-0.004
800.74	-0.004
800.92	-0.004
801.10	-0.004
801.28	-0.004
801.45	-0.005
801.63	-0.005
801.81	-0.005
801.99	-0.004
802.17	-0.005
802.34	-0.004
802.52	-0.005
802.70	-0.004
802.88	-0.004
803.05	-0.004
803.23	-0.004
803.41	-0.004
803.59	-0.004
803.77	-0.004
803.94	-0.005
804.12	-0.005
804.30	-0.005
804.48	-0.005
804.66	-0.005
804.83	-0.005
805.01	-0.006
805.19	-0.005
805.37	-0.005
805.54	-0.006
805.72	-0.005
805.90	-0.005
806.08	-0.004
806.25	-0.004
806.43	-0.005
806.61	-0.005
806.79	-0.005
806.96	-0.004
807.14	-0.005
807.32	-0.004
807.50	-0.004
807.67	-0.004
807.85	-0.005
808.03	-0.005
808.21	-0.005
808.38	-0.004
808.56	-0.004
808.74	-0.004
808.92	-0.005
809.09	-0.005
809.27	-0.006
809.45	-0.005
809.62	-0.005
809.80	-0.005
809.98	-0.004
810.16	-0.004
810.33	-0.004
810.51	-0.005
810.69	-0.005
810.87	-0.004
811.04	-0.004
811.22	-0.003
811.40	-0.003
811.57	-0.003
811.75	-0.003
811.93	-0.004
812.10	-0.004
812.28	-0.005
812.46	-0.005
812.64	-0.004
812.81	-0.005
812.99	-0.005
813.17	-0.006
813.34	-0.006
813.52	-0.005
813.70	-0.005
813.87	-0.005
814.05	-0.005
814.23	-0.005
814.40	-0.005
814.58	-0.005
814.76	-0.004
814.93	-0.004
815.11	-0.004
815.29	-0.004
815.46	-0.004
815.64	-0.004
815.82	-0.004
815.99	-0.004
816.17	-0.004
816.35	-0.002
816.52	-0.003
816.70	-0.003
816.88	-0.003
817.05	-0.003
817.23	-0.004
817.41	-0.004
817.58	-0.004
817.76	-0.003
817.94	-0.003
818.11	-0.003
818.29	-0.004
818.47	-0.004
818.64	-0.003
818.82	-0.004
818.99	-0.003
819.17	-0.003
819.35	-0.003
819.52	-0.003
819.70	-0.005
819.88	-0.004
820.05	-0.005
820.23	-0.004
820.40	-0.004
820.58	-0.004
820.76	-0.005
820.93	-0.005
821.11	-0.005
821.29	-0.004
821.46	-0.004
821.64	-0.003
821.81	-0.003
821.99	-0.002
822.17	-0.002
822.34	-0.002
822.52	-0.002
822.69	-0.002
822.87	-0.001
823.05	-0.001
823.22	-0.001
823.40	-0.001
823.57	-0.001
823.75	-0.001
823.92	-0.002
824.10	-0.002
824.28	-0.002
824.45	-0.001
824.63	-0.001
824.80	-0.001
824.98	-0.002
825.16	-0.001
825.33	-0.002
825.51	-0.002
825.68	-0.002
825.86	-0.002
826.03	-0.002
826.21	-0.003
826.38	-0.004
826.56	-0.004
826.74	-0.004
826.91	-0.004
827.09	-0.006
827.26	-0.005
827.44	-0.006
827.61	-0.006
827.79	-0.006
827.96	-0.005
828.14	-0.005
828.32	-0.003
828.49	-0.003
828.67	-0.003
828.84	-0.002
829.02	-0.000
829.19	-0.001
829.37	0.001
829.54	-0.000
829.72	-0.001
829.89	0.001
830.07	0.001
830.24	0.000
830.42	0.001
830.59	0.001
830.77	0.002
830.94	0.000
831.12	-0.000
831.29	-0.001
831.47	-0.000
831.64	0.002
831.82	-0.000
831.99	-0.002
832.17	-0.002
832.34	-0.001
832.52	0.000
832.69	0.000
832.87	0.002
833.04	0.002
833.22	0.001
833.39	0.002
833.57	-0.001
833.74	-0.001
833.92	-0.000
834.09	-0.001
834.27	-0.002
834.44	-0.001
834.62	-0.003
834.79	-0.001
834.97	-0.002
835.14	0.000
835.32	-0.001
835.49	0.001
835.67	0.001
835.84	0.004
836.02	0.007
836.19	0.006
836.36	0.002
836.54	0.001
836.71	-0.002
836.89	-0.000
837.06	-0.002
837.24	-0.000
837.41	-0.001
837.59	0.000
837.76	-0.002
837.94	-0.005
838.11	-0.002
838.28	-0.002
838.46	-0.002
838.63	0.003
838.81	0.003
838.98	0.003
839.16	0.000
839.33	0.001
839.50	0.000
839.68	-0.001
839.85	0.000
840.03	-0.003
840.20	-0.001
840.38	0.000
840.55	-0.001
840.72	-0.001
840.90	0.001
841.07	0.002
841.25	0.002
841.42	0.002
841.59	0.001
841.77	0.001
841.94	0.004
842.12	0.001
842.29	0.001
842.46	0.002
842.64	0.000
842.81	-0.001
842.99	0.001
843.16	0.002
843.33	0.004
843.51	0.003
843.68	0.001
843.86	0.001
844.03	0.001
844.20	-0.001
844.38	-0.002
844.55	0.000
844.72	0.001
844.90	0.001
845.07	0.002
845.25	-0.001
845.42	0.001
845.59	0.002
845.77	0.001
845.94	0.004
846.11	0.004
846.29	0.006
846.46	0.003
846.63	0.005
846.81	0.003
846.98	0.003
847.16	0.003
847.33	0.003
847.50	0.004
847.68	0.006
847.85	0.004
848.02	0.004
848.20	0.003
848.37	0.002
848.54	0.001
848.72	0.006
848.89	0.004
849.06	0.004
849.24	0.003
849.41	0.002
849.58	-0.001
849.76	-0.001
849.93	0.002
850.10	0.000
850.27	0.002
850.45	0.001
850.62	-0.002
850.79	0.001
850.97	0.001
851.14	0.002
851.31	0.003
851.49	0.003
851.66	0.003
851.83	0.002
852.01	0.001
852.18	0.001
852.35	0.002
852.52	0.000
852.70	-0.004
852.87	-0.003
853.04	-0.006
853.22	-0.007
853.39	-0.005
853.56	-0.007
853.73	-0.005
853.91	-0.005
854.08	-0.005
854.25	-0.010
854.43	-0.008
854.60	-0.007
854.77	-0.004
854.94	-0.002
855.12	-0.001
855.29	-0.002
855.46	-0.002
855.63	-0.006
855.81	-0.003
855.98	-0.003
856.15	-0.000
856.32	-0.004
856.50	-0.006
856.67	-0.010
856.84	-0.013
857.01	-0.012
857.19	-0.013
857.36	-0.010
857.53	-0.011
857.70	-0.011
857.88	-0.009
858.05	-0.011
858.22	-0.006
858.39	-0.005
858.57	-0.002
858.74	0.003
858.91	0.002
859.08	0.005
859.25	0.003
859.43	0.002
859.60	0.000
859.77	-0.003
859.94	-0.005
860.12	-0.006
860.29	-0.002
860.46	-0.004
860.63	-0.006
860.80	-0.007
860.98	-0.009
861.15	-0.011
861.32	-0.007
861.49	-0.005
861.66	-0.004
861.84	-0.002
862.01	-0.001
862.18	-0.005
862.35	-0.005
862.52	-0.006
862.70	-0.009
862.87	-0.008
863.04	-0.006
863.21	-0.008
863.38	-0.009
863.55	-0.008
863.73	-0.005
863.90	-0.008
864.07	-0.010
864.24	-0.009
864.41	-0.008
864.58	-0.003
864.76	-0.003
864.93	-0.006
865.10	-0.006
865.27	-0.008
865.44	-0.007
865.61	-0.007
865.79	-0.008
865.96	-0.005
866.13	-0.006
866.30	-0.006
866.47	-0.013
866.64	-0.009
866.81	-0.009
866.99	-0.006
867.16	-0.005
867.33	-0.010
867.50	-0.015
867.67	-0.013
867.84	-0.013
868.01	-0.013
868.19	-0.013
868.36	-0.008
868.53	-0.009
868.70	-0.010
868.87	-0.009
869.04	-0.014
869.21	-0.013
869.38	-0.013
869.55	-0.015
869.73	-0.013
869.90	-0.017
870.07	-0.014
870.24	-0.012
870.41	-0.013
870.58	-0.013
870.75	-0.016
870.92	-0.014
871.09	-0.009
871.27	-0.007
871.44	0.001
871.61	-0.003
871.78	0.002
871.95	0.003
872.12	-0.003
872.29	-0.001
872.46	0.005
872.63	0.002
872.80	0.005
872.97	0.002
873.14	0.000
873.32	-0.005
873.49	-0.008
873.66	-0.011
873.83	-0.014
874.00	-0.009
874.17	-0.013
874.34	-0.017
874.51	-0.006
874.68	-0.006
874.85	-0.007
875.02	-0.003
875.19	-0.005
875.36	-0.001
875.53	0.002
875.70	0.001
875.87	-0.008
876.04	-0.002
876.21	0.009
876.39	0.005
876.56	0.009
876.73	0.009
876.90	0.010
877.07	0.015
877.24	0.013
877.41	0.017
877.58	0.013
877.75	0.024
877.92	0.017
878.09	0.011
878.26	0.008
878.43	0.006
878.60	0.009
878.77	0.009
878.94	0.007
879.11	0.012
879.28	0.005
879.45	0.014
879.62	0.010
879.79	0.004
879.96	0.004
880.13	0.006
880.30	0.004
880.47	-0.002
880.64	-0.009
880.81	-0.009
880.98	-0.021
881.15	-0.017
881.32	-0.025
881.49	-0.026
881.66	-0.023
881.83	-0.030
882.00	-0.040
882.17	-0.041
882.34	-0.035
882.51	-0.032
882.68	-0.037
882.85	-0.029
883.02	-0.025
883.19	-0.019
883.36	-0.013
883.53	-0.010
883.69	-0.005
883.86	-0.003
884.03	0.001
884.20	-0.004
884.37	-0.008
884.54	0.001
884.71	-0.006
884.88	-0.009
885.05	-0.011
885.22	-0.021
885.39	-0.020
885.56	-0.025
885.73	-0.016
885.90	-0.008
886.07	-0.005
886.24	-0.004
886.41	-0.007
886.58	-0.002
886.74	-0.000
886.91	0.006
887.08	0.003
887.25	0.012
887.42	0.013
887.59	0.004
887.76	0.000
887.93	-0.005
888.10	-0.003
888.27	0.001
888.44	0.001
888.61	-0.007
888.77	-0.008
888.94	-0.005
889.11	-0.009
889.28	-0.014
889.45	-0.011
889.62	-0.015
889.79	-0.014
889.96	-0.019
890.13	-0.016
890.29	-0.015
890.46	-0.007
890.63	-0.007
890.80	-0.001
890.97	-0.010
891.14	-0.005
891.31	0.005
891.48	0.005
891.65	0.009
891.81	0.007
891.98	0.006
892.15	0.012
892.32	0.007
892.49	0.005
892.66	0.010
892.83	0.020
892.99	0.024
893.16	0.010
893.33	0.015
893.50	0.012
893.67	0.010
893.84	0.008
894.01	0.012
894.17	0.009
894.34	0.006
894.51	0.000
894.68	-0.010
894.85	-0.013
895.02	-0.003
895.18	-0.012
895.35	-0.007
895.52	0.007
895.69	0.000
895.86	-0.011
896.03	-0.008
896.19	-0.003
896.36	-0.009
896.53	-0.005
896.70	0.001
896.87	-0.003
897.03	-0.002
897.20	-0.001
897.37	-0.009
897.54	-0.001
897.71	-0.001
897.87	0.003
898.04	-0.001
898.21	0.001
898.38	0.008
898.55	0.001
898.71	0.010
898.88	0.009
899.05	0.010
899.22	0.004
899.39	0.003
899.55	0.009
899.72	-0.008
899.89	-0.006
900.06	0.000
900.23	-0.008
900.39	-0.014
900.56	-0.017
900.73	-0.020
900.90	-0.028
901.06	-0.025
901.23	-0.025
901.40	-0.031
901.57	-0.017
901.73	-0.018
901.90	-0.026
902.07	-0.022
902.24	-0.011
902.40	-0.010
902.57	0.008
902.74	0.004
902.91	0.012
903.07	0.013
903.24	0.019
903.41	0.017
903.58	0.017
903.74	0.013
903.91	0.000
904.08	-0.005
904.25	-0.012
904.41	-0.028
904.58	-0.017
904.75	-0.016
904.92	-0.026
905.08	-0.019
905.25	-0.024
905.42	-0.019
905.58	-0.013
905.75	-0.004
905.92	0.054
906.09	-0.036
906.25	0.053
906.42	-0.024
906.59	-0.049
>>>>>End Processed Spectral Data<<<<<
