SpectraSuite Data File
++++++++++++++++++++++++++++++++++++
Date: Mon Jul 27 09:23:18 PDT 2015
User: HawkinsLab
Dark Spectrum Present: Yes
Reference Spectrum Present: Yes
Number of Sampled Component Spectra: 1
Spectrometers: USB4H04298
Integration Time (usec): 16229 (USB4H04298)
Spectra Averaged: 10 (USB4H04298)
Boxcar Smoothing: 5 (USB4H04298)
Correct for Electrical Dark: Yes (USB4H04298)
Strobe/Lamp Enabled: No (USB4H04298)
Correct for Detector Non-linearity: Yes (USB4H04298)
Correct for Stray Light: Yes (USB4H04298)
Number of Pixels in Processed Spectrum: 3648
>>>>>Begin Processed Spectral Data<<<<<
195.57	-0.820
195.79	-0.820
196.00	-0.820
196.22	-0.165
196.44	-0.127
196.65	-0.459
196.87	0.616
197.09	0.549
197.30	-0.000
197.52	-0.000
197.73	-0.000
197.95	-0.000
198.17	-0.000
198.38	1.023
198.60	0.156
198.81	0.110
199.03	0.106
199.25	0.056
199.46	0.071
199.68	0.054
199.89	0.051
200.11	0.043
200.33	0.034
200.54	0.024
200.76	0.030
200.97	0.027
201.19	0.028
201.41	0.023
201.62	0.012
201.84	0.009
202.05	-0.002
202.27	0.008
202.49	0.005
202.70	0.009
202.92	0.012
203.13	0.014
203.35	0.014
203.57	-0.002
203.78	0.007
204.00	0.022
204.21	0.020
204.43	0.023
204.64	-0.004
204.86	-0.011
205.08	-0.008
205.29	-0.024
205.51	-0.038
205.72	-0.044
205.94	-0.040
206.16	-0.045
206.37	-0.056
206.59	-0.058
206.80	-0.044
207.02	-0.039
207.23	-0.028
207.45	-0.035
207.67	-0.027
207.88	-0.033
208.10	-0.021
208.31	-0.015
208.53	-0.003
208.74	-0.006
208.96	-0.009
209.18	-0.020
209.39	-0.016
209.61	-0.024
209.82	-0.009
210.04	-0.020
210.25	-0.015
210.47	-0.020
210.69	-0.020
210.90	-0.029
211.12	-0.013
211.33	-0.004
211.55	-0.005
211.76	-0.003
211.98	0.003
212.19	-0.011
212.41	-0.001
212.63	0.012
212.84	0.002
213.06	-0.003
213.27	0.001
213.49	-0.005
213.70	-0.002
213.92	0.004
214.13	0.003
214.35	0.003
214.56	0.008
214.78	0.016
215.00	0.005
215.21	0.019
215.43	0.024
215.64	0.018
215.86	0.016
216.07	0.009
216.29	0.015
216.50	0.022
216.72	0.022
216.93	0.017
217.15	0.015
217.37	0.014
217.58	0.012
217.80	0.010
218.01	0.014
218.23	0.020
218.44	0.020
218.66	0.017
218.87	0.013
219.09	0.012
219.30	0.013
219.52	0.006
219.73	0.013
219.95	0.015
220.16	0.016
220.38	0.012
220.59	0.008
220.81	0.005
221.03	0.007
221.24	0.009
221.46	0.019
221.67	0.020
221.89	0.022
222.10	0.018
222.32	0.023
222.53	0.024
222.75	0.024
222.96	0.029
223.18	0.027
223.39	0.025
223.61	0.029
223.82	0.025
224.04	0.025
224.25	0.024
224.47	0.026
224.68	0.022
224.90	0.028
225.11	0.030
225.33	0.032
225.54	0.038
225.76	0.040
225.97	0.036
226.19	0.036
226.40	0.037
226.62	0.038
226.83	0.034
227.05	0.033
227.26	0.030
227.48	0.026
227.69	0.021
227.91	0.022
228.12	0.019
228.34	0.020
228.55	0.020
228.77	0.020
228.98	0.022
229.20	0.022
229.41	0.024
229.63	0.024
229.84	0.029
230.06	0.031
230.27	0.031
230.49	0.033
230.70	0.033
230.92	0.036
231.13	0.034
231.35	0.034
231.56	0.036
231.78	0.037
231.99	0.039
232.21	0.038
232.42	0.038
232.64	0.036
232.85	0.035
233.06	0.037
233.28	0.034
233.49	0.034
233.71	0.035
233.92	0.034
234.14	0.035
234.35	0.036
234.57	0.037
234.78	0.037
235.00	0.038
235.21	0.038
235.43	0.038
235.64	0.038
235.86	0.038
236.07	0.038
236.29	0.037
236.50	0.036
236.71	0.034
236.93	0.034
237.14	0.033
237.36	0.035
237.57	0.036
237.79	0.037
238.00	0.037
238.22	0.037
238.43	0.037
238.65	0.037
238.86	0.036
239.07	0.036
239.29	0.036
239.50	0.036
239.72	0.035
239.93	0.034
240.15	0.031
240.36	0.032
240.58	0.032
240.79	0.031
241.00	0.030
241.22	0.030
241.43	0.030
241.65	0.029
241.86	0.029
242.08	0.029
242.29	0.028
242.51	0.029
242.72	0.029
242.93	0.029
243.15	0.030
243.36	0.031
243.58	0.031
243.79	0.030
244.01	0.032
244.22	0.030
244.43	0.031
244.65	0.031
244.86	0.031
245.08	0.031
245.29	0.031
245.51	0.030
245.72	0.030
245.93	0.030
246.15	0.031
246.36	0.030
246.58	0.031
246.79	0.030
247.01	0.030
247.22	0.030
247.43	0.029
247.65	0.030
247.86	0.030
248.08	0.030
248.29	0.031
248.50	0.031
248.72	0.031
248.93	0.032
249.15	0.032
249.36	0.032
249.58	0.031
249.79	0.031
250.00	0.030
250.22	0.030
250.43	0.029
250.65	0.029
250.86	0.028
251.07	0.028
251.29	0.028
251.50	0.029
251.72	0.028
251.93	0.029
252.14	0.029
252.36	0.028
252.57	0.028
252.79	0.030
253.00	0.029
253.21	0.028
253.43	0.028
253.64	0.028
253.86	0.028
254.07	0.027
254.28	0.027
254.50	0.027
254.71	0.028
254.92	0.027
255.14	0.026
255.35	0.027
255.57	0.027
255.78	0.027
255.99	0.028
256.21	0.028
256.42	0.028
256.64	0.028
256.85	0.029
257.06	0.030
257.28	0.030
257.49	0.030
257.70	0.030
257.92	0.031
258.13	0.031
258.35	0.030
258.56	0.031
258.77	0.030
258.99	0.031
259.20	0.030
259.41	0.030
259.63	0.029
259.84	0.030
260.06	0.030
260.27	0.030
260.48	0.030
260.70	0.030
260.91	0.030
261.12	0.030
261.34	0.030
261.55	0.030
261.76	0.030
261.98	0.030
262.19	0.030
262.40	0.030
262.62	0.030
262.83	0.030
263.05	0.030
263.26	0.030
263.47	0.030
263.69	0.030
263.90	0.030
264.11	0.030
264.33	0.030
264.54	0.030
264.75	0.030
264.97	0.030
265.18	0.029
265.39	0.029
265.61	0.030
265.82	0.030
266.03	0.029
266.25	0.030
266.46	0.029
266.67	0.029
266.89	0.029
267.10	0.029
267.31	0.030
267.53	0.031
267.74	0.030
267.95	0.030
268.17	0.030
268.38	0.030
268.59	0.029
268.81	0.029
269.02	0.029
269.23	0.029
269.45	0.030
269.66	0.029
269.87	0.029
270.09	0.029
270.30	0.029
270.51	0.030
270.73	0.030
270.94	0.030
271.15	0.031
271.37	0.031
271.58	0.031
271.79	0.031
272.01	0.031
272.22	0.031
272.43	0.031
272.65	0.031
272.86	0.030
273.07	0.030
273.28	0.030
273.50	0.029
273.71	0.030
273.92	0.030
274.14	0.031
274.35	0.030
274.56	0.031
274.78	0.031
274.99	0.030
275.20	0.030
275.42	0.030
275.63	0.030
275.84	0.030
276.05	0.030
276.27	0.030
276.48	0.029
276.69	0.029
276.91	0.029
277.12	0.029
277.33	0.029
277.54	0.030
277.76	0.029
277.97	0.029
278.18	0.030
278.40	0.030
278.61	0.030
278.82	0.030
279.04	0.030
279.25	0.030
279.46	0.030
279.67	0.030
279.89	0.030
280.10	0.030
280.31	0.029
280.52	0.029
280.74	0.029
280.95	0.028
281.16	0.029
281.38	0.029
281.59	0.028
281.80	0.028
282.01	0.028
282.23	0.028
282.44	0.028
282.65	0.028
282.87	0.029
283.08	0.029
283.29	0.029
283.50	0.029
283.72	0.029
283.93	0.030
284.14	0.030
284.35	0.030
284.57	0.030
284.78	0.030
284.99	0.030
285.20	0.030
285.42	0.030
285.63	0.030
285.84	0.030
286.05	0.030
286.27	0.029
286.48	0.029
286.69	0.029
286.90	0.029
287.12	0.029
287.33	0.029
287.54	0.029
287.75	0.029
287.97	0.029
288.18	0.029
288.39	0.029
288.60	0.029
288.82	0.029
289.03	0.029
289.24	0.029
289.45	0.029
289.67	0.029
289.88	0.029
290.09	0.029
290.30	0.029
290.52	0.029
290.73	0.029
290.94	0.029
291.15	0.029
291.37	0.029
291.58	0.029
291.79	0.029
292.00	0.029
292.21	0.029
292.43	0.029
292.64	0.029
292.85	0.029
293.06	0.029
293.28	0.029
293.49	0.029
293.70	0.029
293.91	0.029
294.12	0.029
294.34	0.029
294.55	0.029
294.76	0.029
294.97	0.029
295.19	0.029
295.40	0.029
295.61	0.029
295.82	0.028
296.03	0.029
296.25	0.028
296.46	0.029
296.67	0.029
296.88	0.028
297.09	0.028
297.31	0.029
297.52	0.029
297.73	0.029
297.94	0.029
298.15	0.029
298.37	0.029
298.58	0.029
298.79	0.029
299.00	0.029
299.21	0.029
299.43	0.029
299.64	0.029
299.85	0.029
300.06	0.029
300.27	0.029
300.49	0.029
300.70	0.029
300.91	0.029
301.12	0.029
301.33	0.028
301.55	0.028
301.76	0.028
301.97	0.028
302.18	0.028
302.39	0.028
302.61	0.028
302.82	0.028
303.03	0.028
303.24	0.028
303.45	0.028
303.66	0.028
303.88	0.028
304.09	0.028
304.30	0.028
304.51	0.028
304.72	0.028
304.93	0.028
305.15	0.028
305.36	0.028
305.57	0.028
305.78	0.028
305.99	0.028
306.20	0.028
306.42	0.028
306.63	0.027
306.84	0.028
307.05	0.028
307.26	0.028
307.47	0.028
307.69	0.028
307.90	0.028
308.11	0.028
308.32	0.028
308.53	0.028
308.74	0.028
308.96	0.028
309.17	0.027
309.38	0.027
309.59	0.027
309.80	0.027
310.01	0.027
310.22	0.027
310.44	0.027
310.65	0.027
310.86	0.027
311.07	0.027
311.28	0.027
311.49	0.027
311.70	0.027
311.92	0.027
312.13	0.027
312.34	0.027
312.55	0.027
312.76	0.027
312.97	0.026
313.18	0.027
313.40	0.027
313.61	0.027
313.82	0.026
314.03	0.027
314.24	0.027
314.45	0.027
314.66	0.027
314.87	0.027
315.09	0.027
315.30	0.027
315.51	0.027
315.72	0.027
315.93	0.027
316.14	0.027
316.35	0.027
316.56	0.027
316.78	0.028
316.99	0.028
317.20	0.028
317.41	0.028
317.62	0.028
317.83	0.028
318.04	0.028
318.25	0.028
318.46	0.029
318.68	0.028
318.89	0.028
319.10	0.028
319.31	0.028
319.52	0.028
319.73	0.027
319.94	0.027
320.15	0.027
320.36	0.027
320.58	0.027
320.79	0.027
321.00	0.027
321.21	0.027
321.42	0.026
321.63	0.027
321.84	0.027
322.05	0.026
322.26	0.026
322.47	0.026
322.69	0.026
322.90	0.026
323.11	0.027
323.32	0.027
323.53	0.026
323.74	0.027
323.95	0.027
324.16	0.027
324.37	0.027
324.58	0.026
324.79	0.026
325.00	0.026
325.22	0.026
325.43	0.026
325.64	0.026
325.85	0.026
326.06	0.026
326.27	0.026
326.48	0.026
326.69	0.026
326.90	0.026
327.11	0.026
327.32	0.026
327.53	0.026
327.74	0.027
327.95	0.027
328.17	0.027
328.38	0.027
328.59	0.027
328.80	0.027
329.01	0.027
329.22	0.027
329.43	0.027
329.64	0.027
329.85	0.027
330.06	0.027
330.27	0.027
330.48	0.027
330.69	0.026
330.90	0.026
331.11	0.026
331.32	0.026
331.53	0.026
331.75	0.026
331.96	0.026
332.17	0.026
332.38	0.026
332.59	0.026
332.80	0.026
333.01	0.026
333.22	0.026
333.43	0.026
333.64	0.026
333.85	0.026
334.06	0.027
334.27	0.026
334.48	0.026
334.69	0.026
334.90	0.026
335.11	0.026
335.32	0.026
335.53	0.026
335.74	0.026
335.95	0.026
336.16	0.026
336.37	0.026
336.58	0.026
336.79	0.027
337.00	0.026
337.21	0.027
337.42	0.027
337.63	0.026
337.84	0.027
338.06	0.026
338.27	0.027
338.48	0.026
338.69	0.026
338.90	0.026
339.11	0.026
339.32	0.026
339.53	0.026
339.74	0.026
339.95	0.026
340.16	0.025
340.37	0.026
340.58	0.025
340.79	0.026
341.00	0.026
341.21	0.026
341.42	0.026
341.63	0.026
341.84	0.026
342.05	0.026
342.26	0.026
342.47	0.026
342.68	0.026
342.89	0.026
343.10	0.025
343.31	0.025
343.52	0.025
343.73	0.025
343.94	0.025
344.15	0.025
344.36	0.025
344.57	0.025
344.78	0.026
344.99	0.025
345.20	0.025
345.41	0.025
345.62	0.025
345.83	0.025
346.04	0.025
346.24	0.025
346.45	0.025
346.66	0.025
346.87	0.025
347.08	0.025
347.29	0.025
347.50	0.025
347.71	0.025
347.92	0.024
348.13	0.025
348.34	0.025
348.55	0.025
348.76	0.025
348.97	0.025
349.18	0.025
349.39	0.025
349.60	0.025
349.81	0.025
350.02	0.025
350.23	0.025
350.44	0.025
350.65	0.025
350.86	0.025
351.07	0.025
351.28	0.025
351.49	0.025
351.70	0.025
351.91	0.025
352.12	0.025
352.32	0.025
352.53	0.025
352.74	0.025
352.95	0.026
353.16	0.026
353.37	0.025
353.58	0.026
353.79	0.026
354.00	0.025
354.21	0.025
354.42	0.026
354.63	0.026
354.84	0.026
355.05	0.025
355.26	0.025
355.47	0.025
355.68	0.025
355.88	0.025
356.09	0.025
356.30	0.025
356.51	0.025
356.72	0.025
356.93	0.025
357.14	0.025
357.35	0.025
357.56	0.025
357.77	0.025
357.98	0.025
358.19	0.025
358.40	0.025
358.61	0.025
358.81	0.025
359.02	0.025
359.23	0.025
359.44	0.025
359.65	0.025
359.86	0.025
360.07	0.025
360.28	0.025
360.49	0.025
360.70	0.025
360.91	0.025
361.11	0.024
361.32	0.024
361.53	0.024
361.74	0.024
361.95	0.024
362.16	0.024
362.37	0.024
362.58	0.024
362.79	0.024
363.00	0.024
363.20	0.024
363.41	0.024
363.62	0.024
363.83	0.024
364.04	0.023
364.25	0.023
364.46	0.023
364.67	0.023
364.88	0.023
365.09	0.023
365.29	0.023
365.50	0.022
365.71	0.022
365.92	0.022
366.13	0.022
366.34	0.022
366.55	0.022
366.76	0.022
366.96	0.022
367.17	0.022
367.38	0.022
367.59	0.022
367.80	0.022
368.01	0.022
368.22	0.022
368.43	0.022
368.63	0.022
368.84	0.022
369.05	0.022
369.26	0.022
369.47	0.023
369.68	0.023
369.89	0.023
370.10	0.023
370.30	0.023
370.51	0.023
370.72	0.024
370.93	0.023
371.14	0.023
371.35	0.023
371.56	0.024
371.76	0.024
371.97	0.023
372.18	0.023
372.39	0.024
372.60	0.023
372.81	0.024
373.01	0.023
373.22	0.023
373.43	0.023
373.64	0.024
373.85	0.023
374.06	0.023
374.27	0.023
374.47	0.023
374.68	0.023
374.89	0.023
375.10	0.022
375.31	0.022
375.52	0.022
375.72	0.022
375.93	0.021
376.14	0.021
376.35	0.021
376.56	0.021
376.77	0.020
376.97	0.020
377.18	0.019
377.39	0.019
377.60	0.019
377.81	0.018
378.02	0.018
378.22	0.017
378.43	0.017
378.64	0.017
378.85	0.017
379.06	0.017
379.26	0.016
379.47	0.017
379.68	0.017
379.89	0.017
380.10	0.017
380.31	0.017
380.51	0.017
380.72	0.017
380.93	0.017
381.14	0.017
381.35	0.017
381.55	0.018
381.76	0.018
381.97	0.018
382.18	0.018
382.39	0.018
382.59	0.018
382.80	0.018
383.01	0.018
383.22	0.019
383.43	0.019
383.63	0.020
383.84	0.020
384.05	0.020
384.26	0.020
384.47	0.020
384.67	0.020
384.88	0.020
385.09	0.020
385.30	0.020
385.50	0.020
385.71	0.020
385.92	0.019
386.13	0.019
386.34	0.019
386.54	0.019
386.75	0.019
386.96	0.019
387.17	0.019
387.37	0.019
387.58	0.019
387.79	0.019
388.00	0.019
388.21	0.019
388.41	0.019
388.62	0.019
388.83	0.019
389.04	0.019
389.24	0.018
389.45	0.018
389.66	0.018
389.87	0.018
390.07	0.017
390.28	0.017
390.49	0.017
390.70	0.017
390.90	0.016
391.11	0.016
391.32	0.016
391.53	0.015
391.73	0.015
391.94	0.015
392.15	0.015
392.36	0.015
392.56	0.015
392.77	0.014
392.98	0.014
393.19	0.014
393.39	0.014
393.60	0.014
393.81	0.014
394.02	0.015
394.22	0.015
394.43	0.015
394.64	0.015
394.85	0.015
395.05	0.015
395.26	0.015
395.47	0.015
395.68	0.015
395.88	0.015
396.09	0.015
396.30	0.014
396.51	0.014
396.71	0.014
396.92	0.013
397.13	0.013
397.33	0.013
397.54	0.012
397.75	0.012
397.96	0.011
398.16	0.011
398.37	0.011
398.58	0.011
398.78	0.011
398.99	0.011
399.20	0.011
399.41	0.011
399.61	0.011
399.82	0.012
400.03	0.012
400.23	0.013
400.44	0.013
400.65	0.013
400.86	0.014
401.06	0.014
401.27	0.015
401.48	0.015
401.68	0.016
401.89	0.016
402.10	0.016
402.30	0.016
402.51	0.016
402.72	0.016
402.93	0.016
403.13	0.016
403.34	0.016
403.55	0.016
403.75	0.015
403.96	0.015
404.17	0.015
404.37	0.015
404.58	0.016
404.79	0.016
404.99	0.016
405.20	0.016
405.41	0.016
405.61	0.016
405.82	0.016
406.03	0.016
406.23	0.016
406.44	0.016
406.65	0.016
406.86	0.016
407.06	0.016
407.27	0.016
407.48	0.017
407.68	0.017
407.89	0.017
408.10	0.017
408.30	0.017
408.51	0.017
408.72	0.017
408.92	0.017
409.13	0.017
409.34	0.017
409.54	0.017
409.75	0.017
409.95	0.017
410.16	0.017
410.37	0.017
410.57	0.017
410.78	0.016
410.99	0.016
411.19	0.016
411.40	0.016
411.61	0.017
411.81	0.017
412.02	0.016
412.23	0.016
412.43	0.016
412.64	0.016
412.85	0.017
413.05	0.017
413.26	0.017
413.46	0.017
413.67	0.017
413.88	0.017
414.08	0.017
414.29	0.017
414.50	0.017
414.70	0.017
414.91	0.017
415.12	0.017
415.32	0.017
415.53	0.017
415.73	0.017
415.94	0.017
416.15	0.017
416.35	0.017
416.56	0.017
416.77	0.017
416.97	0.017
417.18	0.017
417.38	0.017
417.59	0.016
417.80	0.016
418.00	0.016
418.21	0.016
418.41	0.016
418.62	0.015
418.83	0.015
419.03	0.014
419.24	0.014
419.44	0.013
419.65	0.013
419.86	0.012
420.06	0.012
420.27	0.011
420.48	0.011
420.68	0.011
420.89	0.011
421.09	0.011
421.30	0.010
421.50	0.010
421.71	0.010
421.92	0.010
422.12	0.010
422.33	0.009
422.53	0.009
422.74	0.009
422.95	0.009
423.15	0.009
423.36	0.009
423.56	0.009
423.77	0.010
423.98	0.010
424.18	0.010
424.39	0.011
424.59	0.011
424.80	0.011
425.00	0.011
425.21	0.012
425.42	0.012
425.62	0.012
425.83	0.012
426.03	0.012
426.24	0.012
426.44	0.012
426.65	0.012
426.86	0.012
427.06	0.012
427.27	0.011
427.47	0.011
427.68	0.010
427.88	0.010
428.09	0.009
428.29	0.009
428.50	0.008
428.71	0.008
428.91	0.007
429.12	0.007
429.32	0.006
429.53	0.006
429.73	0.006
429.94	0.006
430.14	0.006
430.35	0.006
430.56	0.006
430.76	0.006
430.97	0.006
431.17	0.006
431.38	0.007
431.58	0.007
431.79	0.008
431.99	0.008
432.20	0.009
432.40	0.009
432.61	0.010
432.81	0.011
433.02	0.011
433.23	0.011
433.43	0.012
433.64	0.012
433.84	0.012
434.05	0.012
434.25	0.012
434.46	0.012
434.66	0.012
434.87	0.012
435.07	0.012
435.28	0.012
435.48	0.011
435.69	0.011
435.89	0.010
436.10	0.010
436.30	0.010
436.51	0.009
436.71	0.009
436.92	0.009
437.12	0.009
437.33	0.009
437.53	0.009
437.74	0.009
437.94	0.009
438.15	0.009
438.35	0.009
438.56	0.009
438.76	0.009
438.97	0.009
439.17	0.009
439.38	0.009
439.58	0.008
439.79	0.008
439.99	0.008
440.20	0.008
440.40	0.008
440.61	0.008
440.81	0.007
441.02	0.007
441.22	0.007
441.43	0.007
441.63	0.006
441.84	0.006
442.04	0.006
442.25	0.006
442.45	0.005
442.66	0.005
442.86	0.005
443.07	0.005
443.27	0.004
443.48	0.004
443.68	0.003
443.89	0.003
444.09	0.003
444.29	0.003
444.50	0.002
444.70	0.002
444.91	0.002
445.11	0.002
445.32	0.001
445.52	0.001
445.73	0.001
445.93	0.001
446.14	0.002
446.34	0.002
446.55	0.001
446.75	0.002
446.95	0.001
447.16	0.001
447.36	0.001
447.57	0.001
447.77	0.000
447.98	0.000
448.18	0.000
448.39	-0.000
448.59	0.000
448.79	0.000
449.00	-0.000
449.20	0.000
449.41	0.000
449.61	0.001
449.82	0.001
450.02	0.001
450.23	0.001
450.43	0.001
450.63	0.001
450.84	0.001
451.04	0.001
451.25	0.001
451.45	0.002
451.66	0.002
451.86	0.002
452.06	0.002
452.27	0.002
452.47	0.003
452.68	0.003
452.88	0.003
453.08	0.004
453.29	0.004
453.49	0.004
453.70	0.004
453.90	0.004
454.11	0.005
454.31	0.005
454.51	0.005
454.72	0.005
454.92	0.005
455.13	0.005
455.33	0.006
455.53	0.006
455.74	0.006
455.94	0.005
456.15	0.006
456.35	0.005
456.55	0.005
456.76	0.006
456.96	0.006
457.17	0.006
457.37	0.006
457.57	0.005
457.78	0.006
457.98	0.006
458.19	0.006
458.39	0.006
458.59	0.006
458.80	0.006
459.00	0.006
459.21	0.006
459.41	0.006
459.61	0.006
459.82	0.006
460.02	0.007
460.22	0.007
460.43	0.007
460.63	0.007
460.84	0.007
461.04	0.008
461.24	0.008
461.45	0.009
461.65	0.009
461.85	0.009
462.06	0.009
462.26	0.009
462.46	0.009
462.67	0.009
462.87	0.009
463.08	0.009
463.28	0.009
463.48	0.009
463.69	0.008
463.89	0.008
464.09	0.008
464.30	0.007
464.50	0.007
464.70	0.007
464.91	0.007
465.11	0.007
465.31	0.007
465.52	0.007
465.72	0.007
465.93	0.007
466.13	0.007
466.33	0.007
466.54	0.007
466.74	0.008
466.94	0.008
467.15	0.008
467.35	0.008
467.55	0.009
467.76	0.009
467.96	0.009
468.16	0.010
468.37	0.010
468.57	0.011
468.77	0.011
468.98	0.011
469.18	0.012
469.38	0.012
469.59	0.012
469.79	0.012
469.99	0.013
470.19	0.013
470.40	0.013
470.60	0.013
470.80	0.013
471.01	0.013
471.21	0.013
471.41	0.013
471.62	0.013
471.82	0.012
472.02	0.012
472.23	0.012
472.43	0.012
472.63	0.012
472.84	0.011
473.04	0.011
473.24	0.010
473.44	0.010
473.65	0.009
473.85	0.009
474.05	0.009
474.26	0.009
474.46	0.008
474.66	0.008
474.86	0.008
475.07	0.007
475.27	0.007
475.47	0.007
475.68	0.007
475.88	0.007
476.08	0.007
476.28	0.007
476.49	0.007
476.69	0.007
476.89	0.008
477.10	0.008
477.30	0.008
477.50	0.008
477.70	0.008
477.91	0.008
478.11	0.008
478.31	0.008
478.52	0.008
478.72	0.008
478.92	0.008
479.12	0.007
479.33	0.007
479.53	0.007
479.73	0.007
479.93	0.007
480.14	0.007
480.34	0.007
480.54	0.006
480.74	0.006
480.95	0.006
481.15	0.006
481.35	0.006
481.55	0.005
481.76	0.005
481.96	0.005
482.16	0.005
482.36	0.005
482.57	0.004
482.77	0.004
482.97	0.003
483.17	0.003
483.38	0.003
483.58	0.002
483.78	0.002
483.98	0.002
484.19	0.001
484.39	0.001
484.59	0.000
484.79	-0.000
485.00	-0.000
485.20	-0.000
485.40	-0.000
485.60	-0.001
485.80	-0.001
486.01	-0.001
486.21	-0.001
486.41	-0.001
486.61	-0.001
486.82	-0.001
487.02	-0.000
487.22	-0.000
487.42	0.000
487.62	0.000
487.83	0.001
488.03	0.001
488.23	0.002
488.43	0.002
488.64	0.003
488.84	0.003
489.04	0.003
489.24	0.004
489.44	0.004
489.65	0.004
489.85	0.004
490.05	0.004
490.25	0.004
490.45	0.005
490.66	0.004
490.86	0.004
491.06	0.004
491.26	0.004
491.46	0.004
491.67	0.004
491.87	0.004
492.07	0.004
492.27	0.004
492.47	0.004
492.67	0.003
492.88	0.003
493.08	0.003
493.28	0.002
493.48	0.002
493.68	0.002
493.89	0.002
494.09	0.001
494.29	0.001
494.49	0.001
494.69	0.001
494.89	0.001
495.10	0.000
495.30	0.000
495.50	0.000
495.70	-0.000
495.90	-0.000
496.10	-0.000
496.31	-0.000
496.51	-0.000
496.71	-0.000
496.91	-0.000
497.11	-0.000
497.31	0.000
497.52	0.000
497.72	0.001
497.92	0.001
498.12	0.001
498.32	0.002
498.52	0.002
498.72	0.002
498.93	0.002
499.13	0.002
499.33	0.002
499.53	0.002
499.73	0.002
499.93	0.002
500.13	0.002
500.34	0.002
500.54	0.001
500.74	0.001
500.94	0.001
501.14	0.001
501.34	0.000
501.54	0.000
501.75	0.000
501.95	-0.000
502.15	-0.001
502.35	-0.001
502.55	-0.001
502.75	-0.001
502.95	-0.001
503.15	-0.001
503.36	-0.001
503.56	-0.001
503.76	-0.001
503.96	-0.001
504.16	-0.001
504.36	-0.001
504.56	-0.001
504.76	-0.001
504.96	-0.001
505.17	-0.000
505.37	-0.001
505.57	-0.001
505.77	-0.000
505.97	-0.000
506.17	0.000
506.37	0.000
506.57	0.001
506.77	0.001
506.97	0.001
507.18	0.001
507.38	0.001
507.58	0.002
507.78	0.002
507.98	0.002
508.18	0.002
508.38	0.002
508.58	0.002
508.78	0.002
508.98	0.003
509.18	0.002
509.39	0.002
509.59	0.002
509.79	0.002
509.99	0.002
510.19	0.002
510.39	0.002
510.59	0.002
510.79	0.002
510.99	0.002
511.19	0.002
511.39	0.002
511.59	0.002
511.79	0.002
512.00	0.002
512.20	0.001
512.40	0.001
512.60	0.001
512.80	0.002
513.00	0.002
513.20	0.002
513.40	0.002
513.60	0.002
513.80	0.002
514.00	0.002
514.20	0.002
514.40	0.003
514.60	0.003
514.80	0.003
515.00	0.003
515.20	0.003
515.40	0.003
515.60	0.003
515.81	0.003
516.01	0.004
516.21	0.003
516.41	0.004
516.61	0.004
516.81	0.003
517.01	0.003
517.21	0.003
517.41	0.003
517.61	0.004
517.81	0.003
518.01	0.003
518.21	0.003
518.41	0.003
518.61	0.003
518.81	0.003
519.01	0.003
519.21	0.003
519.41	0.004
519.61	0.004
519.81	0.004
520.01	0.004
520.21	0.004
520.41	0.004
520.61	0.004
520.81	0.004
521.01	0.004
521.21	0.004
521.41	0.004
521.61	0.004
521.81	0.004
522.01	0.004
522.21	0.004
522.41	0.004
522.61	0.004
522.81	0.004
523.01	0.005
523.21	0.005
523.41	0.005
523.61	0.005
523.81	0.005
524.01	0.005
524.21	0.005
524.41	0.005
524.61	0.005
524.81	0.005
525.01	0.005
525.21	0.005
525.41	0.005
525.61	0.005
525.81	0.005
526.01	0.005
526.21	0.005
526.41	0.005
526.61	0.005
526.81	0.005
527.01	0.004
527.21	0.004
527.41	0.004
527.61	0.004
527.81	0.004
528.01	0.004
528.21	0.004
528.41	0.004
528.61	0.004
528.81	0.004
529.01	0.003
529.20	0.003
529.40	0.003
529.60	0.003
529.80	0.003
530.00	0.003
530.20	0.002
530.40	0.002
530.60	0.002
530.80	0.002
531.00	0.002
531.20	0.002
531.40	0.002
531.60	0.002
531.80	0.001
532.00	0.001
532.20	0.001
532.40	0.001
532.60	0.001
532.80	0.001
532.99	0.001
533.19	0.001
533.39	0.001
533.59	0.000
533.79	0.000
533.99	0.000
534.19	0.000
534.39	0.000
534.59	-0.000
534.79	-0.000
534.99	-0.000
535.19	-0.000
535.39	-0.000
535.58	-0.000
535.78	-0.000
535.98	-0.001
536.18	-0.001
536.38	-0.001
536.58	-0.001
536.78	-0.001
536.98	-0.001
537.18	-0.001
537.38	-0.002
537.58	-0.002
537.77	-0.002
537.97	-0.002
538.17	-0.002
538.37	-0.003
538.57	-0.003
538.77	-0.003
538.97	-0.003
539.17	-0.004
539.37	-0.004
539.57	-0.004
539.76	-0.004
539.96	-0.004
540.16	-0.004
540.36	-0.004
540.56	-0.004
540.76	-0.004
540.96	-0.004
541.16	-0.004
541.35	-0.003
541.55	-0.003
541.75	-0.003
541.95	-0.003
542.15	-0.003
542.35	-0.003
542.55	-0.003
542.75	-0.003
542.94	-0.003
543.14	-0.003
543.34	-0.003
543.54	-0.003
543.74	-0.003
543.94	-0.003
544.14	-0.003
544.33	-0.003
544.53	-0.003
544.73	-0.003
544.93	-0.003
545.13	-0.003
545.33	-0.003
545.53	-0.003
545.72	-0.004
545.92	-0.004
546.12	-0.004
546.32	-0.004
546.52	-0.004
546.72	-0.005
546.92	-0.005
547.11	-0.005
547.31	-0.005
547.51	-0.005
547.71	-0.005
547.91	-0.005
548.11	-0.005
548.30	-0.005
548.50	-0.004
548.70	-0.004
548.90	-0.004
549.10	-0.004
549.30	-0.005
549.49	-0.004
549.69	-0.004
549.89	-0.004
550.09	-0.004
550.29	-0.004
550.48	-0.004
550.68	-0.005
550.88	-0.004
551.08	-0.005
551.28	-0.005
551.48	-0.005
551.67	-0.005
551.87	-0.005
552.07	-0.005
552.27	-0.006
552.47	-0.006
552.66	-0.006
552.86	-0.006
553.06	-0.006
553.26	-0.006
553.46	-0.006
553.65	-0.006
553.85	-0.006
554.05	-0.007
554.25	-0.007
554.45	-0.007
554.64	-0.007
554.84	-0.007
555.04	-0.006
555.24	-0.006
555.44	-0.006
555.63	-0.006
555.83	-0.006
556.03	-0.006
556.23	-0.005
556.42	-0.005
556.62	-0.005
556.82	-0.005
557.02	-0.005
557.22	-0.004
557.41	-0.004
557.61	-0.004
557.81	-0.004
558.01	-0.004
558.20	-0.004
558.40	-0.004
558.60	-0.004
558.80	-0.005
558.99	-0.005
559.19	-0.005
559.39	-0.006
559.59	-0.006
559.78	-0.006
559.98	-0.006
560.18	-0.007
560.38	-0.007
560.57	-0.007
560.77	-0.007
560.97	-0.008
561.17	-0.008
561.36	-0.008
561.56	-0.008
561.76	-0.008
561.96	-0.008
562.15	-0.008
562.35	-0.008
562.55	-0.008
562.75	-0.008
562.94	-0.008
563.14	-0.007
563.34	-0.007
563.54	-0.007
563.73	-0.007
563.93	-0.007
564.13	-0.007
564.33	-0.007
564.52	-0.006
564.72	-0.006
564.92	-0.006
565.11	-0.006
565.31	-0.006
565.51	-0.006
565.71	-0.006
565.90	-0.006
566.10	-0.006
566.30	-0.006
566.49	-0.006
566.69	-0.006
566.89	-0.006
567.09	-0.006
567.28	-0.007
567.48	-0.007
567.68	-0.008
567.87	-0.008
568.07	-0.009
568.27	-0.009
568.46	-0.010
568.66	-0.010
568.86	-0.011
569.06	-0.011
569.25	-0.011
569.45	-0.012
569.65	-0.012
569.84	-0.013
570.04	-0.013
570.24	-0.013
570.43	-0.013
570.63	-0.013
570.83	-0.014
571.02	-0.014
571.22	-0.014
571.42	-0.015
571.61	-0.015
571.81	-0.015
572.01	-0.015
572.20	-0.016
572.40	-0.016
572.60	-0.016
572.79	-0.016
572.99	-0.016
573.19	-0.016
573.38	-0.016
573.58	-0.016
573.78	-0.016
573.97	-0.016
574.17	-0.016
574.37	-0.016
574.56	-0.017
574.76	-0.017
574.96	-0.017
575.15	-0.017
575.35	-0.017
575.55	-0.017
575.74	-0.017
575.94	-0.017
576.14	-0.018
576.33	-0.018
576.53	-0.018
576.73	-0.018
576.92	-0.018
577.12	-0.017
577.31	-0.017
577.51	-0.017
577.71	-0.017
577.90	-0.017
578.10	-0.018
578.30	-0.018
578.49	-0.018
578.69	-0.018
578.89	-0.018
579.08	-0.018
579.28	-0.018
579.47	-0.018
579.67	-0.018
579.87	-0.018
580.06	-0.018
580.26	-0.018
580.46	-0.018
580.65	-0.018
580.85	-0.018
581.04	-0.018
581.24	-0.018
581.44	-0.018
581.63	-0.018
581.83	-0.018
582.02	-0.018
582.22	-0.018
582.42	-0.018
582.61	-0.018
582.81	-0.018
583.00	-0.018
583.20	-0.018
583.40	-0.018
583.59	-0.018
583.79	-0.018
583.98	-0.018
584.18	-0.018
584.38	-0.018
584.57	-0.018
584.77	-0.018
584.96	-0.018
585.16	-0.018
585.35	-0.018
585.55	-0.018
585.75	-0.018
585.94	-0.018
586.14	-0.018
586.33	-0.018
586.53	-0.018
586.72	-0.018
586.92	-0.018
587.12	-0.018
587.31	-0.017
587.51	-0.017
587.70	-0.017
587.90	-0.017
588.09	-0.017
588.29	-0.016
588.49	-0.016
588.68	-0.016
588.88	-0.016
589.07	-0.015
589.27	-0.015
589.46	-0.015
589.66	-0.015
589.85	-0.014
590.05	-0.014
590.25	-0.014
590.44	-0.014
590.64	-0.014
590.83	-0.014
591.03	-0.014
591.22	-0.014
591.42	-0.014
591.61	-0.014
591.81	-0.014
592.00	-0.014
592.20	-0.014
592.39	-0.014
592.59	-0.014
592.79	-0.014
592.98	-0.014
593.18	-0.014
593.37	-0.014
593.57	-0.014
593.76	-0.014
593.96	-0.014
594.15	-0.014
594.35	-0.013
594.54	-0.013
594.74	-0.013
594.93	-0.013
595.13	-0.013
595.32	-0.012
595.52	-0.012
595.71	-0.012
595.91	-0.012
596.10	-0.012
596.30	-0.012
596.49	-0.013
596.69	-0.013
596.88	-0.013
597.08	-0.013
597.27	-0.013
597.47	-0.013
597.66	-0.013
597.86	-0.013
598.05	-0.013
598.25	-0.014
598.44	-0.014
598.64	-0.013
598.83	-0.013
599.03	-0.014
599.22	-0.014
599.42	-0.013
599.61	-0.013
599.81	-0.013
600.00	-0.013
600.20	-0.012
600.39	-0.012
600.59	-0.012
600.78	-0.012
600.98	-0.012
601.17	-0.012
601.36	-0.011
601.56	-0.011
601.75	-0.011
601.95	-0.011
602.14	-0.011
602.34	-0.011
602.53	-0.012
602.73	-0.012
602.92	-0.012
603.12	-0.012
603.31	-0.012
603.51	-0.012
603.70	-0.012
603.89	-0.013
604.09	-0.013
604.28	-0.013
604.48	-0.013
604.67	-0.013
604.87	-0.013
605.06	-0.013
605.26	-0.014
605.45	-0.014
605.64	-0.014
605.84	-0.014
606.03	-0.014
606.23	-0.014
606.42	-0.014
606.62	-0.013
606.81	-0.013
607.00	-0.013
607.20	-0.013
607.39	-0.013
607.59	-0.012
607.78	-0.012
607.98	-0.012
608.17	-0.012
608.36	-0.012
608.56	-0.012
608.75	-0.012
608.95	-0.011
609.14	-0.011
609.34	-0.011
609.53	-0.011
609.72	-0.011
609.92	-0.011
610.11	-0.011
610.31	-0.011
610.50	-0.011
610.69	-0.010
610.89	-0.011
611.08	-0.011
611.28	-0.010
611.47	-0.011
611.66	-0.011
611.86	-0.011
612.05	-0.011
612.25	-0.012
612.44	-0.012
612.63	-0.012
612.83	-0.012
613.02	-0.012
613.21	-0.012
613.41	-0.012
613.60	-0.012
613.80	-0.012
613.99	-0.012
614.18	-0.012
614.38	-0.012
614.57	-0.012
614.76	-0.012
614.96	-0.012
615.15	-0.012
615.35	-0.011
615.54	-0.011
615.73	-0.011
615.93	-0.011
616.12	-0.010
616.31	-0.010
616.51	-0.010
616.70	-0.009
616.89	-0.009
617.09	-0.009
617.28	-0.009
617.48	-0.009
617.67	-0.008
617.86	-0.008
618.06	-0.008
618.25	-0.008
618.44	-0.008
618.64	-0.008
618.83	-0.008
619.02	-0.008
619.22	-0.008
619.41	-0.008
619.60	-0.008
619.80	-0.008
619.99	-0.008
620.18	-0.008
620.38	-0.009
620.57	-0.009
620.76	-0.009
620.96	-0.009
621.15	-0.009
621.34	-0.009
621.54	-0.009
621.73	-0.009
621.92	-0.009
622.12	-0.009
622.31	-0.009
622.50	-0.009
622.70	-0.008
622.89	-0.008
623.08	-0.008
623.27	-0.008
623.47	-0.008
623.66	-0.008
623.85	-0.008
624.05	-0.007
624.24	-0.007
624.43	-0.007
624.63	-0.007
624.82	-0.007
625.01	-0.007
625.20	-0.007
625.40	-0.007
625.59	-0.007
625.78	-0.007
625.98	-0.007
626.17	-0.006
626.36	-0.006
626.55	-0.006
626.75	-0.006
626.94	-0.006
627.13	-0.006
627.33	-0.006
627.52	-0.007
627.71	-0.007
627.90	-0.007
628.10	-0.007
628.29	-0.006
628.48	-0.006
628.68	-0.006
628.87	-0.006
629.06	-0.006
629.25	-0.006
629.45	-0.005
629.64	-0.005
629.83	-0.005
630.02	-0.005
630.22	-0.005
630.41	-0.005
630.60	-0.004
630.79	-0.004
630.99	-0.004
631.18	-0.004
631.37	-0.004
631.56	-0.004
631.76	-0.003
631.95	-0.003
632.14	-0.003
632.33	-0.003
632.53	-0.002
632.72	-0.002
632.91	-0.002
633.10	-0.002
633.30	-0.002
633.49	-0.002
633.68	-0.002
633.87	-0.002
634.07	-0.002
634.26	-0.002
634.45	-0.002
634.64	-0.002
634.83	-0.002
635.03	-0.002
635.22	-0.003
635.41	-0.002
635.60	-0.002
635.80	-0.002
635.99	-0.003
636.18	-0.002
636.37	-0.002
636.56	-0.002
636.76	-0.003
636.95	-0.003
637.14	-0.003
637.33	-0.002
637.52	-0.002
637.72	-0.002
637.91	-0.002
638.10	-0.002
638.29	-0.002
638.48	-0.002
638.68	-0.002
638.87	-0.001
639.06	-0.001
639.25	-0.001
639.44	-0.001
639.64	-0.001
639.83	-0.001
640.02	-0.001
640.21	-0.000
640.40	-0.000
640.59	-0.000
640.79	-0.001
640.98	-0.001
641.17	-0.001
641.36	-0.001
641.55	-0.001
641.74	-0.001
641.94	-0.001
642.13	-0.001
642.32	-0.001
642.51	-0.001
642.70	-0.001
642.89	-0.001
643.09	-0.001
643.28	-0.001
643.47	-0.001
643.66	-0.000
643.85	-0.000
644.04	-0.000
644.24	-0.000
644.43	-0.000
644.62	-0.000
644.81	-0.000
645.00	-0.000
645.19	-0.000
645.38	0.000
645.58	-0.000
645.77	-0.000
645.96	-0.000
646.15	-0.000
646.34	-0.000
646.53	-0.000
646.72	-0.001
646.92	-0.001
647.11	-0.001
647.30	-0.001
647.49	-0.001
647.68	-0.001
647.87	-0.001
648.06	-0.001
648.25	-0.001
648.45	-0.002
648.64	-0.002
648.83	-0.002
649.02	-0.002
649.21	-0.003
649.40	-0.003
649.59	-0.003
649.78	-0.003
649.97	-0.003
650.17	-0.003
650.36	-0.003
650.55	-0.003
650.74	-0.003
650.93	-0.003
651.12	-0.002
651.31	-0.002
651.50	-0.002
651.69	-0.002
651.89	-0.002
652.08	-0.003
652.27	-0.003
652.46	-0.004
652.65	-0.004
652.84	-0.005
653.03	-0.006
653.22	-0.007
653.41	-0.008
653.60	-0.009
653.79	-0.011
653.98	-0.011
654.18	-0.012
654.37	-0.013
654.56	-0.013
654.75	-0.014
654.94	-0.015
655.13	-0.015
655.32	-0.015
655.51	-0.015
655.70	-0.015
655.89	-0.015
656.08	-0.015
656.27	-0.015
656.46	-0.015
656.65	-0.014
656.84	-0.014
657.03	-0.013
657.23	-0.012
657.42	-0.011
657.61	-0.010
657.80	-0.009
657.99	-0.008
658.18	-0.007
658.37	-0.006
658.56	-0.005
658.75	-0.004
658.94	-0.003
659.13	-0.002
659.32	-0.002
659.51	-0.002
659.70	-0.001
659.89	-0.001
660.08	-0.001
660.27	-0.000
660.46	-0.000
660.65	-0.000
660.84	0.000
661.03	0.000
661.22	0.000
661.41	0.000
661.60	0.000
661.79	0.001
661.98	0.001
662.17	0.001
662.36	0.001
662.55	0.001
662.74	0.000
662.93	0.000
663.12	0.000
663.31	0.000
663.50	-0.000
663.69	0.000
663.88	-0.000
664.07	-0.000
664.26	0.000
664.45	0.000
664.64	0.000
664.83	0.000
665.02	0.001
665.21	0.000
665.40	0.001
665.59	0.001
665.78	0.001
665.97	0.001
666.16	0.001
666.35	0.000
666.54	0.001
666.73	0.000
666.92	0.000
667.11	0.000
667.30	0.000
667.49	0.000
667.68	0.000
667.87	0.000
668.06	0.001
668.25	0.001
668.44	0.001
668.63	0.000
668.82	0.000
669.01	0.000
669.20	0.000
669.39	0.000
669.58	-0.001
669.77	-0.001
669.96	-0.001
670.15	-0.001
670.34	-0.001
670.53	-0.002
670.72	-0.001
670.90	-0.002
671.09	-0.002
671.28	-0.002
671.47	-0.002
671.66	-0.001
671.85	-0.001
672.04	-0.001
672.23	-0.001
672.42	-0.001
672.61	-0.001
672.80	-0.001
672.99	-0.001
673.18	-0.001
673.37	-0.001
673.56	-0.001
673.74	-0.001
673.93	-0.001
674.12	-0.001
674.31	-0.001
674.50	-0.001
674.69	-0.001
674.88	-0.001
675.07	-0.001
675.26	-0.001
675.45	-0.001
675.64	-0.001
675.83	-0.001
676.01	-0.001
676.20	-0.001
676.39	-0.001
676.58	-0.001
676.77	-0.001
676.96	-0.002
677.15	-0.002
677.34	-0.002
677.53	-0.002
677.71	-0.002
677.90	-0.002
678.09	-0.002
678.28	-0.002
678.47	-0.002
678.66	-0.002
678.85	-0.002
679.04	-0.002
679.23	-0.002
679.41	-0.002
679.60	-0.002
679.79	-0.002
679.98	-0.002
680.17	-0.002
680.36	-0.002
680.55	-0.002
680.74	-0.002
680.92	-0.002
681.11	-0.002
681.30	-0.002
681.49	-0.002
681.68	-0.002
681.87	-0.002
682.06	-0.002
682.24	-0.002
682.43	-0.002
682.62	-0.002
682.81	-0.003
683.00	-0.003
683.19	-0.003
683.38	-0.003
683.56	-0.003
683.75	-0.003
683.94	-0.003
684.13	-0.003
684.32	-0.003
684.51	-0.003
684.69	-0.003
684.88	-0.003
685.07	-0.003
685.26	-0.003
685.45	-0.003
685.64	-0.003
685.82	-0.003
686.01	-0.003
686.20	-0.003
686.39	-0.003
686.58	-0.003
686.77	-0.003
686.95	-0.003
687.14	-0.003
687.33	-0.003
687.52	-0.003
687.71	-0.003
687.89	-0.003
688.08	-0.003
688.27	-0.003
688.46	-0.002
688.65	-0.002
688.83	-0.002
689.02	-0.002
689.21	-0.003
689.40	-0.003
689.59	-0.003
689.77	-0.002
689.96	-0.002
690.15	-0.002
690.34	-0.003
690.53	-0.003
690.71	-0.003
690.90	-0.003
691.09	-0.003
691.28	-0.003
691.46	-0.003
691.65	-0.003
691.84	-0.003
692.03	-0.003
692.22	-0.003
692.40	-0.003
692.59	-0.002
692.78	-0.002
692.97	-0.002
693.15	-0.002
693.34	-0.002
693.53	-0.002
693.72	-0.002
693.90	-0.002
694.09	-0.002
694.28	-0.003
694.47	-0.003
694.66	-0.003
694.84	-0.003
695.03	-0.003
695.22	-0.003
695.41	-0.003
695.59	-0.004
695.78	-0.003
695.97	-0.003
696.15	-0.003
696.34	-0.003
696.53	-0.003
696.72	-0.004
696.90	-0.003
697.09	-0.003
697.28	-0.003
697.47	-0.003
697.65	-0.003
697.84	-0.003
698.03	-0.002
698.22	-0.002
698.40	-0.002
698.59	-0.002
698.78	-0.002
698.96	-0.001
699.15	-0.001
699.34	-0.001
699.53	-0.001
699.71	-0.001
699.90	-0.001
700.09	-0.001
700.27	-0.001
700.46	-0.001
700.65	-0.001
700.84	-0.002
701.02	-0.002
701.21	-0.002
701.40	-0.002
701.58	-0.002
701.77	-0.002
701.96	-0.002
702.14	-0.002
702.33	-0.002
702.52	-0.002
702.70	-0.002
702.89	-0.002
703.08	-0.002
703.27	-0.001
703.45	-0.001
703.64	-0.001
703.83	-0.001
704.01	-0.001
704.20	-0.001
704.39	-0.001
704.57	-0.001
704.76	-0.001
704.95	-0.001
705.13	-0.001
705.32	-0.001
705.51	-0.002
705.69	-0.002
705.88	-0.002
706.07	-0.002
706.25	-0.002
706.44	-0.002
706.63	-0.002
706.81	-0.003
707.00	-0.003
707.19	-0.003
707.37	-0.003
707.56	-0.003
707.74	-0.003
707.93	-0.003
708.12	-0.003
708.30	-0.003
708.49	-0.003
708.68	-0.003
708.86	-0.003
709.05	-0.003
709.24	-0.003
709.42	-0.003
709.61	-0.003
709.79	-0.002
709.98	-0.002
710.17	-0.002
710.35	-0.002
710.54	-0.002
710.73	-0.002
710.91	-0.002
711.10	-0.002
711.28	-0.002
711.47	-0.002
711.66	-0.002
711.84	-0.002
712.03	-0.002
712.22	-0.002
712.40	-0.002
712.59	-0.002
712.77	-0.002
712.96	-0.002
713.15	-0.002
713.33	-0.002
713.52	-0.002
713.70	-0.002
713.89	-0.002
714.08	-0.002
714.26	-0.001
714.45	-0.001
714.63	-0.001
714.82	-0.001
715.00	-0.001
715.19	-0.001
715.38	-0.001
715.56	-0.001
715.75	-0.001
715.93	-0.001
716.12	-0.000
716.30	-0.001
716.49	-0.001
716.68	-0.000
716.86	-0.000
717.05	-0.000
717.23	-0.001
717.42	-0.001
717.60	-0.000
717.79	-0.000
717.98	-0.000
718.16	-0.000
718.35	0.000
718.53	0.000
718.72	-0.000
718.90	-0.000
719.09	0.000
719.27	0.000
719.46	0.001
719.65	0.001
719.83	0.001
720.02	0.001
720.20	0.000
720.39	0.000
720.57	0.000
720.76	0.000
720.94	0.000
721.13	0.001
721.31	0.001
721.50	0.001
721.68	0.001
721.87	0.001
722.06	0.001
722.24	0.001
722.43	0.001
722.61	0.001
722.80	0.001
722.98	0.001
723.17	0.001
723.35	0.001
723.54	0.001
723.72	0.001
723.91	0.001
724.09	0.001
724.28	0.001
724.46	0.000
724.65	-0.000
724.83	0.000
725.02	0.000
725.20	0.000
725.39	0.000
725.57	0.000
725.76	0.001
725.94	0.000
726.13	0.000
726.31	0.000
726.50	0.001
726.68	0.001
726.87	0.001
727.05	0.000
727.24	0.000
727.42	0.001
727.61	0.000
727.79	-0.000
727.97	-0.000
728.16	-0.000
728.34	-0.001
728.53	-0.001
728.71	-0.001
728.90	-0.001
729.08	-0.000
729.27	-0.000
729.45	-0.001
729.64	0.000
729.82	0.000
730.01	0.000
730.19	-0.000
730.37	0.000
730.56	-0.000
730.74	-0.001
730.93	-0.001
731.11	-0.001
731.30	-0.001
731.48	-0.001
731.67	-0.001
731.85	-0.001
732.03	-0.001
732.22	-0.001
732.40	-0.001
732.59	0.000
732.77	-0.000
732.96	0.000
733.14	0.000
733.33	0.001
733.51	0.001
733.69	0.001
733.88	0.001
734.06	0.001
734.25	0.002
734.43	0.001
734.61	0.001
734.80	0.002
734.98	0.001
735.17	0.001
735.35	0.001
735.54	0.001
735.72	0.001
735.90	-0.000
736.09	-0.000
736.27	-0.000
736.46	-0.000
736.64	-0.001
736.82	-0.001
737.01	-0.001
737.19	-0.001
737.38	-0.001
737.56	-0.001
737.74	-0.002
737.93	-0.001
738.11	-0.002
738.29	-0.001
738.48	-0.001
738.66	-0.001
738.85	-0.000
739.03	0.000
739.21	0.001
739.40	0.002
739.58	0.002
739.76	0.002
739.95	0.002
740.13	0.003
740.32	0.002
740.50	0.002
740.68	0.002
740.87	0.003
741.05	0.003
741.23	0.003
741.42	0.002
741.60	0.002
741.78	0.003
741.97	0.003
742.15	0.003
742.34	0.003
742.52	0.003
742.70	0.003
742.89	0.003
743.07	0.002
743.25	0.002
743.44	0.002
743.62	0.002
743.80	0.002
743.99	0.002
744.17	0.002
744.35	0.003
744.54	0.003
744.72	0.003
744.90	0.002
745.09	0.003
745.27	0.003
745.45	0.003
745.64	0.003
745.82	0.003
746.00	0.003
746.18	0.002
746.37	0.002
746.55	0.002
746.73	0.002
746.92	0.003
747.10	0.002
747.28	0.002
747.47	0.002
747.65	0.002
747.83	0.001
748.02	0.002
748.20	0.002
748.38	0.002
748.56	0.001
748.75	0.001
748.93	0.001
749.11	0.001
749.30	0.001
749.48	0.001
749.66	0.001
749.84	0.001
750.03	-0.000
750.21	-0.000
750.39	0.000
750.58	0.000
750.76	0.001
750.94	-0.000
751.12	0.000
751.31	-0.000
751.49	-0.000
751.67	-0.001
751.85	-0.001
752.04	0.001
752.22	0.000
752.40	-0.000
752.58	-0.001
752.77	-0.000
752.95	0.000
753.13	0.000
753.32	0.001
753.50	0.001
753.68	0.002
753.86	0.001
754.05	0.001
754.23	0.001
754.41	0.001
754.59	0.001
754.77	0.000
754.96	-0.000
755.14	-0.000
755.32	0.000
755.50	-0.000
755.69	-0.001
755.87	-0.002
756.05	-0.002
756.23	-0.002
756.42	-0.001
756.60	-0.002
756.78	-0.002
756.96	-0.002
757.14	-0.002
757.33	-0.002
757.51	-0.001
757.69	-0.001
757.87	-0.001
758.05	-0.002
758.24	-0.002
758.42	-0.002
758.60	-0.002
758.78	-0.002
758.97	-0.002
759.15	-0.003
759.33	-0.003
759.51	-0.003
759.69	-0.003
759.87	-0.002
760.06	-0.002
760.24	-0.002
760.42	-0.003
760.60	-0.003
760.78	-0.003
760.97	-0.003
761.15	-0.004
761.33	-0.004
761.51	-0.004
761.69	-0.004
761.87	-0.006
762.06	-0.005
762.24	-0.005
762.42	-0.004
762.60	-0.005
762.78	-0.005
762.97	-0.004
763.15	-0.004
763.33	-0.004
763.51	-0.004
763.69	-0.003
763.87	-0.003
764.05	-0.004
764.24	-0.003
764.42	-0.004
764.60	-0.004
764.78	-0.003
764.96	-0.004
765.14	-0.004
765.32	-0.004
765.51	-0.004
765.69	-0.005
765.87	-0.004
766.05	-0.004
766.23	-0.005
766.41	-0.004
766.59	-0.003
766.78	-0.003
766.96	-0.003
767.14	-0.003
767.32	-0.002
767.50	-0.002
767.68	-0.002
767.86	-0.001
768.04	-0.002
768.23	-0.001
768.41	-0.001
768.59	-0.001
768.77	-0.001
768.95	-0.000
769.13	-0.001
769.31	-0.002
769.49	-0.001
769.67	-0.001
769.86	-0.002
770.04	-0.001
770.22	-0.001
770.40	-0.001
770.58	-0.001
770.76	-0.001
770.94	-0.001
771.12	-0.001
771.30	-0.001
771.48	-0.002
771.66	-0.002
771.85	-0.001
772.03	-0.002
772.21	-0.002
772.39	-0.002
772.57	-0.002
772.75	-0.000
772.93	-0.000
773.11	-0.000
773.29	-0.000
773.47	0.001
773.65	0.001
773.83	0.001
774.01	0.001
774.19	0.002
774.38	0.002
774.56	0.001
774.74	0.001
774.92	0.001
775.10	0.001
775.28	0.001
775.46	0.000
775.64	0.001
775.82	-0.000
776.00	-0.000
776.18	-0.000
776.36	-0.000
776.54	-0.001
776.72	-0.001
776.90	-0.001
777.08	-0.002
777.26	-0.001
777.44	-0.001
777.62	-0.002
777.80	-0.002
777.98	-0.002
778.16	-0.001
778.34	-0.001
778.52	-0.001
778.70	-0.001
778.89	-0.001
779.07	-0.001
779.25	-0.001
779.43	-0.000
779.61	-0.001
779.79	-0.001
779.97	-0.001
780.15	-0.002
780.33	-0.001
780.51	-0.002
780.69	-0.001
780.87	-0.001
781.05	-0.001
781.23	-0.001
781.41	-0.001
781.59	-0.001
781.77	-0.001
781.95	-0.000
782.13	-0.000
782.31	-0.001
782.49	-0.001
782.67	-0.001
782.84	-0.002
783.02	-0.003
783.20	-0.003
783.38	-0.004
783.56	-0.004
783.74	-0.004
783.92	-0.004
784.10	-0.004
784.28	-0.004
784.46	-0.004
784.64	-0.003
784.82	-0.003
785.00	-0.003
785.18	-0.002
785.36	-0.002
785.54	-0.002
785.72	-0.002
785.90	-0.002
786.08	-0.002
786.26	-0.001
786.44	-0.002
786.62	-0.003
786.80	-0.003
786.98	-0.002
787.16	-0.002
787.33	-0.002
787.51	-0.002
787.69	-0.001
787.87	-0.001
788.05	-0.001
788.23	-0.001
788.41	-0.000
788.59	-0.000
788.77	-0.000
788.95	-0.001
789.13	-0.002
789.31	-0.002
789.49	-0.002
789.67	-0.002
789.84	-0.002
790.02	-0.002
790.20	-0.003
790.38	-0.003
790.56	-0.003
790.74	-0.003
790.92	-0.003
791.10	-0.003
791.28	-0.003
791.46	-0.002
791.64	-0.002
791.81	-0.003
791.99	-0.002
792.17	-0.002
792.35	-0.002
792.53	-0.002
792.71	-0.002
792.89	-0.002
793.07	-0.002
793.25	-0.002
793.42	-0.002
793.60	-0.002
793.78	-0.002
793.96	-0.002
794.14	-0.002
794.32	-0.002
794.50	-0.002
794.68	-0.002
794.85	-0.001
795.03	-0.002
795.21	-0.002
795.39	-0.002
795.57	-0.002
795.75	-0.001
795.93	-0.001
796.10	-0.001
796.28	-0.001
796.46	-0.001
796.64	-0.001
796.82	-0.001
797.00	-0.001
797.18	-0.001
797.35	-0.001
797.53	-0.001
797.71	-0.001
797.89	-0.001
798.07	-0.001
798.25	-0.002
798.42	-0.002
798.60	-0.002
798.78	-0.001
798.96	-0.001
799.14	-0.001
799.32	-0.002
799.49	-0.002
799.67	-0.001
799.85	-0.001
800.03	-0.002
800.21	-0.002
800.38	-0.002
800.56	-0.002
800.74	-0.002
800.92	-0.002
801.10	-0.001
801.28	-0.001
801.45	-0.001
801.63	-0.001
801.81	-0.002
801.99	-0.001
802.17	-0.001
802.34	-0.001
802.52	-0.001
802.70	-0.000
802.88	-0.000
803.05	-0.001
803.23	-0.001
803.41	-0.001
803.59	-0.001
803.77	-0.001
803.94	-0.001
804.12	-0.002
804.30	-0.002
804.48	-0.002
804.66	-0.002
804.83	-0.002
805.01	-0.002
805.19	-0.003
805.37	-0.003
805.54	-0.003
805.72	-0.003
805.90	-0.003
806.08	-0.003
806.25	-0.003
806.43	-0.003
806.61	-0.003
806.79	-0.003
806.96	-0.003
807.14	-0.003
807.32	-0.003
807.50	-0.002
807.67	-0.002
807.85	-0.002
808.03	-0.002
808.21	-0.001
808.38	-0.000
808.56	-0.001
808.74	-0.001
808.92	-0.001
809.09	-0.001
809.27	-0.002
809.45	-0.002
809.62	-0.002
809.80	-0.001
809.98	-0.001
810.16	-0.002
810.33	-0.002
810.51	-0.002
810.69	-0.002
810.87	-0.002
811.04	-0.002
811.22	-0.002
811.40	-0.001
811.57	-0.002
811.75	-0.002
811.93	-0.003
812.10	-0.003
812.28	-0.003
812.46	-0.003
812.64	-0.002
812.81	-0.002
812.99	-0.002
813.17	-0.002
813.34	-0.001
813.52	-0.001
813.70	-0.001
813.87	-0.001
814.05	-0.001
814.23	-0.001
814.40	-0.001
814.58	-0.001
814.76	-0.001
814.93	-0.001
815.11	-0.001
815.29	-0.001
815.46	-0.001
815.64	-0.001
815.82	-0.001
815.99	-0.001
816.17	-0.001
816.35	0.000
816.52	-0.000
816.70	-0.000
816.88	-0.001
817.05	-0.001
817.23	-0.001
817.41	-0.002
817.58	-0.001
817.76	-0.001
817.94	-0.001
818.11	-0.001
818.29	-0.002
818.47	-0.002
818.64	-0.002
818.82	-0.001
818.99	-0.001
819.17	-0.000
819.35	-0.000
819.52	0.000
819.70	-0.001
819.88	-0.002
820.05	-0.002
820.23	-0.001
820.40	-0.001
820.58	-0.002
820.76	-0.002
820.93	-0.002
821.11	-0.004
821.29	-0.004
821.46	-0.004
821.64	-0.003
821.81	-0.003
821.99	-0.003
822.17	-0.003
822.34	-0.003
822.52	-0.003
822.69	-0.003
822.87	-0.003
823.05	-0.002
823.22	-0.002
823.40	-0.002
823.57	-0.002
823.75	-0.001
823.92	-0.001
824.10	-0.001
824.28	-0.001
824.45	0.000
824.63	0.001
824.80	0.000
824.98	0.000
825.16	0.001
825.33	0.000
825.51	-0.000
825.68	-0.001
825.86	-0.002
826.03	-0.003
826.21	-0.003
826.38	-0.003
826.56	-0.004
826.74	-0.005
826.91	-0.005
827.09	-0.006
827.26	-0.005
827.44	-0.005
827.61	-0.004
827.79	-0.002
827.96	-0.001
828.14	0.001
828.32	0.002
828.49	0.003
828.67	0.003
828.84	0.005
829.02	0.006
829.19	0.004
829.37	0.006
829.54	0.005
829.72	0.004
829.89	0.003
830.07	0.002
830.24	0.002
830.42	0.002
830.59	0.002
830.77	0.003
830.94	0.001
831.12	0.002
831.29	0.000
831.47	-0.001
831.64	-0.000
831.82	-0.001
831.99	0.000
832.17	0.000
832.34	-0.001
832.52	-0.000
832.69	-0.001
832.87	-0.000
833.04	-0.001
833.22	-0.004
833.39	-0.002
833.57	-0.002
833.74	-0.003
833.92	-0.003
834.09	-0.005
834.27	-0.006
834.44	-0.005
834.62	-0.005
834.79	-0.004
834.97	-0.004
835.14	-0.001
835.32	-0.001
835.49	-0.003
835.67	-0.002
835.84	0.001
836.02	0.002
836.19	0.004
836.36	0.002
836.54	-0.000
836.71	-0.002
836.89	-0.001
837.06	-0.001
837.24	-0.000
837.41	-0.001
837.59	-0.000
837.76	-0.002
837.94	-0.003
838.11	-0.005
838.28	-0.003
838.46	-0.002
838.63	0.001
838.81	0.003
838.98	0.004
839.16	0.003
839.33	0.003
839.50	0.006
839.68	0.003
839.85	0.001
840.03	0.002
840.20	0.001
840.38	-0.000
840.55	-0.002
840.72	-0.003
840.90	-0.003
841.07	-0.002
841.25	-0.001
841.42	-0.003
841.59	-0.003
841.77	0.001
841.94	0.001
842.12	0.001
842.29	0.003
842.46	0.005
842.64	0.003
842.81	0.002
842.99	0.004
843.16	0.002
843.33	0.003
843.51	0.004
843.68	0.001
843.86	0.000
844.03	0.001
844.20	0.002
844.38	-0.000
844.55	0.002
844.72	0.001
844.90	0.001
845.07	0.004
845.25	0.002
845.42	0.004
845.59	0.003
845.77	0.003
845.94	0.003
846.11	0.000
846.29	0.005
846.46	0.002
846.63	0.004
846.81	0.003
846.98	0.003
847.16	0.003
847.33	0.001
847.50	0.001
847.68	-0.000
847.85	-0.001
848.02	-0.002
848.20	-0.005
848.37	-0.004
848.54	-0.003
848.72	-0.000
848.89	-0.006
849.06	-0.004
849.24	-0.002
849.41	-0.000
849.58	0.001
849.76	0.002
849.93	0.006
850.10	0.006
850.27	0.008
850.45	0.006
850.62	0.004
850.79	0.009
850.97	0.005
851.14	0.005
851.31	0.002
851.49	0.002
851.66	0.001
851.83	-0.002
852.01	-0.004
852.18	-0.003
852.35	-0.003
852.52	-0.003
852.70	-0.004
852.87	-0.001
853.04	-0.002
853.22	0.001
853.39	0.001
853.56	0.001
853.73	0.004
853.91	0.003
854.08	0.001
854.25	-0.003
854.43	-0.002
854.60	-0.003
854.77	-0.002
854.94	-0.000
855.12	-0.003
855.29	-0.001
855.46	-0.001
855.63	-0.005
855.81	-0.004
855.98	-0.002
856.15	-0.001
856.32	-0.004
856.50	-0.008
856.67	-0.010
856.84	-0.014
857.01	-0.010
857.19	-0.016
857.36	-0.016
857.53	-0.015
857.70	-0.016
857.88	-0.015
858.05	-0.018
858.22	-0.014
858.39	-0.011
858.57	-0.009
858.74	-0.005
858.91	-0.006
859.08	-0.002
859.25	-0.003
859.43	-0.001
859.60	-0.004
859.77	-0.009
859.94	-0.010
860.12	-0.014
860.29	-0.013
860.46	-0.014
860.63	-0.016
860.80	-0.018
860.98	-0.020
861.15	-0.022
861.32	-0.024
861.49	-0.019
861.66	-0.015
861.84	-0.013
862.01	-0.008
862.18	-0.011
862.35	-0.008
862.52	-0.008
862.70	-0.007
862.87	-0.004
863.04	-0.002
863.21	-0.002
863.38	-0.004
863.55	-0.005
863.73	-0.002
863.90	-0.008
864.07	-0.008
864.24	-0.011
864.41	-0.014
864.58	-0.013
864.76	-0.013
864.93	-0.016
865.10	-0.015
865.27	-0.014
865.44	-0.011
865.61	-0.005
865.79	-0.001
865.96	0.003
866.13	0.003
866.30	0.005
866.47	0.001
866.64	-0.000
866.81	0.003
866.99	0.004
867.16	0.003
867.33	-0.002
867.50	-0.008
867.67	-0.010
867.84	-0.011
868.01	-0.008
868.19	-0.008
868.36	-0.007
868.53	-0.003
868.70	-0.009
868.87	-0.012
869.04	-0.014
869.21	-0.016
869.38	-0.019
869.55	-0.022
869.73	-0.021
869.90	-0.021
870.07	-0.019
870.24	-0.018
870.41	-0.021
870.58	-0.019
870.75	-0.021
870.92	-0.023
871.09	-0.018
871.27	-0.016
871.44	-0.013
871.61	-0.014
871.78	-0.016
871.95	-0.016
872.12	-0.016
872.29	-0.012
872.46	-0.008
872.63	-0.006
872.80	-0.004
872.97	-0.007
873.14	-0.008
873.32	-0.010
873.49	-0.009
873.66	-0.013
873.83	-0.014
874.00	-0.011
874.17	-0.013
874.34	-0.013
874.51	-0.008
874.68	-0.007
874.85	-0.005
875.02	0.000
875.19	0.001
875.36	-0.003
875.53	-0.000
875.70	-0.000
875.87	-0.008
876.04	-0.006
876.21	-0.000
876.39	-0.005
876.56	-0.002
876.73	-0.001
876.90	-0.006
877.07	-0.007
877.24	-0.003
877.41	0.003
877.58	0.002
877.75	0.005
877.92	0.001
878.09	-0.002
878.26	0.000
878.43	-0.004
878.60	-0.002
878.77	-0.007
878.94	-0.010
879.11	-0.006
879.28	-0.015
879.45	-0.015
879.62	-0.015
879.79	-0.014
879.96	-0.012
880.13	-0.010
880.30	-0.007
880.47	-0.012
880.64	-0.007
880.81	-0.008
880.98	-0.013
881.15	-0.002
881.32	0.000
881.49	0.003
881.66	0.003
881.83	-0.008
882.00	-0.006
882.17	-0.007
882.34	-0.001
882.51	-0.004
882.68	-0.007
882.85	-0.011
883.02	-0.015
883.19	-0.013
883.36	-0.015
883.53	-0.016
883.69	-0.012
883.86	-0.025
884.03	-0.029
884.20	-0.036
884.37	-0.037
884.54	-0.028
884.71	-0.027
884.88	-0.028
885.05	-0.033
885.22	-0.031
885.39	-0.027
885.56	-0.032
885.73	-0.022
885.90	-0.012
886.07	-0.006
886.24	-0.007
886.41	-0.004
886.58	-0.005
886.74	-0.003
886.91	0.001
887.08	-0.002
887.25	-0.003
887.42	-0.000
887.59	-0.011
887.76	-0.010
887.93	-0.018
888.10	-0.009
888.27	-0.010
888.44	0.000
888.61	-0.009
888.77	-0.009
888.94	-0.007
889.11	-0.009
889.28	-0.003
889.45	0.006
889.62	-0.008
889.79	-0.005
889.96	-0.007
890.13	-0.008
890.29	-0.016
890.46	-0.018
890.63	-0.025
890.80	-0.023
890.97	-0.024
891.14	-0.028
891.31	-0.026
891.48	-0.014
891.65	-0.013
891.81	-0.022
891.98	-0.024
892.15	-0.017
892.32	-0.009
892.49	-0.006
892.66	0.003
892.83	0.011
892.99	0.011
893.16	0.009
893.33	-0.000
893.50	0.003
893.67	0.004
893.84	0.002
894.01	0.009
894.17	0.006
894.34	0.012
894.51	0.006
894.68	0.002
894.85	0.008
895.02	0.011
895.18	0.019
895.35	0.014
895.52	0.015
895.69	0.028
895.86	0.016
896.03	0.025
896.19	0.019
896.36	0.016
896.53	0.004
896.70	-0.001
896.87	-0.002
897.03	-0.015
897.20	-0.017
897.37	-0.011
897.54	-0.020
897.71	-0.023
897.87	-0.039
898.04	-0.037
898.21	-0.036
898.38	-0.022
898.55	-0.026
898.71	-0.027
898.88	-0.012
899.05	-0.003
899.22	-0.011
899.39	-0.009
899.55	-0.007
899.72	0.001
899.89	0.003
900.06	0.009
900.23	-0.006
900.39	-0.006
900.56	-0.011
900.73	-0.016
900.90	-0.018
901.06	-0.016
901.23	-0.013
901.40	-0.007
901.57	0.000
901.73	-0.004
901.90	-0.014
902.07	-0.002
902.24	0.005
902.40	0.016
902.57	0.029
902.74	0.026
902.91	0.035
903.07	0.037
903.24	0.047
903.41	0.047
903.58	0.036
903.74	0.038
903.91	0.022
904.08	0.024
904.25	0.024
904.41	0.002
904.58	0.002
904.75	0.002
904.92	-0.004
905.08	-0.013
905.25	-0.031
905.42	-0.021
905.58	-0.013
905.75	-0.002
905.92	0.038
906.09	-0.105
906.25	-0.013
906.42	0.056
906.59	-0.023
>>>>>End Processed Spectral Data<<<<<
