SpectraSuite Data File
++++++++++++++++++++++++++++++++++++
Date: Mon Jul 27 09:19:19 PDT 2015
User: HawkinsLab
Dark Spectrum Present: Yes
Reference Spectrum Present: Yes
Number of Sampled Component Spectra: 1
Spectrometers: USB4H04298
Integration Time (usec): 16229 (USB4H04298)
Spectra Averaged: 10 (USB4H04298)
Boxcar Smoothing: 5 (USB4H04298)
Correct for Electrical Dark: Yes (USB4H04298)
Strobe/Lamp Enabled: No (USB4H04298)
Correct for Detector Non-linearity: Yes (USB4H04298)
Correct for Stray Light: Yes (USB4H04298)
Number of Pixels in Processed Spectrum: 3648
>>>>>Begin Processed Spectral Data<<<<<
195.57	-0.351
195.79	-0.351
196.00	-0.351
196.22	-0.503
196.44	0.055
196.65	-0.594
196.87	-0.013
197.09	-0.213
197.30	-0.613
197.52	-0.724
197.73	-0.667
197.95	-0.495
198.17	-0.261
198.38	-0.235
198.60	-0.199
198.81	-0.106
199.03	-0.072
199.25	-0.058
199.46	-0.030
199.68	0.001
199.89	0.013
200.11	0.029
200.33	0.023
200.54	0.010
200.76	0.014
200.97	0.021
201.19	0.025
201.41	0.034
201.62	0.023
201.84	0.023
202.05	0.008
202.27	0.012
202.49	0.021
202.70	0.026
202.92	0.034
203.13	0.044
203.35	0.054
203.57	0.051
203.78	0.039
204.00	0.049
204.21	0.063
204.43	0.067
204.64	0.053
204.86	0.040
205.08	0.035
205.29	0.027
205.51	0.007
205.72	-0.015
205.94	-0.030
206.16	-0.014
206.37	-0.019
206.59	-0.025
206.80	-0.009
207.02	-0.019
207.23	-0.012
207.45	-0.021
207.67	-0.007
207.88	-0.015
208.10	-0.004
208.31	0.005
208.53	0.011
208.74	0.015
208.96	0.007
209.18	-0.004
209.39	0.014
209.61	0.005
209.82	0.024
210.04	0.005
210.25	0.016
210.47	0.018
210.69	0.016
210.90	0.009
211.12	-0.000
211.33	0.012
211.55	0.013
211.76	0.009
211.98	0.014
212.19	0.003
212.41	0.016
212.63	0.024
212.84	0.019
213.06	0.022
213.27	0.016
213.49	0.020
213.70	0.023
213.92	0.031
214.13	0.022
214.35	0.026
214.56	0.036
214.78	0.037
215.00	0.031
215.21	0.040
215.43	0.047
215.64	0.043
215.86	0.046
216.07	0.048
216.29	0.054
216.50	0.069
216.72	0.072
216.93	0.066
217.15	0.073
217.37	0.067
217.58	0.064
217.80	0.061
218.01	0.060
218.23	0.059
218.44	0.051
218.66	0.043
218.87	0.046
219.09	0.041
219.30	0.043
219.52	0.038
219.73	0.042
219.95	0.051
220.16	0.048
220.38	0.053
220.59	0.055
220.81	0.053
221.03	0.057
221.24	0.057
221.46	0.058
221.67	0.059
221.89	0.054
222.10	0.061
222.32	0.059
222.53	0.066
222.75	0.064
222.96	0.072
223.18	0.072
223.39	0.072
223.61	0.073
223.82	0.081
224.04	0.081
224.25	0.082
224.47	0.081
224.68	0.079
224.90	0.080
225.11	0.082
225.33	0.079
225.54	0.081
225.76	0.085
225.97	0.087
226.19	0.085
226.40	0.088
226.62	0.090
226.83	0.089
227.05	0.089
227.26	0.084
227.48	0.085
227.69	0.083
227.91	0.083
228.12	0.083
228.34	0.081
228.55	0.080
228.77	0.078
228.98	0.079
229.20	0.080
229.41	0.080
229.63	0.080
229.84	0.083
230.06	0.086
230.27	0.086
230.49	0.084
230.70	0.086
230.92	0.087
231.13	0.089
231.35	0.090
231.56	0.090
231.78	0.091
231.99	0.092
232.21	0.088
232.42	0.086
232.64	0.084
232.85	0.081
233.06	0.080
233.28	0.077
233.49	0.074
233.71	0.073
233.92	0.072
234.14	0.072
234.35	0.073
234.57	0.075
234.78	0.073
235.00	0.073
235.21	0.072
235.43	0.073
235.64	0.074
235.86	0.074
236.07	0.072
236.29	0.070
236.50	0.069
236.71	0.067
236.93	0.065
237.14	0.065
237.36	0.066
237.57	0.067
237.79	0.066
238.00	0.065
238.22	0.065
238.43	0.065
238.65	0.066
238.86	0.065
239.07	0.064
239.29	0.064
239.50	0.064
239.72	0.063
239.93	0.061
240.15	0.058
240.36	0.058
240.58	0.057
240.79	0.056
241.00	0.056
241.22	0.056
241.43	0.055
241.65	0.054
241.86	0.053
242.08	0.052
242.29	0.053
242.51	0.054
242.72	0.053
242.93	0.053
243.15	0.052
243.36	0.052
243.58	0.051
243.79	0.051
244.01	0.052
244.22	0.050
244.43	0.050
244.65	0.049
244.86	0.048
245.08	0.048
245.29	0.049
245.51	0.049
245.72	0.049
245.93	0.050
246.15	0.050
246.36	0.048
246.58	0.049
246.79	0.049
247.01	0.050
247.22	0.049
247.43	0.049
247.65	0.050
247.86	0.049
248.08	0.048
248.29	0.047
248.50	0.047
248.72	0.048
248.93	0.048
249.15	0.047
249.36	0.047
249.58	0.047
249.79	0.048
250.00	0.047
250.22	0.047
250.43	0.046
250.65	0.046
250.86	0.045
251.07	0.045
251.29	0.045
251.50	0.044
251.72	0.045
251.93	0.045
252.14	0.044
252.36	0.044
252.57	0.044
252.79	0.045
253.00	0.044
253.21	0.044
253.43	0.045
253.64	0.044
253.86	0.045
254.07	0.044
254.28	0.044
254.50	0.043
254.71	0.043
254.92	0.042
255.14	0.042
255.35	0.043
255.57	0.043
255.78	0.042
255.99	0.043
256.21	0.043
256.42	0.043
256.64	0.044
256.85	0.045
257.06	0.046
257.28	0.045
257.49	0.046
257.70	0.045
257.92	0.045
258.13	0.045
258.35	0.045
258.56	0.045
258.77	0.045
258.99	0.045
259.20	0.044
259.41	0.043
259.63	0.044
259.84	0.044
260.06	0.043
260.27	0.043
260.48	0.043
260.70	0.043
260.91	0.043
261.12	0.043
261.34	0.043
261.55	0.043
261.76	0.044
261.98	0.044
262.19	0.044
262.40	0.044
262.62	0.044
262.83	0.044
263.05	0.045
263.26	0.044
263.47	0.044
263.69	0.044
263.90	0.044
264.11	0.044
264.33	0.043
264.54	0.043
264.75	0.043
264.97	0.043
265.18	0.042
265.39	0.042
265.61	0.042
265.82	0.042
266.03	0.042
266.25	0.042
266.46	0.042
266.67	0.042
266.89	0.042
267.10	0.041
267.31	0.042
267.53	0.043
267.74	0.043
267.95	0.042
268.17	0.042
268.38	0.042
268.59	0.042
268.81	0.042
269.02	0.042
269.23	0.042
269.45	0.042
269.66	0.042
269.87	0.041
270.09	0.041
270.30	0.041
270.51	0.041
270.73	0.040
270.94	0.041
271.15	0.040
271.37	0.040
271.58	0.040
271.79	0.040
272.01	0.041
272.22	0.040
272.43	0.040
272.65	0.040
272.86	0.040
273.07	0.041
273.28	0.041
273.50	0.041
273.71	0.042
273.92	0.042
274.14	0.042
274.35	0.042
274.56	0.042
274.78	0.043
274.99	0.042
275.20	0.041
275.42	0.041
275.63	0.041
275.84	0.040
276.05	0.040
276.27	0.039
276.48	0.038
276.69	0.039
276.91	0.038
277.12	0.038
277.33	0.038
277.54	0.038
277.76	0.039
277.97	0.039
278.18	0.038
278.40	0.039
278.61	0.039
278.82	0.039
279.04	0.040
279.25	0.040
279.46	0.040
279.67	0.040
279.89	0.040
280.10	0.039
280.31	0.039
280.52	0.040
280.74	0.039
280.95	0.039
281.16	0.039
281.38	0.039
281.59	0.038
281.80	0.038
282.01	0.038
282.23	0.038
282.44	0.038
282.65	0.038
282.87	0.038
283.08	0.038
283.29	0.038
283.50	0.038
283.72	0.038
283.93	0.039
284.14	0.039
284.35	0.040
284.57	0.039
284.78	0.040
284.99	0.039
285.20	0.039
285.42	0.039
285.63	0.039
285.84	0.038
286.05	0.038
286.27	0.038
286.48	0.038
286.69	0.038
286.90	0.038
287.12	0.037
287.33	0.037
287.54	0.037
287.75	0.037
287.97	0.037
288.18	0.037
288.39	0.037
288.60	0.038
288.82	0.037
289.03	0.037
289.24	0.037
289.45	0.037
289.67	0.037
289.88	0.037
290.09	0.037
290.30	0.036
290.52	0.036
290.73	0.036
290.94	0.036
291.15	0.036
291.37	0.036
291.58	0.036
291.79	0.036
292.00	0.036
292.21	0.036
292.43	0.036
292.64	0.037
292.85	0.037
293.06	0.037
293.28	0.037
293.49	0.037
293.70	0.037
293.91	0.037
294.12	0.037
294.34	0.037
294.55	0.037
294.76	0.036
294.97	0.036
295.19	0.035
295.40	0.035
295.61	0.034
295.82	0.034
296.03	0.034
296.25	0.034
296.46	0.034
296.67	0.034
296.88	0.034
297.09	0.034
297.31	0.035
297.52	0.035
297.73	0.035
297.94	0.035
298.15	0.036
298.37	0.036
298.58	0.036
298.79	0.036
299.00	0.036
299.21	0.035
299.43	0.035
299.64	0.035
299.85	0.035
300.06	0.035
300.27	0.035
300.49	0.034
300.70	0.034
300.91	0.035
301.12	0.035
301.33	0.035
301.55	0.035
301.76	0.035
301.97	0.034
302.18	0.035
302.39	0.035
302.61	0.035
302.82	0.035
303.03	0.035
303.24	0.035
303.45	0.034
303.66	0.035
303.88	0.035
304.09	0.035
304.30	0.035
304.51	0.035
304.72	0.035
304.93	0.035
305.15	0.035
305.36	0.034
305.57	0.034
305.78	0.034
305.99	0.034
306.20	0.034
306.42	0.034
306.63	0.034
306.84	0.034
307.05	0.034
307.26	0.033
307.47	0.034
307.69	0.034
307.90	0.034
308.11	0.033
308.32	0.033
308.53	0.033
308.74	0.033
308.96	0.033
309.17	0.032
309.38	0.032
309.59	0.032
309.80	0.032
310.01	0.032
310.22	0.032
310.44	0.032
310.65	0.032
310.86	0.031
311.07	0.031
311.28	0.031
311.49	0.032
311.70	0.032
311.92	0.032
312.13	0.031
312.34	0.031
312.55	0.032
312.76	0.032
312.97	0.031
313.18	0.032
313.40	0.032
313.61	0.032
313.82	0.032
314.03	0.032
314.24	0.032
314.45	0.032
314.66	0.032
314.87	0.032
315.09	0.032
315.30	0.032
315.51	0.032
315.72	0.032
315.93	0.032
316.14	0.032
316.35	0.032
316.56	0.032
316.78	0.032
316.99	0.032
317.20	0.032
317.41	0.032
317.62	0.032
317.83	0.032
318.04	0.032
318.25	0.032
318.46	0.032
318.68	0.032
318.89	0.032
319.10	0.031
319.31	0.031
319.52	0.031
319.73	0.031
319.94	0.031
320.15	0.031
320.36	0.031
320.58	0.031
320.79	0.031
321.00	0.030
321.21	0.030
321.42	0.030
321.63	0.030
321.84	0.031
322.05	0.031
322.26	0.031
322.47	0.031
322.69	0.030
322.90	0.030
323.11	0.030
323.32	0.030
323.53	0.031
323.74	0.031
323.95	0.031
324.16	0.031
324.37	0.030
324.58	0.030
324.79	0.030
325.00	0.030
325.22	0.030
325.43	0.030
325.64	0.030
325.85	0.030
326.06	0.029
326.27	0.029
326.48	0.029
326.69	0.030
326.90	0.030
327.11	0.030
327.32	0.030
327.53	0.030
327.74	0.030
327.95	0.031
328.17	0.031
328.38	0.031
328.59	0.032
328.80	0.031
329.01	0.032
329.22	0.031
329.43	0.031
329.64	0.031
329.85	0.031
330.06	0.031
330.27	0.031
330.48	0.030
330.69	0.030
330.90	0.030
331.11	0.030
331.32	0.030
331.53	0.030
331.75	0.030
331.96	0.030
332.17	0.030
332.38	0.030
332.59	0.030
332.80	0.030
333.01	0.030
333.22	0.030
333.43	0.030
333.64	0.030
333.85	0.030
334.06	0.030
334.27	0.030
334.48	0.030
334.69	0.030
334.90	0.030
335.11	0.030
335.32	0.030
335.53	0.030
335.74	0.030
335.95	0.030
336.16	0.030
336.37	0.030
336.58	0.030
336.79	0.029
337.00	0.029
337.21	0.030
337.42	0.030
337.63	0.030
337.84	0.030
338.06	0.030
338.27	0.030
338.48	0.030
338.69	0.030
338.90	0.030
339.11	0.030
339.32	0.030
339.53	0.029
339.74	0.029
339.95	0.029
340.16	0.029
340.37	0.029
340.58	0.029
340.79	0.029
341.00	0.029
341.21	0.029
341.42	0.029
341.63	0.029
341.84	0.030
342.05	0.030
342.26	0.030
342.47	0.029
342.68	0.029
342.89	0.029
343.10	0.029
343.31	0.029
343.52	0.029
343.73	0.029
343.94	0.029
344.15	0.028
344.36	0.028
344.57	0.028
344.78	0.029
344.99	0.029
345.20	0.029
345.41	0.029
345.62	0.029
345.83	0.028
346.04	0.029
346.24	0.029
346.45	0.029
346.66	0.029
346.87	0.028
347.08	0.028
347.29	0.028
347.50	0.028
347.71	0.028
347.92	0.028
348.13	0.028
348.34	0.028
348.55	0.028
348.76	0.028
348.97	0.028
349.18	0.028
349.39	0.028
349.60	0.028
349.81	0.028
350.02	0.028
350.23	0.029
350.44	0.028
350.65	0.028
350.86	0.028
351.07	0.028
351.28	0.029
351.49	0.028
351.70	0.028
351.91	0.028
352.12	0.028
352.32	0.028
352.53	0.028
352.74	0.028
352.95	0.028
353.16	0.028
353.37	0.029
353.58	0.028
353.79	0.028
354.00	0.028
354.21	0.028
354.42	0.028
354.63	0.028
354.84	0.028
355.05	0.028
355.26	0.028
355.47	0.028
355.68	0.028
355.88	0.028
356.09	0.028
356.30	0.028
356.51	0.028
356.72	0.028
356.93	0.028
357.14	0.028
357.35	0.028
357.56	0.028
357.77	0.028
357.98	0.028
358.19	0.028
358.40	0.028
358.61	0.028
358.81	0.028
359.02	0.028
359.23	0.027
359.44	0.028
359.65	0.027
359.86	0.027
360.07	0.027
360.28	0.027
360.49	0.028
360.70	0.028
360.91	0.027
361.11	0.028
361.32	0.027
361.53	0.027
361.74	0.027
361.95	0.027
362.16	0.027
362.37	0.027
362.58	0.027
362.79	0.027
363.00	0.027
363.20	0.027
363.41	0.027
363.62	0.026
363.83	0.026
364.04	0.026
364.25	0.026
364.46	0.026
364.67	0.026
364.88	0.025
365.09	0.026
365.29	0.025
365.50	0.025
365.71	0.025
365.92	0.025
366.13	0.025
366.34	0.025
366.55	0.025
366.76	0.024
366.96	0.024
367.17	0.024
367.38	0.024
367.59	0.025
367.80	0.025
368.01	0.025
368.22	0.025
368.43	0.025
368.63	0.025
368.84	0.025
369.05	0.025
369.26	0.025
369.47	0.026
369.68	0.026
369.89	0.026
370.10	0.026
370.30	0.026
370.51	0.026
370.72	0.026
370.93	0.026
371.14	0.027
371.35	0.027
371.56	0.027
371.76	0.027
371.97	0.027
372.18	0.027
372.39	0.027
372.60	0.026
372.81	0.026
373.01	0.026
373.22	0.026
373.43	0.026
373.64	0.026
373.85	0.026
374.06	0.026
374.27	0.025
374.47	0.025
374.68	0.025
374.89	0.025
375.10	0.025
375.31	0.025
375.52	0.024
375.72	0.024
375.93	0.023
376.14	0.023
376.35	0.023
376.56	0.023
376.77	0.022
376.97	0.022
377.18	0.021
377.39	0.021
377.60	0.021
377.81	0.021
378.02	0.020
378.22	0.020
378.43	0.020
378.64	0.020
378.85	0.020
379.06	0.019
379.26	0.019
379.47	0.019
379.68	0.019
379.89	0.019
380.10	0.019
380.31	0.019
380.51	0.019
380.72	0.020
380.93	0.020
381.14	0.020
381.35	0.020
381.55	0.020
381.76	0.020
381.97	0.021
382.18	0.021
382.39	0.021
382.59	0.021
382.80	0.021
383.01	0.021
383.22	0.021
383.43	0.021
383.63	0.022
383.84	0.022
384.05	0.022
384.26	0.022
384.47	0.022
384.67	0.022
384.88	0.022
385.09	0.022
385.30	0.022
385.50	0.022
385.71	0.022
385.92	0.022
386.13	0.022
386.34	0.021
386.54	0.021
386.75	0.021
386.96	0.021
387.17	0.021
387.37	0.021
387.58	0.021
387.79	0.021
388.00	0.021
388.21	0.021
388.41	0.021
388.62	0.021
388.83	0.021
389.04	0.021
389.24	0.020
389.45	0.020
389.66	0.020
389.87	0.019
390.07	0.019
390.28	0.019
390.49	0.019
390.70	0.018
390.90	0.018
391.11	0.018
391.32	0.017
391.53	0.017
391.73	0.017
391.94	0.016
392.15	0.016
392.36	0.016
392.56	0.016
392.77	0.016
392.98	0.016
393.19	0.016
393.39	0.016
393.60	0.016
393.81	0.016
394.02	0.017
394.22	0.017
394.43	0.017
394.64	0.017
394.85	0.017
395.05	0.017
395.26	0.017
395.47	0.017
395.68	0.017
395.88	0.017
396.09	0.017
396.30	0.016
396.51	0.015
396.71	0.015
396.92	0.015
397.13	0.015
397.33	0.014
397.54	0.014
397.75	0.013
397.96	0.013
398.16	0.013
398.37	0.013
398.58	0.013
398.78	0.013
398.99	0.013
399.20	0.013
399.41	0.013
399.61	0.013
399.82	0.013
400.03	0.014
400.23	0.014
400.44	0.015
400.65	0.015
400.86	0.016
401.06	0.016
401.27	0.016
401.48	0.017
401.68	0.017
401.89	0.018
402.10	0.018
402.30	0.018
402.51	0.017
402.72	0.017
402.93	0.018
403.13	0.018
403.34	0.018
403.55	0.018
403.75	0.017
403.96	0.017
404.17	0.017
404.37	0.017
404.58	0.018
404.79	0.018
404.99	0.018
405.20	0.018
405.41	0.018
405.61	0.018
405.82	0.018
406.03	0.018
406.23	0.018
406.44	0.018
406.65	0.018
406.86	0.018
407.06	0.018
407.27	0.018
407.48	0.018
407.68	0.019
407.89	0.019
408.10	0.019
408.30	0.019
408.51	0.019
408.72	0.019
408.92	0.019
409.13	0.019
409.34	0.019
409.54	0.019
409.75	0.019
409.95	0.019
410.16	0.019
410.37	0.019
410.57	0.019
410.78	0.019
410.99	0.019
411.19	0.019
411.40	0.019
411.61	0.019
411.81	0.019
412.02	0.019
412.23	0.018
412.43	0.018
412.64	0.018
412.85	0.018
413.05	0.018
413.26	0.019
413.46	0.019
413.67	0.019
413.88	0.018
414.08	0.019
414.29	0.019
414.50	0.019
414.70	0.019
414.91	0.019
415.12	0.019
415.32	0.019
415.53	0.019
415.73	0.018
415.94	0.019
416.15	0.019
416.35	0.019
416.56	0.019
416.77	0.019
416.97	0.019
417.18	0.019
417.38	0.018
417.59	0.018
417.80	0.018
418.00	0.018
418.21	0.017
418.41	0.017
418.62	0.016
418.83	0.016
419.03	0.016
419.24	0.015
419.44	0.015
419.65	0.014
419.86	0.014
420.06	0.013
420.27	0.013
420.48	0.013
420.68	0.012
420.89	0.012
421.09	0.012
421.30	0.011
421.50	0.011
421.71	0.011
421.92	0.011
422.12	0.011
422.33	0.011
422.53	0.010
422.74	0.010
422.95	0.010
423.15	0.011
423.36	0.011
423.56	0.011
423.77	0.011
423.98	0.012
424.18	0.012
424.39	0.013
424.59	0.013
424.80	0.013
425.00	0.014
425.21	0.014
425.42	0.014
425.62	0.014
425.83	0.014
426.03	0.014
426.24	0.014
426.44	0.014
426.65	0.014
426.86	0.014
427.06	0.013
427.27	0.013
427.47	0.013
427.68	0.012
427.88	0.012
428.09	0.011
428.29	0.011
428.50	0.010
428.71	0.009
428.91	0.009
429.12	0.008
429.32	0.008
429.53	0.008
429.73	0.007
429.94	0.007
430.14	0.007
430.35	0.007
430.56	0.007
430.76	0.008
430.97	0.008
431.17	0.008
431.38	0.009
431.58	0.009
431.79	0.010
431.99	0.010
432.20	0.010
432.40	0.011
432.61	0.012
432.81	0.012
433.02	0.012
433.23	0.013
433.43	0.013
433.64	0.013
433.84	0.013
434.05	0.013
434.25	0.013
434.46	0.013
434.66	0.013
434.87	0.013
435.07	0.013
435.28	0.013
435.48	0.012
435.69	0.012
435.89	0.012
436.10	0.012
436.30	0.011
436.51	0.011
436.71	0.010
436.92	0.010
437.12	0.010
437.33	0.010
437.53	0.010
437.74	0.010
437.94	0.010
438.15	0.010
438.35	0.010
438.56	0.010
438.76	0.011
438.97	0.011
439.17	0.011
439.38	0.011
439.58	0.010
439.79	0.010
439.99	0.010
440.20	0.010
440.40	0.010
440.61	0.009
440.81	0.009
441.02	0.008
441.22	0.008
441.43	0.008
441.63	0.007
441.84	0.007
442.04	0.007
442.25	0.007
442.45	0.006
442.66	0.006
442.86	0.006
443.07	0.005
443.27	0.005
443.48	0.005
443.68	0.004
443.89	0.004
444.09	0.004
444.29	0.003
444.50	0.003
444.70	0.003
444.91	0.003
445.11	0.003
445.32	0.003
445.52	0.003
445.73	0.003
445.93	0.003
446.14	0.003
446.34	0.003
446.55	0.003
446.75	0.003
446.95	0.002
447.16	0.002
447.36	0.002
447.57	0.002
447.77	0.001
447.98	0.001
448.18	0.001
448.39	0.001
448.59	0.001
448.79	0.001
449.00	0.001
449.20	0.001
449.41	0.002
449.61	0.002
449.82	0.002
450.02	0.002
450.23	0.002
450.43	0.002
450.63	0.002
450.84	0.002
451.04	0.002
451.25	0.003
451.45	0.003
451.66	0.003
451.86	0.003
452.06	0.003
452.27	0.004
452.47	0.004
452.68	0.004
452.88	0.004
453.08	0.005
453.29	0.005
453.49	0.005
453.70	0.005
453.90	0.006
454.11	0.006
454.31	0.006
454.51	0.006
454.72	0.006
454.92	0.007
455.13	0.007
455.33	0.007
455.53	0.007
455.74	0.007
455.94	0.007
456.15	0.007
456.35	0.007
456.55	0.007
456.76	0.007
456.96	0.007
457.17	0.007
457.37	0.007
457.57	0.007
457.78	0.007
457.98	0.007
458.19	0.007
458.39	0.007
458.59	0.007
458.80	0.007
459.00	0.007
459.21	0.007
459.41	0.007
459.61	0.008
459.82	0.008
460.02	0.008
460.22	0.008
460.43	0.008
460.63	0.009
460.84	0.009
461.04	0.009
461.24	0.009
461.45	0.009
461.65	0.009
461.85	0.010
462.06	0.010
462.26	0.010
462.46	0.010
462.67	0.010
462.87	0.010
463.08	0.010
463.28	0.010
463.48	0.010
463.69	0.009
463.89	0.009
464.09	0.009
464.30	0.009
464.50	0.009
464.70	0.009
464.91	0.008
465.11	0.008
465.31	0.008
465.52	0.008
465.72	0.008
465.93	0.008
466.13	0.008
466.33	0.008
466.54	0.008
466.74	0.008
466.94	0.008
467.15	0.009
467.35	0.009
467.55	0.009
467.76	0.010
467.96	0.010
468.16	0.010
468.37	0.011
468.57	0.012
468.77	0.012
468.98	0.013
469.18	0.013
469.38	0.013
469.59	0.014
469.79	0.014
469.99	0.014
470.19	0.014
470.40	0.014
470.60	0.014
470.80	0.014
471.01	0.014
471.21	0.014
471.41	0.014
471.62	0.014
471.82	0.014
472.02	0.013
472.23	0.013
472.43	0.013
472.63	0.013
472.84	0.012
473.04	0.012
473.24	0.011
473.44	0.011
473.65	0.011
473.85	0.010
474.05	0.010
474.26	0.010
474.46	0.009
474.66	0.009
474.86	0.009
475.07	0.008
475.27	0.008
475.47	0.008
475.68	0.008
475.88	0.008
476.08	0.008
476.28	0.008
476.49	0.008
476.69	0.009
476.89	0.009
477.10	0.009
477.30	0.009
477.50	0.010
477.70	0.010
477.91	0.010
478.11	0.010
478.31	0.010
478.52	0.010
478.72	0.010
478.92	0.009
479.12	0.009
479.33	0.009
479.53	0.008
479.73	0.008
479.93	0.008
480.14	0.008
480.34	0.008
480.54	0.008
480.74	0.008
480.95	0.007
481.15	0.007
481.35	0.007
481.55	0.007
481.76	0.007
481.96	0.007
482.16	0.006
482.36	0.006
482.57	0.005
482.77	0.005
482.97	0.004
483.17	0.004
483.38	0.003
483.58	0.003
483.78	0.003
483.98	0.002
484.19	0.002
484.39	0.001
484.59	0.001
484.79	0.001
485.00	0.001
485.20	0.000
485.40	0.000
485.60	0.000
485.80	-0.000
486.01	-0.000
486.21	0.000
486.41	0.000
486.61	0.000
486.82	0.001
487.02	0.001
487.22	0.001
487.42	0.001
487.62	0.001
487.83	0.002
488.03	0.002
488.23	0.003
488.43	0.003
488.64	0.003
488.84	0.004
489.04	0.004
489.24	0.004
489.44	0.004
489.65	0.005
489.85	0.005
490.05	0.005
490.25	0.005
490.45	0.005
490.66	0.006
490.86	0.006
491.06	0.006
491.26	0.006
491.46	0.006
491.67	0.006
491.87	0.006
492.07	0.006
492.27	0.005
492.47	0.005
492.67	0.005
492.88	0.004
493.08	0.004
493.28	0.004
493.48	0.003
493.68	0.003
493.89	0.003
494.09	0.003
494.29	0.002
494.49	0.002
494.69	0.002
494.89	0.002
495.10	0.002
495.30	0.002
495.50	0.002
495.70	0.002
495.90	0.001
496.10	0.001
496.31	0.001
496.51	0.001
496.71	0.001
496.91	0.001
497.11	0.001
497.31	0.002
497.52	0.002
497.72	0.002
497.92	0.002
498.12	0.003
498.32	0.003
498.52	0.003
498.72	0.003
498.93	0.003
499.13	0.003
499.33	0.003
499.53	0.003
499.73	0.003
499.93	0.003
500.13	0.003
500.34	0.002
500.54	0.002
500.74	0.001
500.94	0.001
501.14	0.001
501.34	0.001
501.54	0.001
501.75	0.001
501.95	0.000
502.15	-0.000
502.35	-0.000
502.55	-0.000
502.75	-0.000
502.95	-0.000
503.15	-0.000
503.36	-0.000
503.56	-0.000
503.76	-0.000
503.96	-0.000
504.16	0.000
504.36	0.000
504.56	0.000
504.76	0.000
504.96	0.001
505.17	0.000
505.37	0.001
505.57	0.001
505.77	0.001
505.97	0.001
506.17	0.001
506.37	0.002
506.57	0.002
506.77	0.002
506.97	0.002
507.18	0.003
507.38	0.003
507.58	0.003
507.78	0.004
507.98	0.004
508.18	0.004
508.38	0.003
508.58	0.003
508.78	0.003
508.98	0.003
509.18	0.003
509.39	0.003
509.59	0.003
509.79	0.003
509.99	0.003
510.19	0.003
510.39	0.003
510.59	0.003
510.79	0.003
510.99	0.002
511.19	0.003
511.39	0.003
511.59	0.003
511.79	0.003
512.00	0.003
512.20	0.002
512.40	0.002
512.60	0.002
512.80	0.003
513.00	0.003
513.20	0.003
513.40	0.003
513.60	0.003
513.80	0.003
514.00	0.004
514.20	0.004
514.40	0.004
514.60	0.004
514.80	0.004
515.00	0.004
515.20	0.004
515.40	0.004
515.60	0.004
515.81	0.004
516.01	0.004
516.21	0.004
516.41	0.004
516.61	0.004
516.81	0.004
517.01	0.004
517.21	0.004
517.41	0.004
517.61	0.004
517.81	0.004
518.01	0.004
518.21	0.004
518.41	0.005
518.61	0.005
518.81	0.005
519.01	0.005
519.21	0.005
519.41	0.005
519.61	0.005
519.81	0.005
520.01	0.006
520.21	0.006
520.41	0.006
520.61	0.006
520.81	0.006
521.01	0.006
521.21	0.006
521.41	0.006
521.61	0.006
521.81	0.006
522.01	0.005
522.21	0.005
522.41	0.005
522.61	0.005
522.81	0.005
523.01	0.005
523.21	0.005
523.41	0.005
523.61	0.005
523.81	0.005
524.01	0.006
524.21	0.006
524.41	0.006
524.61	0.006
524.81	0.006
525.01	0.006
525.21	0.006
525.41	0.006
525.61	0.006
525.81	0.006
526.01	0.006
526.21	0.005
526.41	0.006
526.61	0.005
526.81	0.006
527.01	0.005
527.21	0.005
527.41	0.005
527.61	0.006
527.81	0.005
528.01	0.005
528.21	0.005
528.41	0.005
528.61	0.005
528.81	0.004
529.01	0.004
529.20	0.004
529.40	0.004
529.60	0.004
529.80	0.004
530.00	0.004
530.20	0.004
530.40	0.004
530.60	0.004
530.80	0.003
531.00	0.003
531.20	0.003
531.40	0.003
531.60	0.003
531.80	0.003
532.00	0.003
532.20	0.002
532.40	0.002
532.60	0.002
532.80	0.002
532.99	0.002
533.19	0.002
533.39	0.002
533.59	0.002
533.79	0.002
533.99	0.002
534.19	0.002
534.39	0.002
534.59	0.001
534.79	0.001
534.99	0.001
535.19	0.001
535.39	0.001
535.58	0.001
535.78	0.001
535.98	0.001
536.18	0.001
536.38	0.001
536.58	0.001
536.78	0.000
536.98	0.000
537.18	-0.000
537.38	-0.000
537.58	-0.001
537.77	-0.001
537.97	-0.002
538.17	-0.002
538.37	-0.002
538.57	-0.002
538.77	-0.002
538.97	-0.002
539.17	-0.002
539.37	-0.003
539.57	-0.002
539.76	-0.002
539.96	-0.002
540.16	-0.002
540.36	-0.002
540.56	-0.002
540.76	-0.003
540.96	-0.002
541.16	-0.002
541.35	-0.002
541.55	-0.002
541.75	-0.002
541.95	-0.002
542.15	-0.002
542.35	-0.002
542.55	-0.002
542.75	-0.002
542.94	-0.002
543.14	-0.002
543.34	-0.002
543.54	-0.002
543.74	-0.002
543.94	-0.002
544.14	-0.002
544.33	-0.002
544.53	-0.002
544.73	-0.003
544.93	-0.003
545.13	-0.003
545.33	-0.003
545.53	-0.004
545.72	-0.004
545.92	-0.004
546.12	-0.004
546.32	-0.004
546.52	-0.004
546.72	-0.004
546.92	-0.005
547.11	-0.004
547.31	-0.004
547.51	-0.004
547.71	-0.004
547.91	-0.004
548.11	-0.004
548.30	-0.004
548.50	-0.003
548.70	-0.003
548.90	-0.003
549.10	-0.003
549.30	-0.003
549.49	-0.003
549.69	-0.003
549.89	-0.003
550.09	-0.003
550.29	-0.003
550.48	-0.003
550.68	-0.003
550.88	-0.003
551.08	-0.003
551.28	-0.004
551.48	-0.004
551.67	-0.004
551.87	-0.004
552.07	-0.004
552.27	-0.005
552.47	-0.005
552.66	-0.005
552.86	-0.005
553.06	-0.005
553.26	-0.005
553.46	-0.006
553.65	-0.005
553.85	-0.005
554.05	-0.005
554.25	-0.006
554.45	-0.006
554.64	-0.006
554.84	-0.005
555.04	-0.005
555.24	-0.005
555.44	-0.005
555.63	-0.005
555.83	-0.005
556.03	-0.004
556.23	-0.004
556.42	-0.004
556.62	-0.004
556.82	-0.004
557.02	-0.004
557.22	-0.003
557.41	-0.003
557.61	-0.004
557.81	-0.004
558.01	-0.003
558.20	-0.004
558.40	-0.004
558.60	-0.004
558.80	-0.004
558.99	-0.004
559.19	-0.004
559.39	-0.004
559.59	-0.005
559.78	-0.005
559.98	-0.005
560.18	-0.005
560.38	-0.006
560.57	-0.006
560.77	-0.006
560.97	-0.007
561.17	-0.007
561.36	-0.007
561.56	-0.007
561.76	-0.007
561.96	-0.007
562.15	-0.007
562.35	-0.007
562.55	-0.007
562.75	-0.007
562.94	-0.007
563.14	-0.007
563.34	-0.006
563.54	-0.006
563.73	-0.006
563.93	-0.006
564.13	-0.006
564.33	-0.006
564.52	-0.005
564.72	-0.005
564.92	-0.005
565.11	-0.005
565.31	-0.005
565.51	-0.005
565.71	-0.005
565.90	-0.005
566.10	-0.005
566.30	-0.005
566.49	-0.005
566.69	-0.005
566.89	-0.006
567.09	-0.006
567.28	-0.006
567.48	-0.006
567.68	-0.007
567.87	-0.007
568.07	-0.008
568.27	-0.008
568.46	-0.009
568.66	-0.009
568.86	-0.010
569.06	-0.010
569.25	-0.011
569.45	-0.011
569.65	-0.011
569.84	-0.012
570.04	-0.012
570.24	-0.012
570.43	-0.012
570.63	-0.013
570.83	-0.013
571.02	-0.013
571.22	-0.014
571.42	-0.014
571.61	-0.014
571.81	-0.014
572.01	-0.015
572.20	-0.015
572.40	-0.015
572.60	-0.015
572.79	-0.015
572.99	-0.015
573.19	-0.015
573.38	-0.015
573.58	-0.015
573.78	-0.015
573.97	-0.015
574.17	-0.015
574.37	-0.016
574.56	-0.016
574.76	-0.016
574.96	-0.016
575.15	-0.016
575.35	-0.016
575.55	-0.017
575.74	-0.017
575.94	-0.017
576.14	-0.017
576.33	-0.017
576.53	-0.017
576.73	-0.017
576.92	-0.017
577.12	-0.017
577.31	-0.017
577.51	-0.017
577.71	-0.016
577.90	-0.016
578.10	-0.017
578.30	-0.016
578.49	-0.016
578.69	-0.017
578.89	-0.017
579.08	-0.017
579.28	-0.017
579.47	-0.017
579.67	-0.017
579.87	-0.017
580.06	-0.017
580.26	-0.017
580.46	-0.017
580.65	-0.017
580.85	-0.017
581.04	-0.017
581.24	-0.017
581.44	-0.017
581.63	-0.017
581.83	-0.017
582.02	-0.017
582.22	-0.017
582.42	-0.017
582.61	-0.017
582.81	-0.017
583.00	-0.017
583.20	-0.017
583.40	-0.017
583.59	-0.017
583.79	-0.017
583.98	-0.017
584.18	-0.017
584.38	-0.017
584.57	-0.018
584.77	-0.018
584.96	-0.017
585.16	-0.018
585.35	-0.018
585.55	-0.018
585.75	-0.017
585.94	-0.018
586.14	-0.017
586.33	-0.017
586.53	-0.017
586.72	-0.017
586.92	-0.017
587.12	-0.017
587.31	-0.016
587.51	-0.016
587.70	-0.016
587.90	-0.016
588.09	-0.015
588.29	-0.015
588.49	-0.015
588.68	-0.015
588.88	-0.015
589.07	-0.014
589.27	-0.014
589.46	-0.014
589.66	-0.014
589.85	-0.014
590.05	-0.014
590.25	-0.014
590.44	-0.013
590.64	-0.013
590.83	-0.013
591.03	-0.013
591.22	-0.014
591.42	-0.014
591.61	-0.014
591.81	-0.014
592.00	-0.014
592.20	-0.014
592.39	-0.014
592.59	-0.014
592.79	-0.014
592.98	-0.014
593.18	-0.013
593.37	-0.013
593.57	-0.013
593.76	-0.013
593.96	-0.013
594.15	-0.013
594.35	-0.012
594.54	-0.012
594.74	-0.012
594.93	-0.012
595.13	-0.011
595.32	-0.012
595.52	-0.011
595.71	-0.012
595.91	-0.012
596.10	-0.012
596.30	-0.012
596.49	-0.012
596.69	-0.012
596.88	-0.012
597.08	-0.012
597.27	-0.012
597.47	-0.012
597.66	-0.012
597.86	-0.012
598.05	-0.012
598.25	-0.012
598.44	-0.012
598.64	-0.012
598.83	-0.013
599.03	-0.013
599.22	-0.013
599.42	-0.012
599.61	-0.012
599.81	-0.012
600.00	-0.012
600.20	-0.012
600.39	-0.011
600.59	-0.011
600.78	-0.011
600.98	-0.011
601.17	-0.011
601.36	-0.011
601.56	-0.011
601.75	-0.010
601.95	-0.010
602.14	-0.011
602.34	-0.011
602.53	-0.011
602.73	-0.011
602.92	-0.011
603.12	-0.011
603.31	-0.011
603.51	-0.011
603.70	-0.011
603.89	-0.012
604.09	-0.012
604.28	-0.012
604.48	-0.013
604.67	-0.013
604.87	-0.013
605.06	-0.013
605.26	-0.013
605.45	-0.013
605.64	-0.013
605.84	-0.013
606.03	-0.013
606.23	-0.013
606.42	-0.012
606.62	-0.012
606.81	-0.012
607.00	-0.012
607.20	-0.012
607.39	-0.012
607.59	-0.011
607.78	-0.011
607.98	-0.011
608.17	-0.011
608.36	-0.011
608.56	-0.011
608.75	-0.010
608.95	-0.010
609.14	-0.010
609.34	-0.010
609.53	-0.010
609.72	-0.010
609.92	-0.010
610.11	-0.010
610.31	-0.010
610.50	-0.010
610.69	-0.010
610.89	-0.010
611.08	-0.010
611.28	-0.010
611.47	-0.010
611.66	-0.010
611.86	-0.011
612.05	-0.011
612.25	-0.011
612.44	-0.011
612.63	-0.011
612.83	-0.012
613.02	-0.012
613.21	-0.011
613.41	-0.011
613.60	-0.012
613.80	-0.012
613.99	-0.012
614.18	-0.011
614.38	-0.011
614.57	-0.011
614.76	-0.011
614.96	-0.011
615.15	-0.011
615.35	-0.011
615.54	-0.011
615.73	-0.010
615.93	-0.010
616.12	-0.010
616.31	-0.010
616.51	-0.009
616.70	-0.009
616.89	-0.009
617.09	-0.009
617.28	-0.008
617.48	-0.008
617.67	-0.008
617.86	-0.008
618.06	-0.008
618.25	-0.007
618.44	-0.007
618.64	-0.007
618.83	-0.007
619.02	-0.007
619.22	-0.007
619.41	-0.007
619.60	-0.008
619.80	-0.008
619.99	-0.008
620.18	-0.008
620.38	-0.008
620.57	-0.008
620.76	-0.008
620.96	-0.008
621.15	-0.008
621.34	-0.008
621.54	-0.008
621.73	-0.008
621.92	-0.008
622.12	-0.008
622.31	-0.007
622.50	-0.007
622.70	-0.007
622.89	-0.007
623.08	-0.007
623.27	-0.007
623.47	-0.007
623.66	-0.007
623.85	-0.007
624.05	-0.007
624.24	-0.007
624.43	-0.007
624.63	-0.007
624.82	-0.006
625.01	-0.006
625.20	-0.006
625.40	-0.006
625.59	-0.006
625.78	-0.006
625.98	-0.005
626.17	-0.005
626.36	-0.005
626.55	-0.005
626.75	-0.005
626.94	-0.006
627.13	-0.006
627.33	-0.006
627.52	-0.006
627.71	-0.006
627.90	-0.006
628.10	-0.006
628.29	-0.006
628.48	-0.005
628.68	-0.005
628.87	-0.005
629.06	-0.005
629.25	-0.005
629.45	-0.005
629.64	-0.005
629.83	-0.004
630.02	-0.004
630.22	-0.004
630.41	-0.004
630.60	-0.004
630.79	-0.004
630.99	-0.003
631.18	-0.003
631.37	-0.003
631.56	-0.003
631.76	-0.002
631.95	-0.002
632.14	-0.002
632.33	-0.002
632.53	-0.001
632.72	-0.001
632.91	-0.001
633.10	-0.001
633.30	-0.001
633.49	-0.001
633.68	-0.001
633.87	-0.001
634.07	-0.001
634.26	-0.001
634.45	-0.001
634.64	-0.001
634.83	-0.001
635.03	-0.001
635.22	-0.002
635.41	-0.001
635.60	-0.001
635.80	-0.002
635.99	-0.002
636.18	-0.002
636.37	-0.002
636.56	-0.002
636.76	-0.002
636.95	-0.002
637.14	-0.002
637.33	-0.002
637.52	-0.002
637.72	-0.001
637.91	-0.001
638.10	-0.001
638.29	-0.001
638.48	-0.001
638.68	-0.001
638.87	-0.001
639.06	-0.000
639.25	-0.000
639.44	0.000
639.64	0.000
639.83	0.000
640.02	0.000
640.21	0.000
640.40	0.000
640.59	0.000
640.79	0.000
640.98	0.000
641.17	0.000
641.36	-0.000
641.55	-0.000
641.74	-0.000
641.94	-0.000
642.13	0.000
642.32	0.000
642.51	0.000
642.70	0.000
642.89	0.000
643.09	-0.000
643.28	0.000
643.47	0.000
643.66	0.000
643.85	0.000
644.04	0.000
644.24	0.000
644.43	0.000
644.62	0.000
644.81	0.000
645.00	0.000
645.19	0.001
645.38	0.001
645.58	0.001
645.77	0.000
645.96	0.000
646.15	0.000
646.34	0.000
646.53	0.000
646.72	0.000
646.92	0.000
647.11	0.000
647.30	-0.000
647.49	-0.000
647.68	-0.000
647.87	-0.001
648.06	-0.001
648.25	-0.001
648.45	-0.001
648.64	-0.001
648.83	-0.001
649.02	-0.001
649.21	-0.002
649.40	-0.001
649.59	-0.002
649.78	-0.002
649.97	-0.002
650.17	-0.001
650.36	-0.001
650.55	-0.001
650.74	-0.001
650.93	-0.001
651.12	-0.001
651.31	-0.001
651.50	-0.001
651.69	-0.001
651.89	-0.001
652.08	-0.002
652.27	-0.002
652.46	-0.003
652.65	-0.003
652.84	-0.004
653.03	-0.005
653.22	-0.006
653.41	-0.007
653.60	-0.008
653.79	-0.009
653.98	-0.010
654.18	-0.011
654.37	-0.012
654.56	-0.012
654.75	-0.013
654.94	-0.013
655.13	-0.014
655.32	-0.014
655.51	-0.014
655.70	-0.014
655.89	-0.014
656.08	-0.014
656.27	-0.014
656.46	-0.014
656.65	-0.013
656.84	-0.013
657.03	-0.012
657.23	-0.011
657.42	-0.010
657.61	-0.009
657.80	-0.008
657.99	-0.007
658.18	-0.006
658.37	-0.005
658.56	-0.004
658.75	-0.003
658.94	-0.002
659.13	-0.002
659.32	-0.001
659.51	-0.001
659.70	-0.000
659.89	0.000
660.08	0.000
660.27	0.001
660.46	0.001
660.65	0.001
660.84	0.001
661.03	0.001
661.22	0.001
661.41	0.001
661.60	0.001
661.79	0.001
661.98	0.001
662.17	0.001
662.36	0.001
662.55	0.001
662.74	0.001
662.93	0.001
663.12	0.001
663.31	0.001
663.50	0.001
663.69	0.001
663.88	0.001
664.07	0.001
664.26	0.001
664.45	0.001
664.64	0.001
664.83	0.001
665.02	0.001
665.21	0.001
665.40	0.001
665.59	0.001
665.78	0.001
665.97	0.001
666.16	0.001
666.35	0.001
666.54	0.001
666.73	0.001
666.92	0.001
667.11	0.001
667.30	0.001
667.49	0.002
667.68	0.002
667.87	0.002
668.06	0.002
668.25	0.002
668.44	0.002
668.63	0.001
668.82	0.001
669.01	0.001
669.20	0.001
669.39	0.001
669.58	0.000
669.77	0.000
669.96	-0.000
670.15	-0.000
670.34	-0.001
670.53	-0.001
670.72	-0.001
670.90	-0.001
671.09	-0.001
671.28	-0.001
671.47	-0.001
671.66	-0.000
671.85	-0.001
672.04	-0.001
672.23	-0.001
672.42	-0.000
672.61	-0.000
672.80	-0.000
672.99	-0.000
673.18	-0.000
673.37	-0.000
673.56	-0.000
673.74	-0.000
673.93	0.000
674.12	0.000
674.31	0.000
674.50	0.000
674.69	0.000
674.88	0.000
675.07	0.000
675.26	0.000
675.45	0.000
675.64	-0.000
675.83	-0.000
676.01	-0.000
676.20	-0.001
676.39	-0.001
676.58	-0.001
676.77	-0.001
676.96	-0.001
677.15	-0.001
677.34	-0.001
677.53	-0.001
677.71	-0.001
677.90	-0.002
678.09	-0.002
678.28	-0.001
678.47	-0.001
678.66	-0.001
678.85	-0.001
679.04	-0.001
679.23	-0.001
679.41	-0.001
679.60	-0.001
679.79	-0.001
679.98	-0.001
680.17	-0.001
680.36	-0.001
680.55	-0.001
680.74	-0.001
680.92	-0.001
681.11	-0.001
681.30	-0.001
681.49	-0.001
681.68	-0.001
681.87	-0.001
682.06	-0.001
682.24	-0.001
682.43	-0.001
682.62	-0.001
682.81	-0.001
683.00	-0.001
683.19	-0.001
683.38	-0.001
683.56	-0.001
683.75	-0.002
683.94	-0.002
684.13	-0.002
684.32	-0.002
684.51	-0.002
684.69	-0.002
684.88	-0.002
685.07	-0.002
685.26	-0.002
685.45	-0.002
685.64	-0.002
685.82	-0.002
686.01	-0.002
686.20	-0.002
686.39	-0.002
686.58	-0.002
686.77	-0.002
686.95	-0.002
687.14	-0.002
687.33	-0.002
687.52	-0.002
687.71	-0.002
687.89	-0.002
688.08	-0.002
688.27	-0.002
688.46	-0.002
688.65	-0.002
688.83	-0.002
689.02	-0.002
689.21	-0.002
689.40	-0.002
689.59	-0.002
689.77	-0.002
689.96	-0.002
690.15	-0.002
690.34	-0.002
690.53	-0.002
690.71	-0.002
690.90	-0.002
691.09	-0.002
691.28	-0.002
691.46	-0.002
691.65	-0.002
691.84	-0.002
692.03	-0.002
692.22	-0.002
692.40	-0.002
692.59	-0.002
692.78	-0.002
692.97	-0.002
693.15	-0.001
693.34	-0.001
693.53	-0.001
693.72	-0.001
693.90	-0.001
694.09	-0.002
694.28	-0.002
694.47	-0.002
694.66	-0.002
694.84	-0.002
695.03	-0.002
695.22	-0.002
695.41	-0.003
695.59	-0.003
695.78	-0.003
695.97	-0.003
696.15	-0.002
696.34	-0.003
696.53	-0.003
696.72	-0.003
696.90	-0.002
697.09	-0.002
697.28	-0.002
697.47	-0.002
697.65	-0.002
697.84	-0.002
698.03	-0.001
698.22	-0.001
698.40	-0.001
698.59	-0.001
698.78	-0.001
698.96	-0.001
699.15	-0.000
699.34	-0.000
699.53	-0.000
699.71	-0.001
699.90	-0.000
700.09	-0.001
700.27	-0.001
700.46	-0.001
700.65	-0.001
700.84	-0.001
701.02	-0.001
701.21	-0.001
701.40	-0.001
701.58	-0.001
701.77	-0.001
701.96	-0.001
702.14	-0.001
702.33	-0.001
702.52	-0.001
702.70	-0.000
702.89	-0.001
703.08	-0.001
703.27	-0.001
703.45	-0.001
703.64	-0.000
703.83	-0.001
704.01	-0.001
704.20	-0.001
704.39	-0.001
704.57	-0.001
704.76	-0.001
704.95	-0.001
705.13	-0.001
705.32	-0.001
705.51	-0.001
705.69	-0.001
705.88	-0.001
706.07	-0.001
706.25	-0.001
706.44	-0.001
706.63	-0.002
706.81	-0.002
707.00	-0.002
707.19	-0.002
707.37	-0.002
707.56	-0.002
707.74	-0.002
707.93	-0.002
708.12	-0.002
708.30	-0.002
708.49	-0.002
708.68	-0.002
708.86	-0.002
709.05	-0.002
709.24	-0.002
709.42	-0.002
709.61	-0.002
709.79	-0.002
709.98	-0.001
710.17	-0.001
710.35	-0.001
710.54	-0.001
710.73	-0.001
710.91	-0.001
711.10	-0.001
711.28	-0.001
711.47	-0.001
711.66	-0.001
711.84	-0.001
712.03	-0.001
712.22	-0.002
712.40	-0.001
712.59	-0.002
712.77	-0.001
712.96	-0.001
713.15	-0.001
713.33	-0.001
713.52	-0.001
713.70	-0.001
713.89	-0.001
714.08	-0.001
714.26	-0.000
714.45	-0.000
714.63	0.000
714.82	-0.000
715.00	-0.000
715.19	-0.000
715.38	-0.000
715.56	-0.000
715.75	-0.000
715.93	-0.000
716.12	0.000
716.30	0.000
716.49	0.000
716.68	-0.000
716.86	0.000
717.05	0.000
717.23	0.000
717.42	0.000
717.60	0.000
717.79	0.001
717.98	0.001
718.16	0.001
718.35	0.001
718.53	0.001
718.72	0.001
718.90	0.001
719.09	0.001
719.27	0.001
719.46	0.000
719.65	0.000
719.83	0.000
720.02	0.000
720.20	0.000
720.39	0.000
720.57	0.000
720.76	0.000
720.94	0.000
721.13	0.001
721.31	0.001
721.50	0.001
721.68	0.001
721.87	0.001
722.06	0.001
722.24	0.001
722.43	0.001
722.61	0.001
722.80	0.001
722.98	0.001
723.17	0.001
723.35	0.001
723.54	0.001
723.72	0.001
723.91	0.001
724.09	0.001
724.28	0.001
724.46	0.000
724.65	0.000
724.83	0.001
725.02	0.001
725.20	0.001
725.39	0.001
725.57	0.001
725.76	0.002
725.94	0.002
726.13	0.001
726.31	0.002
726.50	0.002
726.68	0.002
726.87	0.002
727.05	0.002
727.24	0.001
727.42	0.001
727.61	0.001
727.79	0.000
727.97	0.000
728.16	0.001
728.34	0.000
728.53	0.000
728.71	-0.000
728.90	0.000
729.08	0.000
729.27	-0.000
729.45	-0.000
729.64	0.000
729.82	0.001
730.01	0.001
730.19	0.001
730.37	0.001
730.56	0.001
730.74	0.001
730.93	0.000
731.11	0.000
731.30	0.000
731.48	0.001
731.67	0.001
731.85	0.000
732.03	0.000
732.22	0.000
732.40	0.001
732.59	0.001
732.77	0.001
732.96	0.001
733.14	0.002
733.33	0.002
733.51	0.001
733.69	0.001
733.88	0.001
734.06	0.001
734.25	0.002
734.43	0.001
734.61	0.001
734.80	0.001
734.98	0.001
735.17	0.001
735.35	0.001
735.54	0.001
735.72	-0.000
735.90	-0.001
736.09	-0.000
736.27	-0.001
736.46	-0.000
736.64	-0.000
736.82	-0.001
737.01	-0.001
737.19	-0.001
737.38	-0.000
737.56	-0.000
737.74	0.000
737.93	0.001
738.11	-0.000
738.29	0.000
738.48	0.001
738.66	0.001
738.85	0.001
739.03	0.001
739.21	0.002
739.40	0.002
739.58	0.002
739.76	0.002
739.95	0.003
740.13	0.003
740.32	0.003
740.50	0.003
740.68	0.003
740.87	0.003
741.05	0.003
741.23	0.003
741.42	0.003
741.60	0.003
741.78	0.004
741.97	0.003
742.15	0.004
742.34	0.004
742.52	0.004
742.70	0.004
742.89	0.003
743.07	0.003
743.25	0.003
743.44	0.003
743.62	0.003
743.80	0.003
743.99	0.003
744.17	0.003
744.35	0.003
744.54	0.002
744.72	0.002
744.90	0.002
745.09	0.003
745.27	0.003
745.45	0.004
745.64	0.004
745.82	0.003
746.00	0.002
746.18	0.002
746.37	0.002
746.55	0.002
746.73	0.002
746.92	0.002
747.10	0.002
747.28	0.002
747.47	0.001
747.65	0.000
747.83	0.001
748.02	0.001
748.20	0.001
748.38	0.001
748.56	0.002
748.75	0.001
748.93	0.001
749.11	0.001
749.30	0.001
749.48	0.001
749.66	0.001
749.84	0.001
750.03	0.001
750.21	0.001
750.39	0.001
750.58	0.000
750.76	0.000
750.94	0.000
751.12	0.001
751.31	0.000
751.49	-0.000
751.67	-0.000
751.85	-0.001
752.04	0.001
752.22	0.000
752.40	0.000
752.58	-0.000
752.77	0.000
752.95	0.000
753.13	-0.000
753.32	-0.000
753.50	0.001
753.68	0.001
753.86	0.001
754.05	0.001
754.23	0.001
754.41	0.001
754.59	0.001
754.77	0.000
754.96	-0.000
755.14	0.000
755.32	-0.000
755.50	-0.000
755.69	-0.001
755.87	-0.000
756.05	-0.001
756.23	-0.001
756.42	-0.001
756.60	-0.001
756.78	-0.000
756.96	-0.000
757.14	0.000
757.33	0.001
757.51	0.001
757.69	0.001
757.87	0.001
758.05	0.001
758.24	0.001
758.42	0.001
758.60	0.001
758.78	0.000
758.97	0.000
759.15	-0.001
759.33	-0.001
759.51	-0.002
759.69	-0.001
759.87	-0.002
760.06	-0.002
760.24	-0.003
760.42	-0.004
760.60	-0.004
760.78	-0.004
760.97	-0.004
761.15	-0.003
761.33	-0.004
761.51	-0.003
761.69	-0.004
761.87	-0.004
762.06	-0.004
762.24	-0.003
762.42	-0.003
762.60	-0.004
762.78	-0.004
762.97	-0.003
763.15	-0.003
763.33	-0.003
763.51	-0.002
763.69	-0.002
763.87	-0.001
764.05	-0.001
764.24	-0.001
764.42	-0.002
764.60	-0.001
764.78	-0.001
764.96	-0.001
765.14	-0.002
765.32	-0.002
765.51	-0.003
765.69	-0.003
765.87	-0.003
766.05	-0.003
766.23	-0.003
766.41	-0.002
766.59	-0.002
766.78	-0.002
766.96	-0.002
767.14	-0.001
767.32	-0.001
767.50	-0.001
767.68	-0.001
767.86	-0.001
768.04	-0.000
768.23	-0.000
768.41	-0.000
768.59	-0.000
768.77	-0.000
768.95	-0.000
769.13	-0.000
769.31	-0.000
769.49	0.000
769.67	0.000
769.86	0.000
770.04	0.000
770.22	0.000
770.40	0.000
770.58	0.000
770.76	0.000
770.94	0.001
771.12	0.001
771.30	0.000
771.48	-0.001
771.66	-0.001
771.85	-0.000
772.03	-0.000
772.21	-0.001
772.39	-0.000
772.57	-0.001
772.75	-0.000
772.93	-0.000
773.11	0.000
773.29	0.001
773.47	0.002
773.65	0.002
773.83	0.002
774.01	0.002
774.19	0.003
774.38	0.003
774.56	0.002
774.74	0.002
774.92	0.002
775.10	0.003
775.28	0.002
775.46	0.001
775.64	0.001
775.82	0.001
776.00	0.001
776.18	-0.000
776.36	0.000
776.54	0.001
776.72	0.001
776.90	0.000
777.08	-0.000
777.26	-0.000
777.44	-0.000
777.62	0.000
777.80	0.000
777.98	0.000
778.16	0.001
778.34	0.000
778.52	0.000
778.70	0.000
778.89	0.000
779.07	0.001
779.25	0.001
779.43	0.001
779.61	0.001
779.79	0.001
779.97	0.000
780.15	0.000
780.33	0.001
780.51	0.000
780.69	0.000
780.87	0.000
781.05	0.001
781.23	0.000
781.41	-0.000
781.59	0.001
781.77	0.001
781.95	0.001
782.13	0.001
782.31	-0.000
782.49	0.000
782.67	-0.000
782.84	-0.001
783.02	-0.002
783.20	-0.002
783.38	-0.002
783.56	-0.003
783.74	-0.002
783.92	-0.002
784.10	-0.002
784.28	-0.002
784.46	-0.002
784.64	-0.001
784.82	-0.001
785.00	-0.001
785.18	-0.001
785.36	-0.001
785.54	-0.001
785.72	-0.001
785.90	-0.001
786.08	-0.001
786.26	-0.000
786.44	-0.001
786.62	-0.002
786.80	-0.003
786.98	-0.002
787.16	-0.001
787.33	-0.001
787.51	-0.001
787.69	-0.001
787.87	-0.002
788.05	-0.001
788.23	-0.001
788.41	0.000
788.59	0.000
788.77	0.001
788.95	0.000
789.13	-0.000
789.31	0.000
789.49	-0.000
789.67	-0.000
789.84	0.000
790.02	-0.000
790.20	-0.001
790.38	-0.001
790.56	-0.002
790.74	-0.002
790.92	-0.002
791.10	-0.002
791.28	-0.002
791.46	-0.001
791.64	-0.001
791.81	-0.002
791.99	-0.002
792.17	-0.001
792.35	-0.001
792.53	-0.001
792.71	-0.001
792.89	-0.000
793.07	0.000
793.25	-0.000
793.42	-0.000
793.60	-0.000
793.78	-0.000
793.96	-0.001
794.14	-0.000
794.32	-0.001
794.50	-0.001
794.68	-0.002
794.85	-0.002
795.03	-0.003
795.21	-0.002
795.39	-0.003
795.57	-0.002
795.75	-0.002
795.93	-0.001
796.10	-0.001
796.28	-0.001
796.46	-0.001
796.64	-0.001
796.82	-0.001
797.00	-0.001
797.18	-0.001
797.35	-0.000
797.53	-0.000
797.71	-0.000
797.89	-0.001
798.07	-0.001
798.25	-0.000
798.42	0.000
798.60	0.001
798.78	0.001
798.96	0.000
799.14	-0.000
799.32	-0.001
799.49	-0.001
799.67	-0.001
799.85	-0.002
800.03	-0.002
800.21	-0.002
800.38	-0.002
800.56	-0.002
800.74	-0.003
800.92	-0.003
801.10	-0.002
801.28	-0.002
801.45	-0.001
801.63	-0.001
801.81	-0.002
801.99	-0.002
802.17	-0.001
802.34	-0.001
802.52	-0.001
802.70	-0.001
802.88	-0.001
803.05	-0.001
803.23	-0.000
803.41	-0.001
803.59	-0.001
803.77	-0.001
803.94	-0.001
804.12	-0.001
804.30	-0.001
804.48	-0.001
804.66	-0.002
804.83	-0.002
805.01	-0.002
805.19	-0.003
805.37	-0.002
805.54	-0.003
805.72	-0.003
805.90	-0.002
806.08	-0.002
806.25	-0.003
806.43	-0.003
806.61	-0.002
806.79	-0.002
806.96	-0.002
807.14	-0.002
807.32	-0.002
807.50	-0.001
807.67	-0.001
807.85	-0.002
808.03	-0.002
808.21	-0.002
808.38	-0.001
808.56	-0.001
808.74	-0.001
808.92	-0.001
809.09	-0.001
809.27	-0.002
809.45	-0.002
809.62	-0.002
809.80	-0.002
809.98	-0.001
810.16	-0.001
810.33	-0.001
810.51	-0.001
810.69	-0.001
810.87	-0.001
811.04	-0.001
811.22	-0.000
811.40	-0.000
811.57	-0.000
811.75	-0.001
811.93	-0.001
812.10	-0.002
812.28	-0.002
812.46	-0.002
812.64	-0.002
812.81	-0.002
812.99	-0.002
813.17	-0.002
813.34	-0.002
813.52	-0.002
813.70	-0.001
813.87	-0.001
814.05	-0.001
814.23	-0.001
814.40	-0.001
814.58	-0.000
814.76	-0.000
814.93	0.000
815.11	-0.000
815.29	-0.001
815.46	0.000
815.64	0.000
815.82	0.001
815.99	0.001
816.17	0.001
816.35	0.001
816.52	0.001
816.70	0.001
816.88	0.001
817.05	0.001
817.23	0.001
817.41	0.001
817.58	0.001
817.76	0.001
817.94	0.000
818.11	0.001
818.29	-0.000
818.47	0.000
818.64	0.000
818.82	0.000
818.99	-0.000
819.17	-0.001
819.35	-0.001
819.52	-0.001
819.70	-0.002
819.88	-0.002
820.05	-0.003
820.23	-0.002
820.40	-0.002
820.58	-0.002
820.76	-0.003
820.93	-0.003
821.11	-0.003
821.29	-0.002
821.46	-0.003
821.64	-0.002
821.81	-0.001
821.99	-0.001
822.17	0.000
822.34	-0.001
822.52	-0.001
822.69	-0.000
822.87	0.000
823.05	0.001
823.22	0.000
823.40	0.001
823.57	0.001
823.75	0.001
823.92	0.001
824.10	0.001
824.28	0.001
824.45	0.002
824.63	0.002
824.80	0.002
824.98	0.002
825.16	0.002
825.33	0.002
825.51	0.002
825.68	0.002
825.86	0.001
826.03	0.001
826.21	0.000
826.38	-0.000
826.56	-0.001
826.74	-0.002
826.91	-0.002
827.09	-0.002
827.26	-0.002
827.44	-0.003
827.61	-0.003
827.79	-0.003
827.96	-0.002
828.14	-0.002
828.32	-0.001
828.49	0.001
828.67	0.001
828.84	0.002
829.02	0.002
829.19	0.002
829.37	0.003
829.54	0.002
829.72	0.002
829.89	0.003
830.07	0.004
830.24	0.003
830.42	0.002
830.59	0.002
830.77	0.003
830.94	0.001
831.12	0.001
831.29	0.001
831.47	0.001
831.64	0.002
831.82	0.001
831.99	0.002
832.17	0.003
832.34	0.004
832.52	0.006
832.69	0.004
832.87	0.006
833.04	0.007
833.22	0.004
833.39	0.006
833.57	0.004
833.74	0.005
833.92	0.003
834.09	0.001
834.27	-0.001
834.44	-0.002
834.62	-0.001
834.79	-0.001
834.97	-0.002
835.14	0.001
835.32	0.002
835.49	0.003
835.67	0.002
835.84	0.004
836.02	0.006
836.19	0.007
836.36	0.005
836.54	0.005
836.71	0.003
836.89	0.003
837.06	0.002
837.24	0.002
837.41	0.001
837.59	0.001
837.76	0.000
837.94	-0.002
838.11	-0.002
838.28	-0.002
838.46	-0.002
838.63	-0.001
838.81	-0.000
838.98	0.000
839.16	-0.001
839.33	-0.001
839.50	-0.000
839.68	-0.002
839.85	-0.001
840.03	-0.003
840.20	-0.002
840.38	-0.002
840.55	-0.001
840.72	0.000
840.90	0.000
841.07	0.002
841.25	-0.002
841.42	-0.002
841.59	-0.002
841.77	-0.002
841.94	-0.000
842.12	0.002
842.29	0.002
842.46	0.002
842.64	0.001
842.81	-0.000
842.99	-0.000
843.16	0.002
843.33	0.003
843.51	0.002
843.68	0.001
843.86	-0.001
844.03	-0.002
844.20	-0.000
844.38	-0.002
844.55	-0.003
844.72	-0.002
844.90	-0.004
845.07	-0.003
845.25	-0.003
845.42	-0.002
845.59	-0.001
845.77	0.001
845.94	0.001
846.11	-0.003
846.29	-0.000
846.46	-0.000
846.63	0.000
846.81	0.001
846.98	-0.001
847.16	-0.001
847.33	-0.001
847.50	-0.002
847.68	-0.001
847.85	0.000
848.02	0.003
848.20	0.003
848.37	0.003
848.54	0.001
848.72	0.002
848.89	0.001
849.06	0.002
849.24	0.003
849.41	0.003
849.58	0.003
849.76	0.002
849.93	-0.000
850.10	-0.000
850.27	-0.000
850.45	0.002
850.62	0.000
850.79	0.005
850.97	0.002
851.14	0.000
851.31	0.000
851.49	0.002
851.66	-0.001
851.83	0.003
852.01	0.001
852.18	0.002
852.35	-0.000
852.52	0.000
852.70	-0.003
852.87	0.000
853.04	0.003
853.22	0.005
853.39	0.001
853.56	0.002
853.73	0.001
853.91	-0.001
854.08	-0.004
854.25	-0.005
854.43	-0.004
854.60	-0.001
854.77	-0.002
854.94	0.001
855.12	-0.000
855.29	0.005
855.46	0.005
855.63	0.001
855.81	0.005
855.98	0.007
856.15	0.009
856.32	0.007
856.50	0.003
856.67	-0.002
856.84	-0.007
857.01	-0.005
857.19	-0.009
857.36	-0.008
857.53	-0.005
857.70	-0.005
857.88	-0.006
858.05	-0.009
858.22	-0.008
858.39	-0.004
858.57	0.003
858.74	0.006
858.91	0.004
859.08	0.004
859.25	0.004
859.43	0.001
859.60	0.000
859.77	-0.001
859.94	-0.005
860.12	-0.006
860.29	-0.008
860.46	-0.010
860.63	-0.014
860.80	-0.014
860.98	-0.014
861.15	-0.014
861.32	-0.014
861.49	-0.010
861.66	-0.007
861.84	-0.005
862.01	-0.001
862.18	-0.004
862.35	0.000
862.52	0.001
862.70	0.001
862.87	-0.000
863.04	-0.001
863.21	-0.001
863.38	-0.004
863.55	-0.004
863.73	0.000
863.90	-0.003
864.07	0.001
864.24	0.002
864.41	0.002
864.58	0.002
864.76	0.005
864.93	0.004
865.10	0.004
865.27	0.001
865.44	0.001
865.61	0.002
865.79	0.004
865.96	0.006
866.13	0.000
866.30	0.001
866.47	0.000
866.64	-0.003
866.81	-0.002
866.99	0.000
867.16	0.004
867.33	-0.001
867.50	-0.007
867.67	-0.011
867.84	-0.016
868.01	-0.013
868.19	-0.015
868.36	-0.016
868.53	-0.011
868.70	-0.015
868.87	-0.018
869.04	-0.021
869.21	-0.021
869.38	-0.017
869.55	-0.016
869.73	-0.013
869.90	-0.014
870.07	-0.005
870.24	-0.001
870.41	0.001
870.58	0.003
870.75	0.001
870.92	-0.002
871.09	0.005
871.27	0.003
871.44	0.005
871.61	0.004
871.78	0.003
871.95	-0.004
872.12	-0.011
872.29	-0.014
872.46	-0.011
872.63	-0.009
872.80	-0.004
872.97	-0.008
873.14	-0.005
873.32	-0.003
873.49	-0.006
873.66	-0.009
873.83	-0.009
874.00	-0.003
874.17	-0.005
874.34	-0.007
874.51	-0.002
874.68	-0.003
874.85	0.003
875.02	0.004
875.19	0.005
875.36	0.005
875.53	0.011
875.70	0.014
875.87	0.006
876.04	0.013
876.21	0.019
876.39	0.014
876.56	0.020
876.73	0.010
876.90	0.012
877.07	0.007
877.24	0.014
877.41	0.016
877.58	0.013
877.75	0.025
877.92	0.013
878.09	0.008
878.26	0.009
878.43	0.001
878.60	0.005
878.77	0.001
878.94	-0.001
879.11	-0.003
879.28	-0.011
879.45	-0.012
879.62	-0.017
879.79	-0.011
879.96	-0.010
880.13	-0.006
880.30	-0.003
880.47	-0.004
880.64	-0.001
880.81	-0.006
880.98	-0.007
881.15	-0.002
881.32	0.001
881.49	-0.000
881.66	-0.003
881.83	-0.006
882.00	-0.015
882.17	-0.011
882.34	-0.004
882.51	-0.004
882.68	-0.005
882.85	-0.009
883.02	-0.012
883.19	-0.016
883.36	-0.016
883.53	-0.018
883.69	-0.013
883.86	-0.011
884.03	-0.023
884.20	-0.029
884.37	-0.036
884.54	-0.026
884.71	-0.022
884.88	-0.025
885.05	-0.027
885.22	-0.029
885.39	-0.026
885.56	-0.032
885.73	-0.026
885.90	-0.017
886.07	-0.016
886.24	-0.011
886.41	-0.015
886.58	-0.015
886.74	-0.008
886.91	-0.005
887.08	-0.002
887.25	-0.001
887.42	0.004
887.59	-0.004
887.76	-0.004
887.93	-0.010
888.10	-0.010
888.27	-0.003
888.44	-0.005
888.61	-0.015
888.77	-0.015
888.94	-0.014
889.11	-0.017
889.28	-0.020
889.45	-0.015
889.62	-0.024
889.79	-0.016
889.96	-0.019
890.13	-0.019
890.29	-0.013
890.46	-0.007
890.63	-0.010
890.80	-0.004
890.97	0.002
891.14	0.005
891.31	0.007
891.48	0.016
891.65	0.012
891.81	0.018
891.98	0.018
892.15	0.015
892.32	0.018
892.49	0.011
892.66	0.008
892.83	0.013
892.99	0.008
893.16	0.004
893.33	-0.001
893.50	0.006
893.67	-0.000
893.84	-0.000
894.01	0.001
894.17	-0.013
894.34	-0.008
894.51	-0.003
894.68	-0.014
894.85	-0.015
895.02	-0.012
895.18	-0.010
895.35	-0.019
895.52	-0.022
895.69	-0.025
895.86	-0.023
896.03	-0.014
896.19	-0.022
896.36	-0.035
896.53	-0.036
896.70	-0.038
896.87	-0.029
897.03	-0.038
897.20	-0.030
897.37	-0.033
897.54	-0.035
897.71	-0.043
897.87	-0.037
898.04	-0.024
898.21	-0.021
898.38	-0.011
898.55	-0.002
898.71	-0.011
898.88	0.002
899.05	0.004
899.22	0.008
899.39	0.007
899.55	0.021
899.72	0.008
899.89	0.011
900.06	0.019
900.23	0.002
900.39	0.006
900.56	0.008
900.73	-0.004
900.90	-0.013
901.06	-0.002
901.23	0.002
901.40	0.006
901.57	0.006
901.73	-0.002
901.90	-0.010
902.07	0.001
902.24	-0.003
902.40	-0.012
902.57	0.010
902.74	0.016
902.91	0.013
903.07	0.014
903.24	0.016
903.41	0.028
903.58	0.043
903.74	0.042
903.91	0.037
904.08	0.038
904.25	0.054
904.41	0.042
904.58	0.041
904.75	0.038
904.92	0.030
905.08	0.015
905.25	0.006
905.42	-0.007
905.58	0.002
905.75	0.014
905.92	-0.010
906.09	-0.037
906.25	0.002
906.42	0.019
906.59	0.069
>>>>>End Processed Spectral Data<<<<<
