SpectraSuite Data File
++++++++++++++++++++++++++++++++++++
Date: Fri Jun 19 15:21:48 CEST 2015
User: introlabs
Dark Spectrum Present: Yes
Reference Spectrum Present: Yes
Number of Sampled Component Spectra: 1
Spectrometers: USB4H08886
Integration Time (usec): 745692 (USB4H08886)
Spectra Averaged: 5 (USB4H08886)
Boxcar Smoothing: 5 (USB4H08886)
Correct for Electrical Dark: Yes (USB4H08886)
Strobe/Lamp Enabled: No (USB4H08886)
Correct for Detector Non-linearity: Yes (USB4H08886)
Correct for Stray Light: Yes (USB4H08886)
Number of Pixels in Processed Spectrum: 3648
>>>>>Begin Processed Spectral Data<<<<<
178.14	-0.000
178.36	-0.000
178.57	-0.000
178.79	-0.000
179.01	-0.000
179.22	-0.000
179.44	-0.000
179.65	-0.000
179.87	-0.000
180.08	-0.000
180.30	-0.000
180.52	-0.000
180.73	-0.000
180.95	-0.000
181.16	-0.000
181.38	-0.000
181.59	-0.000
181.81	-0.000
182.03	-0.000
182.24	-0.000
182.46	-0.000
182.67	-0.000
182.89	-0.000
183.10	-0.000
183.32	-0.000
183.54	-0.000
183.75	-0.000
183.97	-0.000
184.18	-0.000
184.40	-0.000
184.61	-0.000
184.83	-0.000
185.04	-0.000
185.26	-0.000
185.48	-0.000
185.69	-0.000
185.91	-0.000
186.12	-0.000
186.34	-0.000
186.55	-0.000
186.77	-0.000
186.98	-0.000
187.20	-0.000
187.42	-0.000
187.63	-0.000
187.85	-0.000
188.06	-0.000
188.28	-0.000
188.49	-0.000
188.71	-0.000
188.92	-0.000
189.14	-0.000
189.36	-0.000
189.57	-0.000
189.79	-0.000
190.00	-0.000
190.22	-0.000
190.43	-0.000
190.65	-0.000
190.86	-0.000
191.08	-0.000
191.29	-0.000
191.51	-0.000
191.72	-0.000
191.94	-0.000
192.16	-0.000
192.37	-0.000
192.59	-0.000
192.80	-0.000
193.02	-0.000
193.23	-0.000
193.45	-0.000
193.66	-0.000
193.88	-0.000
194.09	-0.000
194.31	-0.000
194.52	-0.000
194.74	-0.000
194.95	-0.000
195.17	-0.000
195.38	-0.000
195.60	-0.000
195.81	-0.000
196.03	-0.000
196.25	-0.000
196.46	-0.000
196.68	-0.000
196.89	-0.000
197.11	-0.000
197.32	-0.000
197.54	-0.000
197.75	-0.000
197.97	-0.000
198.18	-0.000
198.40	-0.000
198.61	-0.000
198.83	-0.000
199.04	-0.000
199.26	-0.000
199.47	-0.000
199.69	-0.000
199.90	-0.000
200.12	-0.000
200.33	-0.000
200.55	-0.000
200.76	-0.000
200.98	-0.000
201.19	-0.000
201.41	-0.000
201.62	-0.000
201.84	-0.000
202.05	-0.000
202.27	-0.000
202.48	-0.000
202.70	-0.000
202.91	-0.000
203.13	-0.000
203.34	-0.000
203.56	-0.000
203.77	-0.000
203.99	-0.000
204.20	-0.000
204.42	-0.000
204.63	-0.000
204.85	-0.000
205.06	-0.000
205.28	-0.000
205.49	-0.000
205.71	-0.000
205.92	-0.000
206.14	-0.000
206.35	-0.000
206.56	-0.000
206.78	-0.000
206.99	-0.000
207.21	-0.000
207.42	-0.000
207.64	-0.000
207.85	-0.000
208.07	-0.000
208.28	-0.000
208.50	-0.000
208.71	-0.000
208.93	-0.000
209.14	-0.000
209.36	-0.000
209.57	-0.000
209.79	-0.000
210.00	-0.000
210.22	-0.000
210.43	-0.000
210.64	-0.000
210.86	-0.000
211.07	-0.000
211.29	-0.000
211.50	-0.000
211.72	-0.000
211.93	-0.000
212.15	-0.000
212.36	-0.000
212.58	-0.000
212.79	-0.000
213.01	-0.000
213.22	-0.000
213.43	-0.000
213.65	-0.000
213.86	-0.000
214.08	-0.000
214.29	-0.000
214.51	-0.000
214.72	-0.000
214.94	-0.000
215.15	-0.000
215.36	-0.000
215.58	-0.000
215.79	-0.000
216.01	-0.000
216.22	-0.000
216.44	-0.000
216.65	-0.000
216.87	-0.000
217.08	-0.000
217.29	-0.000
217.51	-0.000
217.72	-0.000
217.94	-0.000
218.15	-0.000
218.37	-0.000
218.58	-0.000
218.80	-0.000
219.01	-0.000
219.22	-0.000
219.44	-0.000
219.65	-0.000
219.87	-0.000
220.08	-0.000
220.30	-0.000
220.51	-0.000
220.72	-0.000
220.94	-0.000
221.15	-0.000
221.37	-0.000
221.58	-0.000
221.79	-0.000
222.01	-0.000
222.22	-0.000
222.44	-0.000
222.65	-0.000
222.87	-0.000
223.08	-0.000
223.29	-0.000
223.51	-0.000
223.72	-0.000
223.94	-0.000
224.15	-0.000
224.36	-0.000
224.58	-0.000
224.79	-0.000
225.01	-0.000
225.22	-0.000
225.44	-0.000
225.65	-0.000
225.86	-0.000
226.08	-0.000
226.29	-0.000
226.51	-0.000
226.72	-0.000
226.93	-0.000
227.15	-0.000
227.36	-0.000
227.58	-0.000
227.79	-0.000
228.00	-0.000
228.22	-0.000
228.43	-0.000
228.65	-0.000
228.86	-0.000
229.07	-0.000
229.29	-0.000
229.50	-0.000
229.72	-0.000
229.93	-0.000
230.14	-0.000
230.36	-0.000
230.57	-0.000
230.78	-0.000
231.00	-0.000
231.21	-0.000
231.43	-0.000
231.64	-0.000
231.85	-0.000
232.07	-0.000
232.28	-0.000
232.50	-0.000
232.71	-0.000
232.92	-0.000
233.14	-0.000
233.35	-0.000
233.56	-0.000
233.78	-0.000
233.99	-0.000
234.21	-0.000
234.42	-0.000
234.63	-0.000
234.85	-0.000
235.06	-0.000
235.27	-0.000
235.49	-0.000
235.70	-0.000
235.91	-0.000
236.13	-0.000
236.34	-0.000
236.56	-0.000
236.77	-0.000
236.98	-0.000
237.20	-0.000
237.41	-0.000
237.62	-0.000
237.84	-0.000
238.05	-0.000
238.26	-0.000
238.48	-0.000
238.69	-0.000
238.91	-0.000
239.12	-0.000
239.33	-0.000
239.55	-0.000
239.76	-0.000
239.97	-0.000
240.19	-0.000
240.40	-0.000
240.61	-0.000
240.83	-0.000
241.04	-0.000
241.25	-0.000
241.47	-0.000
241.68	-0.000
241.89	-0.000
242.11	-0.000
242.32	-0.000
242.53	-0.000
242.75	-0.000
242.96	-0.000
243.17	-0.000
243.39	-0.000
243.60	-0.000
243.81	-0.000
244.03	-0.000
244.24	-0.000
244.45	-0.000
244.67	-0.000
244.88	-0.000
245.09	-0.000
245.31	-0.000
245.52	-0.000
245.73	-0.000
245.95	-0.000
246.16	-0.000
246.37	-0.000
246.59	-0.000
246.80	-0.000
247.01	-0.000
247.23	-0.000
247.44	-0.000
247.65	-0.000
247.87	-0.000
248.08	-0.000
248.29	-0.000
248.51	-0.000
248.72	-0.000
248.93	-0.000
249.15	-0.000
249.36	-0.000
249.57	-0.000
249.78	-0.000
250.00	-0.000
250.21	-0.000
250.42	-0.000
250.64	-0.000
250.85	-0.000
251.06	-0.000
251.28	-0.000
251.49	-0.000
251.70	-0.000
251.92	-0.000
252.13	-0.000
252.34	-0.000
252.55	-0.000
252.77	-0.000
252.98	-0.000
253.19	-0.000
253.41	-0.000
253.62	-0.000
253.83	-0.000
254.05	-0.000
254.26	-0.000
254.47	-0.000
254.68	-0.000
254.90	-0.000
255.11	-0.000
255.32	-0.000
255.54	-0.000
255.75	-0.000
255.96	-0.000
256.17	-0.000
256.39	-0.000
256.60	-0.000
256.81	-0.000
257.03	-0.000
257.24	-0.000
257.45	-0.000
257.66	-0.000
257.88	-0.000
258.09	-0.000
258.30	-0.000
258.51	-0.000
258.73	-0.000
258.94	-0.000
259.15	-0.000
259.37	-0.000
259.58	-0.000
259.79	-0.000
260.00	-0.000
260.22	-0.000
260.43	-0.000
260.64	-0.000
260.85	-0.000
261.07	-0.000
261.28	-0.000
261.49	-0.000
261.71	-0.000
261.92	-0.000
262.13	-0.000
262.34	-0.000
262.56	-0.000
262.77	-0.000
262.98	-0.000
263.19	-0.000
263.41	-0.000
263.62	-0.000
263.83	-0.000
264.04	-0.000
264.26	-0.000
264.47	-0.000
264.68	-0.000
264.89	-0.000
265.11	-0.000
265.32	-0.000
265.53	-0.000
265.74	-0.000
265.96	-0.000
266.17	-0.000
266.38	-0.000
266.59	-0.000
266.81	-0.000
267.02	-0.000
267.23	-0.000
267.44	-0.000
267.65	-0.000
267.87	-0.000
268.08	-0.000
268.29	-0.000
268.50	-0.000
268.72	-0.000
268.93	-0.000
269.14	-0.000
269.35	-0.000
269.57	-0.000
269.78	-0.000
269.99	-0.000
270.20	-0.000
270.41	-0.000
270.63	-0.000
270.84	-0.000
271.05	-0.000
271.26	-0.000
271.48	-0.000
271.69	-0.000
271.90	-0.000
272.11	-0.000
272.32	-0.000
272.54	-0.000
272.75	-0.000
272.96	-0.000
273.17	-0.000
273.39	-0.000
273.60	-0.000
273.81	-0.000
274.02	-0.000
274.23	-0.000
274.45	-0.000
274.66	-0.000
274.87	-0.000
275.08	-0.000
275.29	-0.000
275.51	-0.000
275.72	-0.000
275.93	-0.000
276.14	-0.000
276.35	-0.000
276.57	-0.000
276.78	-0.000
276.99	-0.000
277.20	-0.000
277.41	-0.000
277.63	-0.000
277.84	-0.000
278.05	-0.000
278.26	-0.000
278.47	-0.000
278.69	-0.000
278.90	-0.000
279.11	-0.000
279.32	-0.000
279.53	-0.000
279.74	-0.000
279.96	-0.000
280.17	-0.000
280.38	-0.000
280.59	-0.000
280.80	-0.000
281.02	-0.000
281.23	-0.000
281.44	-0.000
281.65	-0.000
281.86	-0.000
282.07	-0.000
282.29	-0.000
282.50	-0.000
282.71	-0.000
282.92	-0.000
283.13	-0.000
283.35	-0.000
283.56	-0.000
283.77	-0.000
283.98	-0.000
284.19	-0.000
284.40	-0.000
284.62	-0.000
284.83	-0.000
285.04	-0.000
285.25	-0.000
285.46	-0.000
285.67	-0.000
285.88	-0.000
286.10	-0.000
286.31	-0.000
286.52	-0.000
286.73	-0.000
286.94	-0.000
287.15	-0.000
287.37	-0.000
287.58	-0.000
287.79	-0.000
288.00	-0.000
288.21	-0.000
288.42	-0.000
288.63	-0.000
288.85	-0.000
289.06	-0.000
289.27	-0.000
289.48	-0.000
289.69	-0.000
289.90	-0.000
290.11	-0.000
290.33	-0.000
290.54	-0.000
290.75	-0.000
290.96	-0.000
291.17	-0.000
291.38	-0.000
291.59	-0.000
291.81	-0.000
292.02	-0.000
292.23	-0.000
292.44	-0.000
292.65	-0.000
292.86	-0.000
293.07	-0.000
293.28	-0.000
293.50	-0.000
293.71	-0.000
293.92	-0.000
294.13	-0.000
294.34	-0.000
294.55	-0.000
294.76	-0.000
294.97	-0.000
295.19	-0.000
295.40	-0.000
295.61	-0.000
295.82	-0.000
296.03	3.542
296.24	-0.000
296.45	2.048
296.66	1.745
296.87	1.765
297.09	1.815
297.30	1.971
297.51	1.667
297.72	1.636
297.93	1.705
298.14	1.674
298.35	1.631
298.56	1.608
298.77	1.710
298.99	1.686
299.20	1.661
299.41	1.636
299.62	1.594
299.83	1.588
300.04	1.546
300.25	1.536
300.46	1.568
300.67	1.557
300.88	1.512
301.10	1.513
301.31	1.573
301.52	1.523
301.73	1.481
301.94	1.486
302.15	1.499
302.36	1.455
302.57	1.401
302.78	1.407
302.99	1.439
303.20	1.459
303.41	1.379
303.63	1.363
303.84	1.364
304.05	1.361
304.26	1.309
304.47	1.311
304.68	1.310
304.89	1.302
305.10	1.267
305.31	1.254
305.52	1.292
305.73	1.281
305.94	1.245
306.15	1.241
306.37	1.263
306.58	1.270
306.79	1.245
307.00	1.267
307.21	1.304
307.42	1.299
307.63	1.268
307.84	1.238
308.05	1.275
308.26	1.277
308.47	1.258
308.68	1.251
308.89	1.251
309.10	1.246
309.31	1.210
309.52	1.201
309.73	1.212
309.95	1.204
310.16	1.175
310.37	1.166
310.58	1.181
310.79	1.179
311.00	1.177
311.21	1.176
311.42	1.176
311.63	1.169
311.84	1.153
312.05	1.153
312.26	1.175
312.47	1.189
312.68	1.165
312.89	1.148
313.10	1.151
313.31	1.124
313.52	1.127
313.73	1.130
313.94	1.133
314.15	1.115
314.36	1.096
314.57	1.088
314.78	1.074
314.99	1.071
315.21	1.062
315.42	1.068
315.63	1.081
315.84	1.059
316.05	1.045
316.26	1.055
316.47	1.069
316.68	1.067
316.89	1.050
317.10	1.070
317.31	1.075
317.52	1.076
317.73	1.058
317.94	1.056
318.15	1.096
318.36	1.096
318.57	1.079
318.78	1.070
318.99	1.100
319.20	1.099
319.41	1.066
319.62	1.065
319.83	1.075
320.04	1.068
320.25	1.056
320.46	1.024
320.67	1.027
320.88	1.022
321.09	1.011
321.30	0.998
321.51	1.011
321.72	1.010
321.93	0.996
322.14	0.990
322.35	1.017
322.56	1.020
322.77	1.010
322.98	1.019
323.19	1.026
323.40	1.032
323.61	1.012
323.82	1.007
324.03	1.012
324.24	1.009
324.45	0.999
324.66	0.980
324.87	0.974
325.08	0.973
325.29	0.957
325.50	0.955
325.71	0.959
325.92	0.967
326.13	0.953
326.34	0.953
326.55	0.960
326.76	0.958
326.97	0.949
327.18	0.945
327.39	0.967
327.60	0.967
327.80	0.963
328.01	0.962
328.22	0.962
328.43	0.965
328.64	0.954
328.85	0.957
329.06	0.960
329.27	0.960
329.48	0.957
329.69	0.939
329.90	0.948
330.11	0.943
330.32	0.936
330.53	0.928
330.74	0.927
330.95	0.926
331.16	0.914
331.37	0.921
331.58	0.920
331.79	0.919
332.00	0.911
332.21	0.904
332.42	0.907
332.63	0.898
332.83	0.896
333.04	0.898
333.25	0.910
333.46	0.909
333.67	0.895
333.88	0.897
334.09	0.907
334.30	0.903
334.51	0.897
334.72	0.892
334.93	0.895
335.14	0.895
335.35	0.888
335.56	0.882
335.77	0.889
335.98	0.889
336.18	0.883
336.39	0.875
336.60	0.879
336.81	0.877
337.02	0.877
337.23	0.881
337.44	0.883
337.65	0.884
337.86	0.876
338.07	0.871
338.28	0.874
338.49	0.872
338.70	0.866
338.91	0.872
339.11	0.880
339.32	0.875
339.53	0.865
339.74	0.862
339.95	0.857
340.16	0.855
340.37	0.850
340.58	0.848
340.79	0.850
341.00	0.849
341.21	0.840
341.41	0.838
341.62	0.839
341.83	0.841
342.04	0.837
342.25	0.849
342.46	0.853
342.67	0.851
342.88	0.845
343.09	0.845
343.30	0.852
343.50	0.855
343.71	0.846
343.92	0.845
344.13	0.848
344.34	0.848
344.55	0.832
344.76	0.830
344.97	0.834
345.18	0.833
345.38	0.830
345.59	0.826
345.80	0.825
346.01	0.823
346.22	0.820
346.43	0.815
346.64	0.822
346.85	0.821
347.06	0.815
347.26	0.815
347.47	0.818
347.68	0.814
347.89	0.810
348.10	0.805
348.31	0.810
348.52	0.809
348.73	0.807
348.93	0.803
349.14	0.805
349.35	0.804
349.56	0.798
349.77	0.794
349.98	0.798
350.19	0.795
350.39	0.792
350.60	0.789
350.81	0.804
351.02	0.803
351.23	0.799
351.44	0.803
351.65	0.806
351.86	0.803
352.06	0.802
352.27	0.803
352.48	0.804
352.69	0.804
352.90	0.799
353.11	0.785
353.31	0.791
353.52	0.787
353.73	0.778
353.94	0.779
354.15	0.784
354.36	0.784
354.57	0.775
354.77	0.778
354.98	0.777
355.19	0.776
355.40	0.776
355.61	0.782
355.82	0.787
356.02	0.787
356.23	0.780
356.44	0.782
356.65	0.785
356.86	0.785
357.07	0.779
357.27	0.782
357.48	0.783
357.69	0.778
357.90	0.763
358.11	0.759
358.32	0.762
358.52	0.765
358.73	0.755
358.94	0.758
359.15	0.764
359.36	0.764
359.56	0.760
359.77	0.758
359.98	0.766
360.19	0.766
360.40	0.763
360.61	0.764
360.81	0.763
361.02	0.764
361.23	0.756
361.44	0.754
361.65	0.754
361.85	0.753
362.06	0.752
362.27	0.752
362.48	0.753
362.69	0.755
362.89	0.748
363.10	0.750
363.31	0.753
363.52	0.756
363.73	0.751
363.93	0.751
364.14	0.752
364.35	0.754
364.56	0.745
364.77	0.747
364.97	0.749
365.18	0.750
365.39	0.744
365.60	0.741
365.81	0.741
366.01	0.742
366.22	0.739
366.43	0.738
366.64	0.739
366.84	0.745
367.05	0.741
367.26	0.741
367.47	0.742
367.68	0.743
367.88	0.741
368.09	0.739
368.30	0.741
368.51	0.740
368.71	0.740
368.92	0.744
369.13	0.741
369.34	0.741
369.55	0.740
369.75	0.740
369.96	0.746
370.17	0.745
370.38	0.743
370.58	0.741
370.79	0.746
371.00	0.744
371.21	0.736
371.41	0.742
371.62	0.746
371.83	0.742
372.04	0.739
372.24	0.732
372.45	0.734
372.66	0.734
372.87	0.733
373.07	0.730
373.28	0.731
373.49	0.735
373.70	0.725
373.90	0.725
374.11	0.733
374.32	0.733
374.53	0.733
374.73	0.734
374.94	0.735
375.15	0.735
375.36	0.733
375.56	0.741
375.77	0.741
375.98	0.742
376.19	0.739
376.39	0.732
376.60	0.735
376.81	0.735
377.02	0.732
377.22	0.731
377.43	0.731
377.64	0.731
377.84	0.722
378.05	0.726
378.26	0.732
378.47	0.731
378.67	0.728
378.88	0.727
379.09	0.728
379.30	0.728
379.50	0.726
379.71	0.727
379.92	0.731
380.12	0.731
380.33	0.723
380.54	0.719
380.75	0.725
380.95	0.726
381.16	0.724
381.37	0.724
381.57	0.725
381.78	0.726
381.99	0.725
382.20	0.723
382.40	0.726
382.61	0.727
382.82	0.724
383.02	0.717
383.23	0.720
383.44	0.720
383.64	0.720
383.85	0.722
384.06	0.725
384.27	0.723
384.47	0.722
384.68	0.723
384.89	0.728
385.09	0.728
385.30	0.729
385.51	0.727
385.71	0.730
385.92	0.730
386.13	0.729
386.33	0.731
386.54	0.731
386.75	0.730
386.95	0.725
387.16	0.721
387.37	0.723
387.58	0.722
387.78	0.720
387.99	0.719
388.20	0.721
388.40	0.718
388.61	0.714
388.82	0.718
389.02	0.720
389.23	0.720
389.44	0.719
389.64	0.720
389.85	0.732
390.06	0.731
390.26	0.731
390.47	0.731
390.68	0.733
390.88	0.732
391.09	0.728
391.30	0.727
391.50	0.727
391.71	0.728
391.92	0.725
392.12	0.717
392.33	0.718
392.53	0.718
392.74	0.719
392.95	0.718
393.15	0.721
393.36	0.723
393.57	0.722
393.77	0.724
393.98	0.725
394.19	0.724
394.39	0.725
394.60	0.726
394.81	0.727
395.01	0.725
395.22	0.724
395.43	0.724
395.63	0.728
395.84	0.729
396.04	0.726
396.25	0.728
396.46	0.730
396.66	0.728
396.87	0.726
397.08	0.724
397.28	0.726
397.49	0.726
397.69	0.723
397.90	0.719
398.11	0.720
398.31	0.721
398.52	0.717
398.73	0.719
398.93	0.718
399.14	0.717
399.34	0.715
399.55	0.717
399.76	0.717
399.96	0.718
400.17	0.716
400.37	0.715
400.58	0.721
400.79	0.723
400.99	0.721
401.20	0.726
401.41	0.728
401.61	0.729
401.82	0.734
402.02	0.734
402.23	0.735
402.44	0.735
402.64	0.735
402.85	0.730
403.05	0.728
403.26	0.727
403.47	0.721
403.67	0.719
403.88	0.719
404.08	0.714
404.29	0.711
404.50	0.710
404.70	0.710
404.91	0.710
405.11	0.708
405.32	0.708
405.52	0.708
405.73	0.708
405.94	0.708
406.14	0.711
406.35	0.713
406.55	0.713
406.76	0.712
406.97	0.713
407.17	0.715
407.38	0.714
407.58	0.713
407.79	0.716
407.99	0.719
408.20	0.719
408.41	0.715
408.61	0.713
408.82	0.714
409.02	0.714
409.23	0.712
409.43	0.711
409.64	0.713
409.84	0.712
410.05	0.709
410.26	0.708
410.46	0.707
410.67	0.707
410.87	0.709
411.08	0.711
411.28	0.711
411.49	0.712
411.69	0.710
411.90	0.712
412.11	0.714
412.31	0.715
412.52	0.715
412.72	0.715
412.93	0.716
413.13	0.715
413.34	0.712
413.54	0.713
413.75	0.715
413.95	0.714
414.16	0.711
414.37	0.713
414.57	0.714
414.78	0.715
414.98	0.714
415.19	0.715
415.39	0.713
415.60	0.714
415.80	0.713
416.01	0.712
416.21	0.713
416.42	0.713
416.62	0.708
416.83	0.707
417.03	0.707
417.24	0.707
417.44	0.704
417.65	0.703
417.86	0.704
418.06	0.702
418.27	0.700
418.47	0.702
418.68	0.702
418.88	0.703
419.09	0.702
419.29	0.703
419.50	0.704
419.70	0.703
419.91	0.702
420.11	0.700
420.32	0.703
420.52	0.702
420.73	0.701
420.93	0.702
421.14	0.703
421.34	0.702
421.55	0.699
421.75	0.698
421.96	0.699
422.16	0.699
422.37	0.698
422.57	0.694
422.78	0.696
422.98	0.693
423.19	0.691
423.39	0.689
423.60	0.692
423.80	0.694
424.01	0.692
424.21	0.694
424.42	0.695
424.62	0.695
424.83	0.695
425.03	0.695
425.23	0.697
425.44	0.697
425.64	0.696
425.85	0.696
426.05	0.696
426.26	0.696
426.46	0.693
426.67	0.692
426.87	0.697
427.08	0.697
427.28	0.695
427.49	0.696
427.69	0.697
427.90	0.697
428.10	0.694
428.31	0.694
428.51	0.696
428.71	0.695
428.92	0.696
429.12	0.693
429.33	0.693
429.53	0.697
429.74	0.701
429.94	0.702
430.15	0.701
430.35	0.701
430.56	0.698
430.76	0.697
430.96	0.698
431.17	0.695
431.37	0.692
431.58	0.690
431.78	0.687
431.99	0.680
432.19	0.682
432.40	0.683
432.60	0.683
432.80	0.686
433.01	0.685
433.21	0.685
433.42	0.686
433.62	0.687
433.83	0.687
434.03	0.689
434.23	0.692
434.44	0.691
434.64	0.689
434.85	0.694
435.05	0.695
435.26	0.695
435.46	0.693
435.66	0.693
435.87	0.692
436.07	0.692
436.28	0.688
436.48	0.685
436.69	0.684
436.89	0.684
437.09	0.679
437.30	0.678
437.50	0.677
437.71	0.689
437.91	0.689
438.11	0.690
438.32	0.694
438.52	0.695
438.73	0.694
438.93	0.692
439.13	0.691
439.34	0.694
439.54	0.692
439.75	0.692
439.95	0.682
440.15	0.686
440.36	0.684
440.56	0.682
440.77	0.682
440.97	0.682
441.17	0.681
441.38	0.683
441.58	0.680
441.79	0.679
441.99	0.678
442.19	0.677
442.40	0.675
442.60	0.674
442.81	0.672
443.01	0.672
443.21	0.672
443.42	0.672
443.62	0.671
443.82	0.671
444.03	0.673
444.23	0.672
444.44	0.672
444.64	0.671
444.84	0.672
445.05	0.672
445.25	0.670
445.45	0.670
445.66	0.671
445.86	0.670
446.06	0.672
446.27	0.671
446.47	0.674
446.68	0.673
446.88	0.672
447.08	0.671
447.29	0.673
447.49	0.673
447.69	0.674
447.90	0.672
448.10	0.675
448.30	0.672
448.51	0.674
448.71	0.671
448.91	0.673
449.12	0.671
449.32	0.672
449.52	0.671
449.73	0.674
449.93	0.673
450.14	0.673
450.34	0.672
450.54	0.675
450.75	0.672
450.95	0.671
451.15	0.671
451.36	0.674
451.56	0.671
451.76	0.670
451.97	0.667
452.17	0.668
452.37	0.667
452.58	0.663
452.78	0.663
452.98	0.665
453.19	0.664
453.39	0.665
453.59	0.663
453.79	0.663
454.00	0.664
454.20	0.662
454.40	0.663
454.61	0.665
454.81	0.666
455.01	0.664
455.22	0.665
455.42	0.667
455.62	0.665
455.83	0.665
456.03	0.667
456.23	0.668
456.44	0.669
456.64	0.668
456.84	0.668
457.04	0.668
457.25	0.668
457.45	0.665
457.65	0.664
457.86	0.665
458.06	0.663
458.26	0.659
458.47	0.659
458.67	0.660
458.87	0.660
459.07	0.658
459.28	0.660
459.48	0.662
459.68	0.661
459.89	0.660
460.09	0.659
460.29	0.660
460.49	0.661
460.70	0.660
460.90	0.659
461.10	0.660
461.31	0.660
461.51	0.657
461.71	0.658
461.91	0.659
462.12	0.660
462.32	0.659
462.52	0.660
462.72	0.662
462.93	0.663
463.13	0.661
463.33	0.662
463.53	0.664
463.74	0.663
463.94	0.660
464.14	0.661
464.35	0.662
464.55	0.661
464.75	0.660
464.95	0.658
465.16	0.659
465.36	0.658
465.56	0.657
465.76	0.657
465.97	0.657
466.17	0.657
466.37	0.655
466.57	0.656
466.78	0.656
466.98	0.657
467.18	0.655
467.38	0.654
467.59	0.655
467.79	0.656
467.99	0.655
468.19	0.656
468.39	0.659
468.60	0.659
468.80	0.658
469.00	0.659
469.20	0.659
469.41	0.660
469.61	0.659
469.81	0.660
470.01	0.659
470.22	0.660
470.42	0.658
470.62	0.656
470.82	0.657
471.02	0.657
471.23	0.655
471.43	0.656
471.63	0.658
471.83	0.658
472.04	0.656
472.24	0.655
472.44	0.660
472.64	0.660
472.84	0.658
473.05	0.658
473.25	0.660
473.45	0.659
473.65	0.657
473.85	0.658
474.06	0.659
474.26	0.659
474.46	0.661
474.66	0.657
474.86	0.658
475.07	0.657
475.27	0.656
475.47	0.654
475.67	0.654
475.87	0.656
476.08	0.652
476.28	0.653
476.48	0.654
476.68	0.652
476.88	0.650
477.09	0.651
477.29	0.653
477.49	0.653
477.69	0.652
477.89	0.653
478.09	0.652
478.30	0.655
478.50	0.652
478.70	0.652
478.90	0.653
479.10	0.655
479.31	0.656
479.51	0.654
479.71	0.654
479.91	0.654
480.11	0.653
480.31	0.653
480.52	0.651
480.72	0.651
480.92	0.650
481.12	0.649
481.32	0.647
481.52	0.645
481.72	0.645
481.93	0.649
482.13	0.650
482.33	0.650
482.53	0.648
482.73	0.648
482.93	0.649
483.14	0.648
483.34	0.648
483.54	0.648
483.74	0.648
483.94	0.647
484.14	0.643
484.34	0.644
484.55	0.644
484.75	0.644
484.95	0.642
485.15	0.642
485.35	0.642
485.55	0.642
485.75	0.640
485.96	0.640
486.16	0.642
486.36	0.641
486.56	0.639
486.76	0.639
486.96	0.639
487.16	0.638
487.36	0.637
487.57	0.636
487.77	0.637
487.97	0.637
488.17	0.635
488.37	0.634
488.57	0.634
488.77	0.634
488.97	0.633
489.18	0.633
489.38	0.635
489.58	0.636
489.78	0.635
489.98	0.635
490.18	0.635
490.38	0.636
490.58	0.635
490.78	0.636
490.98	0.637
491.19	0.637
491.39	0.637
491.59	0.635
491.79	0.638
491.99	0.638
492.19	0.637
492.39	0.640
492.59	0.640
492.79	0.642
492.99	0.643
493.20	0.643
493.40	0.644
493.60	0.645
493.80	0.643
494.00	0.641
494.20	0.642
494.40	0.641
494.60	0.638
494.80	0.642
495.00	0.641
495.20	0.639
495.40	0.638
495.61	0.640
495.81	0.639
496.01	0.643
496.21	0.644
496.41	0.643
496.61	0.644
496.81	0.643
497.01	0.638
497.21	0.638
497.41	0.638
497.61	0.638
497.81	0.635
498.01	0.635
498.21	0.633
498.41	0.632
498.61	0.632
498.82	0.633
499.02	0.635
499.22	0.635
499.42	0.635
499.62	0.636
499.82	0.637
500.02	0.639
500.22	0.638
500.42	0.639
500.62	0.640
500.82	0.641
501.02	0.638
501.22	0.639
501.42	0.639
501.62	0.641
501.82	0.640
502.02	0.640
502.22	0.640
502.42	0.641
502.62	0.639
502.82	0.639
503.02	0.639
503.22	0.639
503.42	0.638
503.63	0.638
503.83	0.635
504.03	0.634
504.23	0.632
504.43	0.633
504.63	0.633
504.83	0.633
505.03	0.632
505.23	0.634
505.43	0.636
505.63	0.636
505.83	0.635
506.03	0.637
506.23	0.639
506.43	0.639
506.63	0.638
506.83	0.637
507.03	0.639
507.23	0.639
507.43	0.636
507.63	0.636
507.83	0.636
508.03	0.636
508.23	0.635
508.43	0.635
508.63	0.636
508.83	0.637
509.03	0.638
509.23	0.637
509.43	0.638
509.63	0.639
509.83	0.638
510.03	0.641
510.23	0.642
510.43	0.643
510.63	0.643
510.83	0.643
511.03	0.645
511.23	0.642
511.43	0.642
511.63	0.643
511.83	0.644
512.03	0.644
512.22	0.641
512.42	0.641
512.62	0.642
512.82	0.642
513.02	0.641
513.22	0.641
513.42	0.643
513.62	0.646
513.82	0.644
514.02	0.644
514.22	0.645
514.42	0.645
514.62	0.645
514.82	0.645
515.02	0.647
515.22	0.650
515.42	0.648
515.62	0.650
515.82	0.649
516.02	0.650
516.22	0.650
516.42	0.652
516.62	0.653
516.82	0.654
517.01	0.653
517.21	0.652
517.41	0.656
517.61	0.657
517.81	0.653
518.01	0.652
518.21	0.652
518.41	0.651
518.61	0.650
518.81	0.650
519.01	0.650
519.21	0.650
519.41	0.649
519.61	0.644
519.81	0.646
520.00	0.647
520.20	0.647
520.40	0.650
520.60	0.651
520.80	0.650
521.00	0.652
521.20	0.652
521.40	0.657
521.60	0.658
521.80	0.657
522.00	0.657
522.20	0.659
522.39	0.659
522.59	0.656
522.79	0.657
522.99	0.658
523.19	0.656
523.39	0.654
523.59	0.652
523.79	0.655
523.99	0.657
524.19	0.656
524.38	0.655
524.58	0.656
524.78	0.656
524.98	0.654
525.18	0.656
525.38	0.658
525.58	0.658
525.78	0.656
525.98	0.655
526.18	0.655
526.37	0.655
526.57	0.656
526.77	0.656
526.97	0.657
527.17	0.658
527.37	0.654
527.57	0.657
527.77	0.657
527.96	0.657
528.16	0.656
528.36	0.657
528.56	0.658
528.76	0.656
528.96	0.655
529.16	0.656
529.36	0.658
529.55	0.658
529.75	0.655
529.95	0.655
530.15	0.656
530.35	0.659
530.55	0.656
530.75	0.657
530.94	0.658
531.14	0.659
531.34	0.658
531.54	0.657
531.74	0.659
531.94	0.662
532.13	0.661
532.33	0.663
532.53	0.661
532.73	0.661
532.93	0.660
533.13	0.661
533.33	0.661
533.52	0.662
533.72	0.664
533.92	0.663
534.12	0.661
534.32	0.661
534.52	0.659
534.71	0.662
534.91	0.664
535.11	0.665
535.31	0.663
535.51	0.665
535.71	0.667
535.90	0.664
536.10	0.666
536.30	0.668
536.50	0.668
536.70	0.669
536.89	0.666
537.09	0.666
537.29	0.667
537.49	0.668
537.69	0.667
537.89	0.667
538.08	0.666
538.28	0.664
538.48	0.664
538.68	0.666
538.88	0.668
539.07	0.668
539.27	0.666
539.47	0.665
539.67	0.664
539.87	0.666
540.06	0.663
540.26	0.665
540.46	0.667
540.66	0.664
540.86	0.661
541.05	0.661
541.25	0.663
541.45	0.663
541.65	0.662
541.84	0.664
542.04	0.664
542.24	0.665
542.44	0.664
542.64	0.665
542.83	0.668
543.03	0.669
543.23	0.667
543.43	0.667
543.62	0.668
543.82	0.668
544.02	0.667
544.22	0.667
544.42	0.671
544.61	0.671
544.81	0.668
545.01	0.666
545.21	0.669
545.40	0.669
545.60	0.668
545.80	0.671
546.00	0.671
546.19	0.670
546.39	0.669
546.59	0.666
546.79	0.668
546.98	0.668
547.18	0.668
547.38	0.669
547.58	0.671
547.77	0.670
547.97	0.667
548.17	0.669
548.37	0.669
548.56	0.669
548.76	0.669
548.96	0.670
549.16	0.673
549.35	0.672
549.55	0.670
549.75	0.671
549.95	0.674
550.14	0.674
550.34	0.672
550.54	0.678
550.73	0.681
550.93	0.681
551.13	0.678
551.33	0.677
551.52	0.677
551.72	0.679
551.92	0.677
552.12	0.678
552.31	0.679
552.51	0.679
552.71	0.674
552.90	0.674
553.10	0.675
553.30	0.674
553.50	0.674
553.69	0.675
553.89	0.675
554.09	0.675
554.28	0.672
554.48	0.673
554.68	0.674
554.87	0.675
555.07	0.672
555.27	0.672
555.47	0.674
555.66	0.675
555.86	0.675
556.06	0.677
556.25	0.677
556.45	0.685
556.65	0.683
556.84	0.686
557.04	0.689
557.24	0.691
557.43	0.690
557.63	0.693
557.83	0.695
558.02	0.695
558.22	0.700
558.42	0.700
558.61	0.694
558.81	0.694
559.01	0.691
559.21	0.691
559.40	0.691
559.60	0.691
559.80	0.688
559.99	0.689
560.19	0.690
560.39	0.684
560.58	0.682
560.78	0.681
560.97	0.685
561.17	0.684
561.37	0.681
561.56	0.682
561.76	0.683
561.96	0.683
562.15	0.681
562.35	0.683
562.55	0.684
562.74	0.684
562.94	0.683
563.14	0.680
563.33	0.681
563.53	0.681
563.73	0.679
563.92	0.680
564.12	0.682
564.31	0.684
564.51	0.682
564.71	0.684
564.90	0.687
565.10	0.688
565.30	0.691
565.49	0.692
565.69	0.694
565.89	0.695
566.08	0.692
566.28	0.694
566.47	0.696
566.67	0.694
566.87	0.692
567.06	0.693
567.26	0.700
567.46	0.696
567.65	0.695
567.85	0.696
568.04	0.699
568.24	0.699
568.44	0.696
568.63	0.694
568.83	0.696
569.02	0.694
569.22	0.690
569.42	0.686
569.61	0.688
569.81	0.687
570.00	0.685
570.20	0.686
570.40	0.687
570.59	0.686
570.79	0.685
570.98	0.683
571.18	0.684
571.38	0.684
571.57	0.681
571.77	0.679
571.96	0.682
572.16	0.679
572.35	0.674
572.55	0.675
572.75	0.673
572.94	0.673
573.14	0.671
573.33	0.672
573.53	0.672
573.73	0.671
573.92	0.670
574.12	0.668
574.31	0.671
574.51	0.672
574.70	0.669
574.90	0.671
575.09	0.673
575.29	0.673
575.49	0.671
575.68	0.671
575.88	0.673
576.07	0.674
576.27	0.672
576.46	0.670
576.66	0.670
576.86	0.669
577.05	0.667
577.25	0.665
577.44	0.666
577.64	0.666
577.83	0.665
578.03	0.666
578.22	0.665
578.42	0.664
578.61	0.663
578.81	0.664
579.00	0.664
579.20	0.664
579.40	0.663
579.59	0.662
579.79	0.663
579.98	0.662
580.18	0.661
580.37	0.661
580.57	0.663
580.76	0.667
580.96	0.666
581.15	0.666
581.35	0.668
581.54	0.667
581.74	0.666
581.93	0.668
582.13	0.669
582.32	0.666
582.52	0.665
582.71	0.664
582.91	0.660
583.10	0.660
583.30	0.659
583.49	0.658
583.69	0.662
583.88	0.663
584.08	0.662
584.27	0.665
584.47	0.668
584.66	0.669
584.86	0.668
585.05	0.671
585.25	0.673
585.44	0.673
585.64	0.671
585.83	0.668
586.03	0.668
586.22	0.666
586.42	0.662
586.61	0.663
586.81	0.664
587.00	0.664
587.20	0.661
587.39	0.661
587.59	0.663
587.78	0.664
587.98	0.665
588.17	0.666
588.37	0.668
588.56	0.670
588.76	0.667
588.95	0.667
589.15	0.671
589.34	0.674
589.54	0.673
589.73	0.673
589.92	0.676
590.12	0.676
590.31	0.674
590.51	0.679
590.70	0.681
590.90	0.682
591.09	0.680
591.29	0.678
591.48	0.678
591.68	0.679
591.87	0.678
592.06	0.677
592.26	0.679
592.45	0.678
592.65	0.672
592.84	0.671
593.04	0.673
593.23	0.675
593.43	0.673
593.62	0.672
593.81	0.673
594.01	0.672
594.20	0.670
594.40	0.669
594.59	0.670
594.79	0.671
594.98	0.670
595.17	0.669
595.37	0.670
595.56	0.672
595.76	0.672
595.95	0.674
596.14	0.676
596.34	0.678
596.53	0.677
596.73	0.679
596.92	0.680
597.12	0.683
597.31	0.683
597.50	0.682
597.70	0.684
597.89	0.683
598.09	0.679
598.28	0.681
598.47	0.683
598.67	0.682
598.86	0.678
599.06	0.679
599.25	0.679
599.44	0.678
599.64	0.676
599.83	0.673
600.03	0.676
600.22	0.676
600.41	0.676
600.61	0.673
600.80	0.676
601.00	0.676
601.19	0.672
601.38	0.670
601.58	0.672
601.77	0.672
601.96	0.674
602.16	0.675
602.35	0.684
602.55	0.682
602.74	0.683
602.93	0.684
603.13	0.689
603.32	0.691
603.51	0.691
603.71	0.695
603.90	0.697
604.09	0.698
604.29	0.695
604.48	0.690
604.68	0.691
604.87	0.689
605.06	0.686
605.26	0.683
605.45	0.683
605.64	0.683
605.84	0.678
606.03	0.677
606.22	0.675
606.42	0.675
606.61	0.671
606.80	0.671
607.00	0.673
607.19	0.673
607.38	0.671
607.58	0.673
607.77	0.675
607.96	0.675
608.16	0.673
608.35	0.677
608.54	0.680
608.74	0.683
608.93	0.688
609.12	0.690
609.32	0.692
609.51	0.696
609.70	0.694
609.90	0.697
610.09	0.701
610.28	0.706
610.48	0.701
610.67	0.702
610.86	0.703
611.06	0.697
611.25	0.695
611.44	0.696
611.64	0.696
611.83	0.699
612.02	0.697
612.21	0.695
612.41	0.693
612.60	0.692
612.79	0.689
612.99	0.689
613.18	0.692
613.37	0.689
613.57	0.687
613.76	0.688
613.95	0.686
614.14	0.685
614.34	0.682
614.53	0.683
614.72	0.686
614.92	0.686
615.11	0.683
615.30	0.680
615.49	0.681
615.69	0.683
615.88	0.681
616.07	0.681
616.26	0.683
616.46	0.684
616.65	0.681
616.84	0.679
617.04	0.680
617.23	0.683
617.42	0.683
617.61	0.686
617.81	0.686
618.00	0.688
618.19	0.687
618.38	0.691
618.58	0.695
618.77	0.696
618.96	0.696
619.15	0.699
619.35	0.700
619.54	0.702
619.73	0.698
619.92	0.699
620.12	0.702
620.31	0.703
620.50	0.698
620.69	0.697
620.89	0.700
621.08	0.700
621.27	0.699
621.46	0.698
621.66	0.702
621.85	0.702
622.04	0.700
622.23	0.701
622.43	0.702
622.62	0.702
622.81	0.701
623.00	0.701
623.19	0.704
623.39	0.703
623.58	0.700
623.77	0.699
623.96	0.702
624.16	0.701
624.35	0.696
624.54	0.698
624.73	0.701
624.92	0.700
625.12	0.697
625.31	0.697
625.50	0.699
625.69	0.701
625.88	0.697
626.08	0.696
626.27	0.698
626.46	0.698
626.65	0.695
626.84	0.695
627.04	0.700
627.23	0.700
627.42	0.697
627.61	0.699
627.80	0.701
628.00	0.701
628.19	0.699
628.38	0.702
628.57	0.704
628.76	0.705
628.96	0.702
629.15	0.702
629.34	0.704
629.53	0.704
629.72	0.700
629.91	0.701
630.11	0.706
630.30	0.706
630.49	0.709
630.68	0.709
630.87	0.712
631.06	0.714
631.26	0.710
631.45	0.711
631.64	0.719
631.83	0.721
632.02	0.718
632.21	0.716
632.41	0.722
632.60	0.717
632.79	0.716
632.98	0.716
633.17	0.717
633.36	0.719
633.55	0.716
633.75	0.712
633.94	0.713
634.13	0.714
634.32	0.712
634.51	0.707
634.70	0.709
634.89	0.708
635.09	0.705
635.28	0.705
635.47	0.705
635.66	0.708
635.85	0.705
636.04	0.706
636.23	0.710
636.43	0.711
636.62	0.710
636.81	0.709
637.00	0.711
637.19	0.714
637.38	0.711
637.57	0.712
637.76	0.712
637.95	0.712
638.15	0.709
638.34	0.706
638.53	0.708
638.72	0.709
638.91	0.707
639.10	0.705
639.29	0.705
639.48	0.707
639.67	0.707
639.87	0.706
640.06	0.712
640.25	0.711
640.44	0.713
640.63	0.714
640.82	0.717
641.01	0.716
641.20	0.716
641.39	0.719
641.58	0.720
641.78	0.718
641.97	0.715
642.16	0.728
642.35	0.729
642.54	0.727
642.73	0.722
642.92	0.721
643.11	0.724
643.30	0.723
643.49	0.716
643.68	0.719
643.87	0.720
644.06	0.721
644.25	0.701
644.45	0.703
644.64	0.704
644.83	0.704
645.02	0.701
645.21	0.701
645.40	0.703
645.59	0.704
645.78	0.699
645.97	0.702
646.16	0.702
646.35	0.702
646.54	0.700
646.73	0.701
646.92	0.702
647.11	0.702
647.30	0.698
647.49	0.699
647.68	0.699
647.88	0.698
648.07	0.691
648.26	0.694
648.45	0.696
648.64	0.692
648.83	0.691
649.02	0.693
649.21	0.703
649.40	0.703
649.59	0.699
649.78	0.699
649.97	0.713
650.16	0.712
650.35	0.707
650.54	0.710
650.73	0.717
650.92	0.714
651.11	0.709
651.30	0.706
651.49	0.710
651.68	0.710
651.87	0.707
652.06	0.696
652.25	0.699
652.44	0.702
652.63	0.700
652.82	0.702
653.01	0.702
653.20	0.700
653.39	0.688
653.58	0.686
653.77	0.685
653.96	0.681
654.15	0.674
654.34	0.672
654.53	0.667
654.72	0.661
654.91	0.651
655.10	0.646
655.29	0.645
655.48	0.643
655.67	0.637
655.86	0.634
656.05	0.633
656.24	0.632
656.43	0.627
656.62	0.626
656.81	0.625
657.00	0.623
657.19	0.619
657.38	0.618
657.57	0.616
657.76	0.619
657.95	0.616
658.14	0.619
658.33	0.622
658.51	0.626
658.70	0.626
658.89	0.628
659.08	0.637
659.27	0.646
659.46	0.647
659.65	0.654
659.84	0.657
660.03	0.661
660.22	0.662
660.41	0.666
660.60	0.666
660.79	0.666
660.98	0.672
661.17	0.671
661.36	0.670
661.55	0.671
661.74	0.669
661.92	0.671
662.11	0.673
662.30	0.671
662.49	0.664
662.68	0.664
662.87	0.667
663.06	0.662
663.25	0.663
663.44	0.663
663.63	0.664
663.82	0.663
664.01	0.659
664.20	0.658
664.38	0.659
664.57	0.660
664.76	0.660
664.95	0.661
665.14	0.664
665.33	0.659
665.52	0.666
665.71	0.671
665.90	0.669
666.09	0.671
666.28	0.669
666.46	0.668
666.65	0.668
666.84	0.666
667.03	0.660
667.22	0.659
667.41	0.662
667.60	0.651
667.79	0.645
667.98	0.646
668.16	0.646
668.35	0.646
668.54	0.643
668.73	0.644
668.92	0.644
669.11	0.644
669.30	0.639
669.49	0.634
669.67	0.636
669.86	0.638
670.05	0.636
670.24	0.633
670.43	0.631
670.62	0.630
670.81	0.625
671.00	0.626
671.18	0.626
671.37	0.625
671.56	0.623
671.75	0.622
671.94	0.619
672.13	0.617
672.32	0.613
672.50	0.612
672.69	0.613
672.88	0.613
673.07	0.607
673.26	0.609
673.45	0.610
673.63	0.610
673.82	0.607
674.01	0.609
674.20	0.608
674.39	0.608
674.58	0.607
674.76	0.607
674.95	0.606
675.14	0.607
675.33	0.603
675.52	0.603
675.71	0.602
675.89	0.601
676.08	0.597
676.27	0.598
676.46	0.598
676.65	0.598
676.84	0.597
677.02	0.599
677.21	0.601
677.40	0.599
677.59	0.597
677.78	0.598
677.96	0.600
678.15	0.600
678.34	0.599
678.53	0.599
678.72	0.599
678.90	0.595
679.09	0.591
679.28	0.588
679.47	0.588
679.66	0.588
679.84	0.585
680.03	0.581
680.22	0.579
680.41	0.580
680.60	0.577
680.78	0.576
680.97	0.578
681.16	0.578
681.35	0.577
681.53	0.575
681.72	0.576
681.91	0.578
682.10	0.577
682.29	0.580
682.47	0.578
682.66	0.576
682.85	0.575
683.04	0.573
683.22	0.574
683.41	0.575
683.60	0.574
683.79	0.576
683.97	0.574
684.16	0.574
684.35	0.570
684.54	0.571
684.72	0.573
684.91	0.573
685.10	0.572
685.29	0.573
685.47	0.570
685.66	0.569
685.85	0.565
686.04	0.565
686.22	0.566
686.41	0.569
686.60	0.566
686.79	0.569
686.97	0.569
687.16	0.571
687.35	0.568
687.54	0.572
687.72	0.576
687.91	0.576
688.10	0.578
688.29	0.578
688.47	0.575
688.66	0.575
688.85	0.572
689.03	0.569
689.22	0.574
689.41	0.574
689.60	0.569
689.78	0.567
689.97	0.567
690.16	0.564
690.34	0.560
690.53	0.560
690.72	0.560
690.91	0.558
691.09	0.556
691.28	0.551
691.47	0.549
691.65	0.548
691.84	0.546
692.03	0.545
692.21	0.543
692.40	0.543
692.59	0.541
692.77	0.540
692.96	0.541
693.15	0.541
693.34	0.539
693.52	0.539
693.71	0.539
693.90	0.540
694.08	0.541
694.27	0.542
694.46	0.551
694.64	0.551
694.83	0.551
695.02	0.550
695.20	0.550
695.39	0.550
695.58	0.550
695.76	0.550
695.95	0.549
696.14	0.548
696.32	0.546
696.51	0.537
696.70	0.537
696.88	0.538
697.07	0.537
697.26	0.538
697.44	0.539
697.63	0.538
697.81	0.536
698.00	0.536
698.19	0.535
698.37	0.535
698.56	0.535
698.75	0.534
698.93	0.534
699.12	0.534
699.31	0.533
699.49	0.533
699.68	0.533
699.87	0.536
700.05	0.536
700.24	0.535
700.42	0.537
700.61	0.536
700.80	0.535
700.98	0.535
701.17	0.537
701.36	0.536
701.54	0.536
701.73	0.536
701.91	0.534
702.10	0.533
702.29	0.531
702.47	0.529
702.66	0.531
702.84	0.532
703.03	0.529
703.22	0.531
703.40	0.530
703.59	0.530
703.77	0.530
703.96	0.530
704.15	0.530
704.33	0.530
704.52	0.530
704.70	0.529
704.89	0.529
705.08	0.528
705.26	0.524
705.45	0.525
705.63	0.524
705.82	0.521
706.00	0.520
706.19	0.519
706.38	0.520
706.56	0.519
706.75	0.518
706.93	0.516
707.12	0.517
707.30	0.517
707.49	0.515
707.68	0.513
707.86	0.512
708.05	0.513
708.23	0.510
708.42	0.510
708.60	0.512
708.79	0.512
708.98	0.510
709.16	0.510
709.35	0.512
709.53	0.516
709.72	0.515
709.90	0.517
710.09	0.518
710.27	0.521
710.46	0.524
710.64	0.523
710.83	0.525
711.02	0.526
711.20	0.525
711.39	0.523
711.57	0.521
711.76	0.522
711.94	0.520
712.13	0.521
712.31	0.520
712.50	0.516
712.68	0.513
712.87	0.515
713.05	0.515
713.24	0.515
713.42	0.515
713.61	0.515
713.79	0.516
713.98	0.516
714.16	0.518
714.35	0.517
714.54	0.518
714.72	0.518
714.91	0.515
715.09	0.522
715.28	0.525
715.46	0.524
715.65	0.523
715.83	0.523
716.02	0.524
716.20	0.520
716.39	0.519
716.57	0.521
716.76	0.524
716.94	0.524
717.12	0.517
717.31	0.518
717.49	0.521
717.68	0.522
717.86	0.522
718.05	0.524
718.23	0.527
718.42	0.529
718.60	0.530
718.79	0.537
718.97	0.539
719.16	0.539
719.34	0.536
719.53	0.536
719.71	0.536
719.90	0.537
720.08	0.534
720.27	0.534
720.45	0.535
720.63	0.533
720.82	0.527
721.00	0.530
721.19	0.532
721.37	0.531
721.56	0.532
721.74	0.535
721.93	0.543
722.11	0.549
722.30	0.548
722.48	0.552
722.66	0.553
722.85	0.553
723.03	0.554
723.22	0.552
723.40	0.555
723.59	0.555
723.77	0.558
723.95	0.551
724.14	0.554
724.32	0.555
724.51	0.555
724.69	0.556
724.88	0.556
725.06	0.555
725.24	0.556
725.43	0.558
725.61	0.561
725.80	0.554
725.98	0.554
726.16	0.550
726.35	0.556
726.53	0.555
726.72	0.554
726.90	0.563
727.09	0.563
727.27	0.568
727.45	0.565
727.64	0.574
727.82	0.583
728.01	0.587
728.19	0.585
728.37	0.589
728.56	0.593
728.74	0.600
728.92	0.590
729.11	0.592
729.29	0.589
729.48	0.593
729.66	0.582
729.84	0.582
730.03	0.584
730.21	0.586
730.40	0.578
730.58	0.578
730.76	0.579
730.95	0.580
731.13	0.581
731.31	0.595
731.50	0.604
731.68	0.607
731.86	0.604
732.05	0.617
732.23	0.620
732.42	0.623
732.60	0.626
732.78	0.630
732.97	0.647
733.15	0.653
733.33	0.642
733.52	0.649
733.70	0.657
733.88	0.665
734.07	0.653
734.25	0.676
734.43	0.682
734.62	0.686
734.80	0.680
734.98	0.672
735.17	0.677
735.35	0.685
735.53	0.673
735.72	0.677
735.90	0.696
736.08	0.713
736.27	0.692
736.45	0.702
736.63	0.711
736.82	0.722
737.00	0.722
737.18	0.731
737.37	0.758
737.55	0.780
737.73	0.776
737.92	0.779
738.10	0.777
738.28	0.797
738.46	0.787
738.65	0.798
738.83	0.817
739.01	0.869
739.20	0.860
739.38	0.843
739.56	0.835
739.75	0.838
739.93	0.807
740.11	0.830
740.29	0.827
740.48	0.835
740.66	0.817
740.84	0.812
741.03	0.775
741.21	0.786
741.39	0.769
741.57	0.779
741.76	0.792
741.94	0.798
742.12	0.766
742.31	0.769
742.49	0.785
742.67	0.808
742.85	0.822
743.04	0.826
743.22	0.831
743.40	0.882
743.58	0.868
743.77	0.883
743.95	0.915
744.13	0.961
744.31	0.950
744.50	0.943
744.68	0.940
744.86	0.913
745.04	0.926
745.23	0.989
745.41	0.968
745.59	0.971
745.77	0.944
745.96	0.932
746.14	0.933
746.32	0.929
746.50	0.919
746.69	0.903
746.87	0.910
747.05	0.897
747.23	0.828
747.42	0.816
747.60	0.839
747.78	0.842
747.96	0.868
748.14	0.831
748.33	0.857
748.51	0.857
748.69	0.851
748.87	0.877
749.06	0.874
749.24	0.875
749.42	0.865
749.60	0.846
749.78	0.851
749.97	0.812
750.15	0.808
750.33	0.809
750.51	0.827
750.69	0.834
750.88	0.840
751.06	0.845
751.24	0.865
751.42	0.857
751.60	0.852
751.79	0.917
751.97	0.959
752.15	0.959
752.33	0.927
752.51	0.982
752.69	0.984
752.88	0.958
753.06	1.006
753.24	0.986
753.42	1.017
753.60	1.169
753.78	1.048
753.97	1.062
754.15	1.073
754.33	1.101
754.51	0.997
754.69	0.990
754.87	1.012
755.06	0.943
755.24	0.948
755.42	0.953
755.60	0.858
755.78	0.862
755.96	0.814
756.15	0.815
756.33	0.818
756.51	0.836
756.69	0.823
756.87	0.791
757.05	0.808
757.23	0.793
757.42	0.765
757.60	0.765
757.78	0.755
757.96	0.753
758.14	0.739
758.32	0.727
758.50	0.738
758.69	0.736
758.87	0.732
759.05	0.736
759.23	0.744
759.41	0.744
759.59	0.736
759.77	0.756
759.95	0.781
760.13	0.828
760.32	0.828
760.50	0.821
760.68	0.844
760.86	0.846
761.04	0.821
761.22	0.823
761.40	0.866
761.58	0.865
761.76	0.838
761.95	0.822
762.13	0.777
762.31	0.776
762.49	0.751
762.67	0.766
762.85	0.774
763.03	0.770
763.21	0.756
763.39	0.737
763.57	0.740
763.75	0.740
763.94	0.726
764.12	0.730
764.30	0.751
764.48	0.757
764.66	0.725
764.84	0.724
765.02	0.758
765.20	0.764
765.38	0.750
765.56	0.754
765.74	0.788
765.92	0.785
766.10	0.791
766.28	0.784
766.46	0.804
766.65	0.802
766.83	0.794
767.01	0.778
767.19	0.781
767.37	0.778
767.55	0.770
767.73	0.751
767.91	0.755
768.09	0.746
768.27	0.736
768.45	0.727
768.63	0.732
768.81	0.732
768.99	0.712
769.17	0.735
769.35	0.746
769.53	0.745
769.71	0.731
769.89	0.737
770.07	0.740
770.25	0.726
770.43	0.708
770.61	0.726
770.79	0.730
770.97	0.738
771.15	0.711
771.33	0.713
771.51	0.714
771.69	0.723
771.87	0.733
772.05	0.733
772.24	0.740
772.42	0.749
772.60	0.733
772.78	0.785
772.96	0.807
773.14	0.805
773.32	0.789
773.49	0.795
773.67	0.793
773.85	0.777
774.03	0.771
774.21	0.801
774.39	0.809
774.57	0.831
774.75	0.771
774.93	0.765
775.11	0.784
775.29	0.789
775.47	0.791
775.65	0.799
775.83	0.810
776.01	0.830
776.19	0.786
776.37	0.788
776.55	0.786
776.73	0.781
776.91	0.779
777.09	0.762
777.27	0.759
777.45	0.749
777.63	0.731
777.81	0.727
777.99	0.714
778.17	0.716
778.35	0.695
778.53	0.683
778.71	0.688
778.89	0.676
779.07	0.668
779.24	0.672
779.42	0.675
779.60	0.691
779.78	0.688
779.96	0.693
780.14	0.697
780.32	0.716
780.50	0.703
780.68	0.702
780.86	0.694
781.04	0.711
781.22	0.715
781.40	0.721
781.58	0.710
781.75	0.705
781.93	0.689
782.11	0.690
782.29	0.680
782.47	0.680
782.65	0.670
782.83	0.693
783.01	0.686
783.19	0.680
783.37	0.670
783.55	0.676
783.72	0.690
783.90	0.700
784.08	0.692
784.26	0.701
784.44	0.718
784.62	0.721
784.80	0.695
784.98	0.700
785.16	0.706
785.33	0.717
785.51	0.705
785.69	0.693
785.87	0.691
786.05	0.703
786.23	0.700
786.41	0.697
786.59	0.703
786.77	0.702
786.94	0.690
787.12	0.693
787.30	0.694
787.48	0.692
787.66	0.682
787.84	0.684
788.02	0.672
788.19	0.671
788.37	0.659
788.55	0.659
788.73	0.657
788.91	0.654
789.09	0.638
789.27	0.627
789.44	0.636
789.62	0.640
789.80	0.649
789.98	0.671
790.16	0.659
790.34	0.655
790.51	0.645
790.69	0.665
790.87	0.668
791.05	0.667
791.23	0.662
791.41	0.664
791.58	0.671
791.76	0.652
791.94	0.626
792.12	0.632
792.30	0.635
792.48	0.631
792.65	0.624
792.83	0.631
793.01	0.637
793.19	0.636
793.37	0.621
793.54	0.618
793.72	0.626
793.90	0.625
794.08	0.616
794.26	0.617
794.43	0.627
794.61	0.613
794.79	0.601
794.97	0.600
795.15	0.604
795.32	0.608
795.50	0.600
795.68	0.594
795.86	0.598
796.04	0.600
796.21	0.594
796.39	0.591
796.57	0.602
796.75	0.610
796.92	0.611
797.10	0.615
797.28	0.616
797.46	0.619
797.64	0.622
797.81	0.629
797.99	0.632
798.17	0.636
798.35	0.634
798.52	0.637
798.70	0.634
798.88	0.643
799.06	0.643
799.23	0.646
799.41	0.651
799.59	0.645
799.77	0.635
799.94	0.643
800.12	0.649
800.30	0.664
800.48	0.663
800.65	0.661
800.83	0.651
801.01	0.645
801.19	0.646
801.36	0.643
801.54	0.645
801.72	0.656
801.90	0.643
802.07	0.638
802.25	0.624
802.43	0.609
802.60	0.606
802.78	0.611
802.96	0.615
803.14	0.611
803.31	0.610
803.49	0.610
803.67	0.605
803.84	0.610
804.02	0.606
804.20	0.609
804.38	0.613
804.55	0.614
804.73	0.601
804.91	0.602
805.08	0.612
805.26	0.609
805.44	0.672
805.61	0.674
805.79	0.671
805.97	0.670
806.15	0.661
806.32	0.658
806.50	0.662
806.68	0.663
806.85	0.654
807.03	0.645
807.21	0.661
807.38	0.597
807.56	0.588
807.74	0.598
807.91	0.603
808.09	0.607
808.27	0.624
808.44	0.649
808.62	0.657
808.80	0.659
808.97	0.654
809.15	0.647
809.33	0.661
809.50	0.665
809.68	0.653
809.86	0.661
810.03	0.688
810.21	0.670
810.39	0.654
810.56	0.660
810.74	0.680
810.91	0.749
811.09	0.740
811.27	0.758
811.44	0.764
811.62	0.766
811.80	0.750
811.97	0.722
812.15	0.722
812.33	0.719
812.50	0.706
812.68	0.696
812.85	0.642
813.03	0.644
813.21	0.617
813.38	0.612
813.56	0.614
813.74	0.625
813.91	0.632
814.09	0.659
814.26	0.652
814.44	0.656
814.62	0.647
814.79	0.650
814.97	0.655
815.14	0.660
815.32	0.665
815.50	0.680
815.67	0.681
815.85	0.673
816.02	0.663
816.20	0.669
816.38	0.679
816.55	0.685
816.73	0.683
816.90	0.691
817.08	0.716
817.26	0.721
817.43	0.702
817.61	0.721
817.78	0.738
817.96	0.720
818.13	0.712
818.31	0.709
818.49	0.720
818.66	0.713
818.84	0.704
819.01	0.686
819.19	0.689
819.36	0.691
819.54	0.667
819.71	0.703
819.89	0.712
820.07	0.723
820.24	0.722
820.42	0.720
820.59	0.734
820.77	0.753
820.94	0.744
821.12	0.764
821.29	0.777
821.47	0.779
821.64	0.724
821.82	0.737
822.00	0.736
822.17	0.735
822.35	0.732
822.52	0.737
822.70	0.724
822.87	0.733
823.05	0.714
823.22	0.728
823.40	0.751
823.57	0.773
823.75	0.759
823.92	0.781
824.10	0.797
824.27	0.835
824.45	0.826
824.62	0.885
824.80	0.899
824.97	0.909
825.15	0.896
825.32	0.909
825.50	0.908
825.67	0.916
825.85	0.895
826.02	0.911
826.20	0.926
826.37	1.034
826.55	0.967
826.72	1.134
826.90	1.195
827.07	1.249
827.25	1.202
827.42	1.347
827.60	1.462
827.77	1.622
827.95	1.579
828.12	1.686
828.30	1.372
828.47	1.469
828.65	1.159
828.82	1.197
829.00	1.234
829.17	1.302
829.34	1.271
829.52	1.288
829.69	-0.000
829.87	-0.000
830.04	-0.000
830.22	-0.000
830.39	-0.000
830.57	-0.000
830.74	-0.000
830.92	-0.000
831.09	-0.000
831.26	-0.000
831.44	-0.000
831.61	-0.000
831.79	-0.000
831.96	-0.000
832.14	-0.000
832.31	-0.000
832.49	-0.000
832.66	-0.000
832.83	-0.000
833.01	-0.000
833.18	-0.000
833.36	-0.000
833.53	-0.000
833.70	-0.000
833.88	-0.000
834.05	-0.000
834.23	-0.000
834.40	-0.000
834.58	-0.000
834.75	-0.000
834.92	-0.000
835.10	-0.000
835.27	-0.000
835.45	-0.000
835.62	-0.000
835.79	-0.000
835.97	-0.000
836.14	-0.000
836.32	-0.000
836.49	-0.000
836.66	-0.000
836.84	-0.000
837.01	-0.000
837.18	-0.000
837.36	-0.000
837.53	-0.000
837.71	-0.000
837.88	-0.000
838.05	-0.000
838.23	-0.000
838.40	-0.000
838.58	-0.000
838.75	-0.000
838.92	-0.000
839.10	-0.000
839.27	-0.000
839.44	-0.000
839.62	-0.000
839.79	-0.000
839.96	-0.000
840.14	-0.000
840.31	-0.000
840.48	-0.000
840.66	-0.000
840.83	-0.000
841.01	-0.000
841.18	-0.000
841.35	-0.000
841.53	-0.000
841.70	-0.000
841.87	-0.000
842.05	-0.000
842.22	-0.000
842.39	-0.000
842.57	-0.000
842.74	-0.000
842.91	-0.000
843.09	-0.000
843.26	-0.000
843.43	-0.000
843.60	-0.000
843.78	-0.000
843.95	-0.000
844.12	-0.000
844.30	-0.000
844.47	-0.000
844.64	-0.000
844.82	-0.000
844.99	-0.000
845.16	-0.000
845.34	-0.000
845.51	-0.000
845.68	-0.000
845.85	-0.000
846.03	-0.000
846.20	-0.000
846.37	-0.000
846.55	-0.000
846.72	-0.000
846.89	-0.000
847.06	-0.000
847.24	-0.000
847.41	-0.000
847.58	-0.000
847.76	-0.000
847.93	-0.000
848.10	-0.000
848.27	-0.000
848.45	-0.000
848.62	-0.000
848.79	-0.000
848.97	-0.000
849.14	-0.000
849.31	-0.000
849.48	-0.000
849.66	-0.000
849.83	-0.000
850.00	-0.000
850.17	-0.000
850.35	-0.000
850.52	-0.000
850.69	-0.000
850.86	-0.000
851.04	-0.000
851.21	-0.000
851.38	-0.000
851.55	-0.000
851.72	-0.000
851.90	-0.000
852.07	-0.000
852.24	-0.000
852.41	-0.000
852.59	-0.000
852.76	-0.000
852.93	-0.000
853.10	-0.000
853.28	-0.000
853.45	-0.000
853.62	-0.000
853.79	-0.000
853.96	-0.000
854.14	-0.000
854.31	-0.000
854.48	-0.000
854.65	-0.000
854.82	-0.000
855.00	-0.000
855.17	-0.000
855.34	-0.000
855.51	-0.000
855.68	-0.000
855.86	-0.000
856.03	-0.000
856.20	-0.000
856.37	-0.000
856.54	-0.000
856.72	-0.000
856.89	-0.000
857.06	-0.000
857.23	-0.000
857.40	-0.000
857.57	-0.000
857.75	-0.000
857.92	-0.000
858.09	-0.000
858.26	-0.000
858.43	-0.000
858.60	-0.000
858.78	-0.000
858.95	-0.000
859.12	-0.000
859.29	-0.000
859.46	-0.000
859.63	-0.000
859.81	-0.000
859.98	-0.000
860.15	-0.000
860.32	-0.000
860.49	-0.000
860.66	-0.000
860.83	-0.000
861.01	-0.000
861.18	-0.000
861.35	-0.000
861.52	-0.000
861.69	-0.000
861.86	-0.000
862.03	-0.000
862.21	-0.000
862.38	-0.000
862.55	-0.000
862.72	-0.000
862.89	-0.000
863.06	-0.000
863.23	-0.000
863.40	-0.000
863.58	-0.000
863.75	-0.000
863.92	-0.000
864.09	-0.000
864.26	-0.000
864.43	-0.000
864.60	-0.000
864.77	-0.000
864.94	-0.000
865.11	-0.000
865.29	-0.000
865.46	-0.000
865.63	-0.000
865.80	-0.000
865.97	-0.000
866.14	-0.000
866.31	-0.000
866.48	-0.000
866.65	-0.000
866.82	-0.000
866.99	-0.000
867.16	-0.000
867.34	-0.000
867.51	-0.000
867.68	-0.000
867.85	-0.000
868.02	-0.000
868.19	-0.000
868.36	-0.000
868.53	-0.000
868.70	-0.000
868.87	-0.000
869.04	-0.000
869.21	-0.000
869.38	-0.000
869.55	-0.000
869.72	-0.000
869.89	-0.000
870.06	-0.000
870.24	-0.000
870.41	-0.000
870.58	-0.000
870.75	-0.000
870.92	-0.000
871.09	-0.000
871.26	-0.000
871.43	-0.000
871.60	-0.000
871.77	-0.000
871.94	-0.000
872.11	-0.000
872.28	-0.000
872.45	-0.000
872.62	-0.000
872.79	-0.000
872.96	-0.000
873.13	-0.000
873.30	-0.000
873.47	-0.000
873.64	-0.000
873.81	-0.000
873.98	-0.000
874.15	-0.000
874.32	-0.000
874.49	-0.000
874.66	-0.000
874.83	-0.000
875.00	-0.000
875.17	-0.000
875.34	-0.000
875.51	-0.000
875.68	-0.000
875.85	-0.000
876.02	-0.000
876.19	-0.000
876.36	-0.000
876.53	-0.000
876.70	-0.000
876.87	-0.000
877.04	-0.000
877.21	-0.000
877.38	-0.000
877.55	-0.000
877.72	-0.000
877.89	-0.000
878.06	-0.000
878.23	-0.000
878.39	-0.000
878.56	-0.000
878.73	-0.000
878.90	-0.000
879.07	-0.000
879.24	-0.000
879.41	-0.000
879.58	-0.000
879.75	-0.000
879.92	-0.000
880.09	-0.000
880.26	-0.000
880.43	-0.000
880.60	-0.000
880.77	-0.000
880.94	-0.000
881.11	-0.000
881.27	-0.000
881.44	-0.000
881.61	-0.000
881.78	-0.000
881.95	-0.000
882.12	-0.000
882.29	-0.000
882.46	-0.000
882.63	-0.000
882.80	-0.000
882.97	-0.000
883.14	-0.000
883.30	-0.000
883.47	-0.000
883.64	-0.000
883.81	-0.000
883.98	-0.000
884.15	-0.000
884.32	-0.000
884.49	-0.000
884.66	-0.000
884.82	-0.000
884.99	-0.000
885.16	-0.000
885.33	-0.000
885.50	-0.000
885.67	-0.000
885.84	-0.000
886.01	-0.000
886.17	-0.000
886.34	-0.000
886.51	-0.000
886.68	-0.000
886.85	-0.000
887.02	-0.000
887.19	-0.000
887.36	-0.000
887.52	-0.000
887.69	-0.000
887.86	-0.000
888.03	-0.000
888.20	-0.000
888.37	-0.000
888.54	-0.000
888.70	-0.000
888.87	-0.000
889.04	-0.000
889.21	-0.000
889.38	-0.000
889.55	-0.000
889.71	-0.000
889.88	-0.000
890.05	-0.000
890.22	-0.000
890.39	-0.000
>>>>>End Processed Spectral Data<<<<<
