SpectraSuite Data File
++++++++++++++++++++++++++++++++++++
Date: Fri Jun 19 12:58:33 CEST 2015
User: introlabs
Dark Spectrum Present: Yes
Reference Spectrum Present: Yes
Number of Sampled Component Spectra: 1
Spectrometers: USB4H08886
Integration Time (usec): 745692 (USB4H08886)
Spectra Averaged: 5 (USB4H08886)
Boxcar Smoothing: 5 (USB4H08886)
Correct for Electrical Dark: Yes (USB4H08886)
Strobe/Lamp Enabled: No (USB4H08886)
Correct for Detector Non-linearity: Yes (USB4H08886)
Correct for Stray Light: Yes (USB4H08886)
Number of Pixels in Processed Spectrum: 3648
>>>>>Begin Processed Spectral Data<<<<<
178.14	-0.000
178.36	-0.000
178.57	-0.000
178.79	-0.000
179.01	-0.000
179.22	-0.000
179.44	-0.000
179.65	-0.000
179.87	-0.000
180.08	-0.000
180.30	-0.000
180.52	-0.000
180.73	-0.000
180.95	-0.000
181.16	-0.000
181.38	-0.000
181.59	-0.000
181.81	-0.000
182.03	-0.000
182.24	-0.000
182.46	-0.000
182.67	-0.000
182.89	-0.000
183.10	-0.000
183.32	-0.000
183.54	-0.000
183.75	-0.000
183.97	-0.000
184.18	-0.000
184.40	-0.000
184.61	-0.000
184.83	-0.000
185.04	-0.000
185.26	-0.000
185.48	-0.000
185.69	-0.000
185.91	-0.000
186.12	-0.000
186.34	-0.000
186.55	-0.000
186.77	-0.000
186.98	-0.000
187.20	-0.000
187.42	-0.000
187.63	-0.000
187.85	-0.000
188.06	-0.000
188.28	-0.000
188.49	-0.000
188.71	-0.000
188.92	-0.000
189.14	-0.000
189.36	-0.000
189.57	-0.000
189.79	-0.000
190.00	-0.000
190.22	-0.000
190.43	-0.000
190.65	-0.000
190.86	-0.000
191.08	-0.000
191.29	-0.000
191.51	-0.000
191.72	-0.000
191.94	-0.000
192.16	-0.000
192.37	-0.000
192.59	-0.000
192.80	-0.000
193.02	-0.000
193.23	-0.000
193.45	-0.000
193.66	-0.000
193.88	-0.000
194.09	-0.000
194.31	-0.000
194.52	-0.000
194.74	-0.000
194.95	-0.000
195.17	-0.000
195.38	-0.000
195.60	-0.000
195.81	-0.000
196.03	-0.000
196.25	-0.000
196.46	-0.000
196.68	-0.000
196.89	-0.000
197.11	-0.000
197.32	-0.000
197.54	-0.000
197.75	-0.000
197.97	-0.000
198.18	-0.000
198.40	-0.000
198.61	-0.000
198.83	-0.000
199.04	-0.000
199.26	-0.000
199.47	-0.000
199.69	-0.000
199.90	-0.000
200.12	-0.000
200.33	-0.000
200.55	-0.000
200.76	-0.000
200.98	-0.000
201.19	-0.000
201.41	-0.000
201.62	-0.000
201.84	-0.000
202.05	-0.000
202.27	-0.000
202.48	-0.000
202.70	-0.000
202.91	-0.000
203.13	-0.000
203.34	-0.000
203.56	-0.000
203.77	-0.000
203.99	-0.000
204.20	-0.000
204.42	-0.000
204.63	-0.000
204.85	-0.000
205.06	-0.000
205.28	-0.000
205.49	-0.000
205.71	-0.000
205.92	-0.000
206.14	-0.000
206.35	-0.000
206.56	-0.000
206.78	-0.000
206.99	-0.000
207.21	-0.000
207.42	-0.000
207.64	-0.000
207.85	-0.000
208.07	-0.000
208.28	-0.000
208.50	-0.000
208.71	-0.000
208.93	-0.000
209.14	-0.000
209.36	-0.000
209.57	-0.000
209.79	-0.000
210.00	-0.000
210.22	-0.000
210.43	-0.000
210.64	-0.000
210.86	-0.000
211.07	-0.000
211.29	-0.000
211.50	-0.000
211.72	-0.000
211.93	-0.000
212.15	-0.000
212.36	-0.000
212.58	-0.000
212.79	-0.000
213.01	-0.000
213.22	-0.000
213.43	-0.000
213.65	-0.000
213.86	-0.000
214.08	-0.000
214.29	-0.000
214.51	-0.000
214.72	-0.000
214.94	-0.000
215.15	-0.000
215.36	-0.000
215.58	-0.000
215.79	-0.000
216.01	-0.000
216.22	-0.000
216.44	-0.000
216.65	-0.000
216.87	-0.000
217.08	-0.000
217.29	-0.000
217.51	-0.000
217.72	-0.000
217.94	-0.000
218.15	-0.000
218.37	-0.000
218.58	-0.000
218.80	-0.000
219.01	-0.000
219.22	-0.000
219.44	-0.000
219.65	-0.000
219.87	-0.000
220.08	-0.000
220.30	-0.000
220.51	-0.000
220.72	-0.000
220.94	-0.000
221.15	-0.000
221.37	-0.000
221.58	-0.000
221.79	-0.000
222.01	-0.000
222.22	-0.000
222.44	-0.000
222.65	-0.000
222.87	-0.000
223.08	-0.000
223.29	-0.000
223.51	-0.000
223.72	-0.000
223.94	-0.000
224.15	-0.000
224.36	-0.000
224.58	-0.000
224.79	-0.000
225.01	-0.000
225.22	-0.000
225.44	-0.000
225.65	-0.000
225.86	-0.000
226.08	-0.000
226.29	-0.000
226.51	-0.000
226.72	-0.000
226.93	-0.000
227.15	-0.000
227.36	-0.000
227.58	-0.000
227.79	-0.000
228.00	-0.000
228.22	-0.000
228.43	-0.000
228.65	-0.000
228.86	-0.000
229.07	-0.000
229.29	-0.000
229.50	-0.000
229.72	-0.000
229.93	-0.000
230.14	-0.000
230.36	-0.000
230.57	-0.000
230.78	-0.000
231.00	-0.000
231.21	-0.000
231.43	-0.000
231.64	-0.000
231.85	-0.000
232.07	-0.000
232.28	-0.000
232.50	-0.000
232.71	-0.000
232.92	-0.000
233.14	-0.000
233.35	-0.000
233.56	-0.000
233.78	-0.000
233.99	-0.000
234.21	-0.000
234.42	-0.000
234.63	-0.000
234.85	-0.000
235.06	-0.000
235.27	-0.000
235.49	-0.000
235.70	-0.000
235.91	-0.000
236.13	-0.000
236.34	-0.000
236.56	-0.000
236.77	-0.000
236.98	-0.000
237.20	-0.000
237.41	-0.000
237.62	-0.000
237.84	-0.000
238.05	-0.000
238.26	-0.000
238.48	-0.000
238.69	-0.000
238.91	-0.000
239.12	-0.000
239.33	-0.000
239.55	-0.000
239.76	-0.000
239.97	-0.000
240.19	-0.000
240.40	-0.000
240.61	-0.000
240.83	-0.000
241.04	-0.000
241.25	-0.000
241.47	-0.000
241.68	-0.000
241.89	-0.000
242.11	-0.000
242.32	-0.000
242.53	-0.000
242.75	-0.000
242.96	-0.000
243.17	-0.000
243.39	-0.000
243.60	-0.000
243.81	-0.000
244.03	-0.000
244.24	-0.000
244.45	-0.000
244.67	-0.000
244.88	-0.000
245.09	-0.000
245.31	-0.000
245.52	-0.000
245.73	-0.000
245.95	-0.000
246.16	-0.000
246.37	-0.000
246.59	-0.000
246.80	-0.000
247.01	-0.000
247.23	-0.000
247.44	-0.000
247.65	-0.000
247.87	-0.000
248.08	-0.000
248.29	-0.000
248.51	-0.000
248.72	-0.000
248.93	-0.000
249.15	-0.000
249.36	-0.000
249.57	-0.000
249.78	-0.000
250.00	-0.000
250.21	-0.000
250.42	-0.000
250.64	-0.000
250.85	-0.000
251.06	-0.000
251.28	-0.000
251.49	-0.000
251.70	-0.000
251.92	-0.000
252.13	-0.000
252.34	-0.000
252.55	-0.000
252.77	-0.000
252.98	-0.000
253.19	-0.000
253.41	-0.000
253.62	-0.000
253.83	-0.000
254.05	-0.000
254.26	-0.000
254.47	-0.000
254.68	-0.000
254.90	-0.000
255.11	-0.000
255.32	-0.000
255.54	-0.000
255.75	-0.000
255.96	-0.000
256.17	-0.000
256.39	-0.000
256.60	-0.000
256.81	-0.000
257.03	-0.000
257.24	-0.000
257.45	-0.000
257.66	-0.000
257.88	-0.000
258.09	-0.000
258.30	-0.000
258.51	-0.000
258.73	-0.000
258.94	-0.000
259.15	-0.000
259.37	-0.000
259.58	-0.000
259.79	-0.000
260.00	-0.000
260.22	-0.000
260.43	-0.000
260.64	-0.000
260.85	-0.000
261.07	-0.000
261.28	-0.000
261.49	-0.000
261.71	-0.000
261.92	-0.000
262.13	-0.000
262.34	-0.000
262.56	-0.000
262.77	-0.000
262.98	-0.000
263.19	-0.000
263.41	-0.000
263.62	-0.000
263.83	-0.000
264.04	-0.000
264.26	-0.000
264.47	-0.000
264.68	-0.000
264.89	-0.000
265.11	-0.000
265.32	-0.000
265.53	-0.000
265.74	-0.000
265.96	-0.000
266.17	-0.000
266.38	-0.000
266.59	-0.000
266.81	-0.000
267.02	-0.000
267.23	-0.000
267.44	-0.000
267.65	-0.000
267.87	-0.000
268.08	-0.000
268.29	-0.000
268.50	-0.000
268.72	-0.000
268.93	-0.000
269.14	-0.000
269.35	-0.000
269.57	-0.000
269.78	-0.000
269.99	-0.000
270.20	-0.000
270.41	-0.000
270.63	-0.000
270.84	-0.000
271.05	-0.000
271.26	-0.000
271.48	-0.000
271.69	-0.000
271.90	-0.000
272.11	-0.000
272.32	-0.000
272.54	-0.000
272.75	-0.000
272.96	-0.000
273.17	-0.000
273.39	-0.000
273.60	-0.000
273.81	-0.000
274.02	-0.000
274.23	-0.000
274.45	-0.000
274.66	-0.000
274.87	-0.000
275.08	-0.000
275.29	-0.000
275.51	-0.000
275.72	-0.000
275.93	-0.000
276.14	-0.000
276.35	-0.000
276.57	-0.000
276.78	-0.000
276.99	-0.000
277.20	-0.000
277.41	-0.000
277.63	-0.000
277.84	-0.000
278.05	-0.000
278.26	-0.000
278.47	-0.000
278.69	-0.000
278.90	-0.000
279.11	-0.000
279.32	-0.000
279.53	-0.000
279.74	-0.000
279.96	-0.000
280.17	-0.000
280.38	-0.000
280.59	-0.000
280.80	-0.000
281.02	-0.000
281.23	-0.000
281.44	-0.000
281.65	-0.000
281.86	-0.000
282.07	-0.000
282.29	-0.000
282.50	-0.000
282.71	-0.000
282.92	-0.000
283.13	-0.000
283.35	-0.000
283.56	-0.000
283.77	-0.000
283.98	-0.000
284.19	-0.000
284.40	-0.000
284.62	-0.000
284.83	-0.000
285.04	-0.000
285.25	-0.000
285.46	-0.000
285.67	-0.000
285.88	-0.000
286.10	-0.000
286.31	-0.000
286.52	-0.000
286.73	-0.000
286.94	-0.000
287.15	-0.000
287.37	-0.000
287.58	-0.000
287.79	-0.000
288.00	-0.000
288.21	-0.000
288.42	-0.000
288.63	-0.000
288.85	-0.000
289.06	-0.000
289.27	-0.000
289.48	-0.000
289.69	-0.000
289.90	-0.000
290.11	-0.000
290.33	-0.000
290.54	-0.000
290.75	-0.000
290.96	-0.000
291.17	-0.000
291.38	-0.000
291.59	-0.000
291.81	-0.000
292.02	-0.000
292.23	-0.000
292.44	-0.000
292.65	-0.000
292.86	-0.000
293.07	-0.000
293.28	-0.000
293.50	-0.000
293.71	-0.000
293.92	-0.000
294.13	-0.000
294.34	-0.000
294.55	-0.000
294.76	-0.000
294.97	-0.000
295.19	-0.000
295.40	-0.000
295.61	-0.000
295.82	-0.000
296.03	-0.000
296.24	-0.000
296.45	-0.000
296.66	-0.000
296.87	-0.000
297.09	-0.000
297.30	-0.000
297.51	3.078
297.72	2.458
297.93	-0.000
298.14	3.324
298.35	2.466
298.56	2.347
298.77	-0.000
298.99	-0.000
299.20	2.739
299.41	2.524
299.62	2.314
299.83	2.228
300.04	2.007
300.25	1.967
300.46	2.097
300.67	2.018
300.88	1.850
301.10	1.832
301.31	2.003
301.52	1.865
301.73	1.735
301.94	1.736
302.15	1.766
302.36	1.688
302.57	1.572
302.78	1.582
302.99	1.652
303.20	1.688
303.41	1.551
303.63	1.522
303.84	1.534
304.05	1.525
304.26	1.430
304.47	1.441
304.68	1.449
304.89	1.434
305.10	1.379
305.31	1.361
305.52	1.416
305.73	1.402
305.94	1.348
306.15	1.338
306.37	1.368
306.58	1.383
306.79	1.339
307.00	1.362
307.21	1.420
307.42	1.405
307.63	1.355
307.84	1.316
308.05	1.365
308.26	1.364
308.47	1.334
308.68	1.326
308.89	1.330
309.10	1.325
309.31	1.276
309.52	1.263
309.73	1.285
309.95	1.278
310.16	1.241
310.37	1.229
310.58	1.252
310.79	1.247
311.00	1.242
311.21	1.243
311.42	1.247
311.63	1.243
311.84	1.218
312.05	1.214
312.26	1.244
312.47	1.256
312.68	1.224
312.89	1.206
313.10	1.216
313.31	1.182
313.52	1.181
313.73	1.183
313.94	1.184
314.15	1.164
314.36	1.137
314.57	1.129
314.78	1.118
314.99	1.110
315.21	1.093
315.42	1.097
315.63	1.114
315.84	1.088
316.05	1.072
316.26	1.082
316.47	1.103
316.68	1.097
316.89	1.072
317.10	1.093
317.31	1.100
317.52	1.103
317.73	1.079
317.94	1.077
318.15	1.125
318.36	1.123
318.57	1.100
318.78	1.088
318.99	1.129
319.20	1.127
319.41	1.089
319.62	1.092
319.83	1.104
320.04	1.100
320.25	1.085
320.46	1.050
320.67	1.054
320.88	1.049
321.09	1.033
321.30	1.018
321.51	1.036
321.72	1.033
321.93	1.014
322.14	1.007
322.35	1.035
322.56	1.034
322.77	1.021
322.98	1.032
323.19	1.043
323.40	1.048
323.61	1.023
323.82	1.016
324.03	1.023
324.24	1.021
324.45	1.006
324.66	0.986
324.87	0.985
325.08	0.984
325.29	0.962
325.50	0.956
325.71	0.963
325.92	0.972
326.13	0.958
326.34	0.958
326.55	0.967
326.76	0.965
326.97	0.951
327.18	0.943
327.39	0.970
327.60	0.971
327.80	0.969
328.01	0.964
328.22	0.964
328.43	0.967
328.64	0.954
328.85	0.957
329.06	0.961
329.27	0.961
329.48	0.956
329.69	0.936
329.90	0.947
330.11	0.939
330.32	0.932
330.53	0.926
330.74	0.927
330.95	0.925
331.16	0.910
331.37	0.917
331.58	0.920
331.79	0.920
332.00	0.911
332.21	0.905
332.42	0.909
332.63	0.900
332.83	0.895
333.04	0.897
333.25	0.911
333.46	0.910
333.67	0.895
333.88	0.897
334.09	0.907
334.30	0.904
334.51	0.894
334.72	0.890
334.93	0.893
335.14	0.892
335.35	0.883
335.56	0.878
335.77	0.886
335.98	0.886
336.18	0.878
336.39	0.871
336.60	0.875
336.81	0.873
337.02	0.872
337.23	0.877
337.44	0.879
337.65	0.881
337.86	0.869
338.07	0.863
338.28	0.868
338.49	0.865
338.70	0.857
338.91	0.864
339.11	0.872
339.32	0.868
339.53	0.855
339.74	0.853
339.95	0.851
340.16	0.850
340.37	0.843
340.58	0.841
340.79	0.847
341.00	0.848
341.21	0.837
341.41	0.836
341.62	0.839
341.83	0.840
342.04	0.835
342.25	0.845
342.46	0.850
342.67	0.848
342.88	0.840
343.09	0.839
343.30	0.847
343.50	0.849
343.71	0.840
343.92	0.838
344.13	0.843
344.34	0.843
344.55	0.824
344.76	0.824
344.97	0.829
345.18	0.828
345.38	0.824
345.59	0.819
345.80	0.819
346.01	0.817
346.22	0.812
346.43	0.806
346.64	0.815
346.85	0.816
347.06	0.807
347.26	0.808
347.47	0.813
347.68	0.808
347.89	0.803
348.10	0.798
348.31	0.806
348.52	0.805
348.73	0.801
348.93	0.797
349.14	0.800
349.35	0.801
349.56	0.794
349.77	0.789
349.98	0.796
350.19	0.794
350.39	0.788
350.60	0.783
350.81	0.799
351.02	0.797
351.23	0.792
351.44	0.795
351.65	0.799
351.86	0.796
352.06	0.793
352.27	0.793
352.48	0.795
352.69	0.795
352.90	0.789
353.11	0.776
353.31	0.784
353.52	0.780
353.73	0.770
353.94	0.772
354.15	0.778
354.36	0.778
354.57	0.770
354.77	0.771
354.98	0.770
355.19	0.770
355.40	0.770
355.61	0.776
355.82	0.781
356.02	0.781
356.23	0.773
356.44	0.775
356.65	0.780
356.86	0.780
357.07	0.774
357.27	0.779
357.48	0.782
357.69	0.778
357.90	0.762
358.11	0.759
358.32	0.762
358.52	0.765
358.73	0.754
358.94	0.756
359.15	0.762
359.36	0.762
359.56	0.755
359.77	0.752
359.98	0.759
360.19	0.759
360.40	0.755
360.61	0.756
360.81	0.755
361.02	0.756
361.23	0.746
361.44	0.745
361.65	0.745
361.85	0.745
362.06	0.743
362.27	0.745
362.48	0.745
362.69	0.747
362.89	0.741
363.10	0.742
363.31	0.747
363.52	0.751
363.73	0.746
363.93	0.747
364.14	0.751
364.35	0.752
364.56	0.742
364.77	0.744
364.97	0.747
365.18	0.747
365.39	0.741
365.60	0.738
365.81	0.739
366.01	0.738
366.22	0.734
366.43	0.733
366.64	0.736
366.84	0.741
367.05	0.737
367.26	0.736
367.47	0.738
367.68	0.739
367.88	0.735
368.09	0.734
368.30	0.738
368.51	0.737
368.71	0.736
368.92	0.740
369.13	0.739
369.34	0.738
369.55	0.737
369.75	0.737
369.96	0.745
370.17	0.746
370.38	0.741
370.58	0.740
370.79	0.746
371.00	0.744
371.21	0.735
371.41	0.740
371.62	0.746
371.83	0.741
372.04	0.737
372.24	0.730
372.45	0.732
372.66	0.732
372.87	0.728
373.07	0.724
373.28	0.726
373.49	0.729
373.70	0.719
373.90	0.718
374.11	0.728
374.32	0.728
374.53	0.727
374.73	0.727
374.94	0.730
375.15	0.731
375.36	0.727
375.56	0.736
375.77	0.737
375.98	0.736
376.19	0.732
376.39	0.725
376.60	0.728
376.81	0.729
377.02	0.726
377.22	0.725
377.43	0.725
377.64	0.725
377.84	0.715
378.05	0.720
378.26	0.727
378.47	0.726
378.67	0.723
378.88	0.720
379.09	0.721
379.30	0.721
379.50	0.717
379.71	0.720
379.92	0.723
380.12	0.723
380.33	0.713
380.54	0.710
380.75	0.717
380.95	0.717
381.16	0.714
381.37	0.714
381.57	0.717
381.78	0.718
381.99	0.717
382.20	0.715
382.40	0.718
382.61	0.719
382.82	0.716
383.02	0.709
383.23	0.713
383.44	0.713
383.64	0.710
383.85	0.713
384.06	0.715
384.27	0.713
384.47	0.711
384.68	0.712
384.89	0.718
385.09	0.716
385.30	0.715
385.51	0.714
385.71	0.717
385.92	0.718
386.13	0.715
386.33	0.718
386.54	0.719
386.75	0.718
386.95	0.713
387.16	0.707
387.37	0.711
387.58	0.711
387.78	0.708
387.99	0.706
388.20	0.708
388.40	0.705
388.61	0.700
388.82	0.703
389.02	0.705
389.23	0.705
389.44	0.704
389.64	0.703
389.85	0.714
390.06	0.714
390.26	0.714
390.47	0.713
390.68	0.716
390.88	0.714
391.09	0.709
391.30	0.708
391.50	0.708
391.71	0.708
391.92	0.705
392.12	0.698
392.33	0.698
392.53	0.698
392.74	0.698
392.95	0.696
393.15	0.700
393.36	0.701
393.57	0.699
393.77	0.702
393.98	0.703
394.19	0.703
394.39	0.702
394.60	0.704
394.81	0.706
395.01	0.703
395.22	0.701
395.43	0.702
395.63	0.707
395.84	0.708
396.04	0.704
396.25	0.706
396.46	0.708
396.66	0.706
396.87	0.703
397.08	0.700
397.28	0.702
397.49	0.704
397.69	0.700
397.90	0.695
398.11	0.696
398.31	0.697
398.52	0.693
398.73	0.693
398.93	0.693
399.14	0.691
399.34	0.690
399.55	0.691
399.76	0.692
399.96	0.692
400.17	0.690
400.37	0.688
400.58	0.695
400.79	0.697
400.99	0.694
401.20	0.699
401.41	0.702
401.61	0.703
401.82	0.707
402.02	0.706
402.23	0.708
402.44	0.707
402.64	0.706
402.85	0.700
403.05	0.699
403.26	0.699
403.47	0.692
403.67	0.690
403.88	0.691
404.08	0.685
404.29	0.682
404.50	0.682
404.70	0.683
404.91	0.683
405.11	0.679
405.32	0.680
405.52	0.681
405.73	0.680
405.94	0.679
406.14	0.681
406.35	0.684
406.55	0.683
406.76	0.681
406.97	0.682
407.17	0.684
407.38	0.683
407.58	0.681
407.79	0.683
407.99	0.685
408.20	0.686
408.41	0.681
408.61	0.679
408.82	0.681
409.02	0.680
409.23	0.678
409.43	0.677
409.64	0.678
409.84	0.678
410.05	0.674
410.26	0.672
410.46	0.672
410.67	0.671
410.87	0.672
411.08	0.674
411.28	0.675
411.49	0.677
411.69	0.675
411.90	0.676
412.11	0.678
412.31	0.679
412.52	0.678
412.72	0.679
412.93	0.680
413.13	0.680
413.34	0.676
413.54	0.677
413.75	0.678
413.95	0.678
414.16	0.675
414.37	0.678
414.57	0.679
414.78	0.681
414.98	0.679
415.19	0.680
415.39	0.678
415.60	0.680
415.80	0.679
416.01	0.678
416.21	0.680
416.42	0.680
416.62	0.675
416.83	0.675
417.03	0.675
417.24	0.675
417.44	0.673
417.65	0.672
417.86	0.672
418.06	0.671
418.27	0.668
418.47	0.670
418.68	0.670
418.88	0.670
419.09	0.668
419.29	0.668
419.50	0.669
419.70	0.669
419.91	0.667
420.11	0.665
420.32	0.668
420.52	0.667
420.73	0.666
420.93	0.667
421.14	0.669
421.34	0.668
421.55	0.664
421.75	0.664
421.96	0.666
422.16	0.666
422.37	0.666
422.57	0.663
422.78	0.665
422.98	0.662
423.19	0.659
423.39	0.658
423.60	0.662
423.80	0.664
424.01	0.661
424.21	0.663
424.42	0.664
424.62	0.664
424.83	0.663
425.03	0.664
425.23	0.666
425.44	0.667
425.64	0.667
425.85	0.666
426.05	0.667
426.26	0.668
426.46	0.664
426.67	0.664
426.87	0.669
427.08	0.668
427.28	0.666
427.49	0.667
427.69	0.668
427.90	0.666
428.10	0.663
428.31	0.663
428.51	0.665
428.71	0.664
428.92	0.665
429.12	0.662
429.33	0.664
429.53	0.668
429.74	0.671
429.94	0.672
430.15	0.672
430.35	0.672
430.56	0.669
430.76	0.669
430.96	0.670
431.17	0.668
431.37	0.665
431.58	0.663
431.78	0.660
431.99	0.654
432.19	0.656
432.40	0.658
432.60	0.658
432.80	0.661
433.01	0.659
433.21	0.659
433.42	0.661
433.62	0.662
433.83	0.661
434.03	0.663
434.23	0.667
434.44	0.666
434.64	0.663
434.85	0.668
435.05	0.670
435.26	0.670
435.46	0.668
435.66	0.668
435.87	0.668
436.07	0.668
436.28	0.664
436.48	0.661
436.69	0.661
436.89	0.661
437.09	0.654
437.30	0.653
437.50	0.653
437.71	0.665
437.91	0.663
438.11	0.665
438.32	0.669
438.52	0.670
438.73	0.669
438.93	0.668
439.13	0.668
439.34	0.672
439.54	0.669
439.75	0.670
439.95	0.660
440.15	0.665
440.36	0.663
440.56	0.661
440.77	0.661
440.97	0.661
441.17	0.660
441.38	0.661
441.58	0.659
441.79	0.658
441.99	0.657
442.19	0.656
442.40	0.654
442.60	0.653
442.81	0.651
443.01	0.652
443.21	0.654
443.42	0.653
443.62	0.651
443.82	0.651
444.03	0.653
444.23	0.653
444.44	0.653
444.64	0.652
444.84	0.654
445.05	0.654
445.25	0.652
445.45	0.652
445.66	0.655
445.86	0.654
446.06	0.655
446.27	0.654
446.47	0.658
446.68	0.656
446.88	0.654
447.08	0.654
447.29	0.656
447.49	0.656
447.69	0.655
447.90	0.654
448.10	0.658
448.30	0.656
448.51	0.657
448.71	0.655
448.91	0.658
449.12	0.657
449.32	0.659
449.52	0.657
449.73	0.661
449.93	0.661
450.14	0.662
450.34	0.661
450.54	0.663
450.75	0.660
450.95	0.659
451.15	0.659
451.36	0.661
451.56	0.658
451.76	0.656
451.97	0.654
452.17	0.654
452.37	0.652
452.58	0.649
452.78	0.649
452.98	0.652
453.19	0.651
453.39	0.651
453.59	0.650
453.79	0.651
454.00	0.652
454.20	0.650
454.40	0.651
454.61	0.654
454.81	0.654
455.01	0.653
455.22	0.653
455.42	0.655
455.62	0.653
455.83	0.653
456.03	0.655
456.23	0.657
456.44	0.658
456.64	0.657
456.84	0.657
457.04	0.658
457.25	0.657
457.45	0.653
457.65	0.652
457.86	0.653
458.06	0.652
458.26	0.647
458.47	0.647
458.67	0.648
458.87	0.649
459.07	0.647
459.28	0.649
459.48	0.652
459.68	0.652
459.89	0.651
460.09	0.649
460.29	0.651
460.49	0.652
460.70	0.651
460.90	0.650
461.10	0.651
461.31	0.650
461.51	0.647
461.71	0.648
461.91	0.650
462.12	0.651
462.32	0.650
462.52	0.651
462.72	0.654
462.93	0.655
463.13	0.654
463.33	0.654
463.53	0.656
463.74	0.656
463.94	0.650
464.14	0.650
464.35	0.652
464.55	0.651
464.75	0.649
464.95	0.647
465.16	0.649
465.36	0.647
465.56	0.646
465.76	0.646
465.97	0.647
466.17	0.649
466.37	0.647
466.57	0.648
466.78	0.649
466.98	0.649
467.18	0.647
467.38	0.646
467.59	0.648
467.79	0.649
467.99	0.648
468.19	0.649
468.39	0.651
468.60	0.651
468.80	0.650
469.00	0.651
469.20	0.653
469.41	0.653
469.61	0.652
469.81	0.653
470.01	0.652
470.22	0.653
470.42	0.651
470.62	0.649
470.82	0.650
471.02	0.649
471.23	0.647
471.43	0.647
471.63	0.649
471.83	0.649
472.04	0.646
472.24	0.645
472.44	0.650
472.64	0.650
472.84	0.649
473.05	0.649
473.25	0.652
473.45	0.651
473.65	0.649
473.85	0.649
474.06	0.651
474.26	0.651
474.46	0.652
474.66	0.649
474.86	0.650
475.07	0.649
475.27	0.647
475.47	0.644
475.67	0.646
475.87	0.648
476.08	0.644
476.28	0.645
476.48	0.647
476.68	0.646
476.88	0.643
477.09	0.645
477.29	0.647
477.49	0.647
477.69	0.646
477.89	0.646
478.09	0.646
478.30	0.648
478.50	0.645
478.70	0.644
478.90	0.644
479.10	0.647
479.31	0.647
479.51	0.646
479.71	0.647
479.91	0.647
480.11	0.645
480.31	0.646
480.52	0.645
480.72	0.645
480.92	0.644
481.12	0.643
481.32	0.641
481.52	0.638
481.72	0.637
481.93	0.641
482.13	0.642
482.33	0.641
482.53	0.639
482.73	0.639
482.93	0.641
483.14	0.640
483.34	0.639
483.54	0.640
483.74	0.640
483.94	0.640
484.14	0.635
484.34	0.635
484.55	0.636
484.75	0.636
484.95	0.634
485.15	0.634
485.35	0.634
485.55	0.633
485.75	0.631
485.96	0.631
486.16	0.633
486.36	0.632
486.56	0.631
486.76	0.631
486.96	0.632
487.16	0.631
487.36	0.629
487.57	0.629
487.77	0.630
487.97	0.631
488.17	0.629
488.37	0.629
488.57	0.630
488.77	0.630
488.97	0.628
489.18	0.627
489.38	0.630
489.58	0.631
489.78	0.630
489.98	0.630
490.18	0.630
490.38	0.631
490.58	0.629
490.78	0.629
490.98	0.631
491.19	0.632
491.39	0.631
491.59	0.630
491.79	0.633
491.99	0.633
492.19	0.633
492.39	0.636
492.59	0.635
492.79	0.637
492.99	0.637
493.20	0.638
493.40	0.638
493.60	0.640
493.80	0.638
494.00	0.636
494.20	0.636
494.40	0.636
494.60	0.633
494.80	0.638
495.00	0.638
495.20	0.636
495.40	0.634
495.61	0.637
495.81	0.637
496.01	0.641
496.21	0.641
496.41	0.640
496.61	0.641
496.81	0.639
497.01	0.634
497.21	0.633
497.41	0.634
497.61	0.634
497.81	0.631
498.01	0.631
498.21	0.629
498.41	0.627
498.61	0.627
498.82	0.628
499.02	0.631
499.22	0.632
499.42	0.631
499.62	0.632
499.82	0.633
500.02	0.634
500.22	0.633
500.42	0.635
500.62	0.636
500.82	0.636
501.02	0.634
501.22	0.634
501.42	0.634
501.62	0.636
501.82	0.636
502.02	0.636
502.22	0.636
502.42	0.638
502.62	0.634
502.82	0.635
503.02	0.635
503.22	0.635
503.42	0.632
503.63	0.633
503.83	0.630
504.03	0.629
504.23	0.628
504.43	0.628
504.63	0.630
504.83	0.629
505.03	0.628
505.23	0.630
505.43	0.632
505.63	0.633
505.83	0.632
506.03	0.635
506.23	0.637
506.43	0.637
506.63	0.636
506.83	0.634
507.03	0.637
507.23	0.637
507.43	0.634
507.63	0.635
507.83	0.635
508.03	0.635
508.23	0.634
508.43	0.632
508.63	0.634
508.83	0.635
509.03	0.636
509.23	0.635
509.43	0.636
509.63	0.637
509.83	0.635
510.03	0.637
510.23	0.639
510.43	0.641
510.63	0.641
510.83	0.641
511.03	0.643
511.23	0.640
511.43	0.640
511.63	0.641
511.83	0.644
512.03	0.644
512.22	0.640
512.42	0.640
512.62	0.641
512.82	0.640
513.02	0.639
513.22	0.638
513.42	0.641
513.62	0.644
513.82	0.641
514.02	0.641
514.22	0.641
514.42	0.642
514.62	0.642
514.82	0.642
515.02	0.645
515.22	0.648
515.42	0.647
515.62	0.649
515.82	0.648
516.02	0.649
516.22	0.649
516.42	0.651
516.62	0.653
516.82	0.654
517.01	0.651
517.21	0.650
517.41	0.654
517.61	0.654
517.81	0.650
518.01	0.650
518.21	0.650
518.41	0.649
518.61	0.648
518.81	0.648
519.01	0.648
519.21	0.648
519.41	0.648
519.61	0.642
519.81	0.645
520.00	0.646
520.20	0.646
520.40	0.649
520.60	0.650
520.80	0.649
521.00	0.649
521.20	0.651
521.40	0.656
521.60	0.657
521.80	0.655
522.00	0.655
522.20	0.658
522.39	0.657
522.59	0.654
522.79	0.656
522.99	0.659
523.19	0.657
523.39	0.654
523.59	0.652
523.79	0.655
523.99	0.658
524.19	0.657
524.38	0.655
524.58	0.656
524.78	0.657
524.98	0.655
525.18	0.657
525.38	0.658
525.58	0.659
525.78	0.656
525.98	0.654
526.18	0.655
526.37	0.654
526.57	0.655
526.77	0.656
526.97	0.656
527.17	0.656
527.37	0.652
527.57	0.655
527.77	0.657
527.96	0.657
528.16	0.655
528.36	0.656
528.56	0.659
528.76	0.657
528.96	0.655
529.16	0.657
529.36	0.660
529.55	0.660
529.75	0.657
529.95	0.657
530.15	0.659
530.35	0.662
530.55	0.659
530.75	0.659
530.94	0.660
531.14	0.661
531.34	0.659
531.54	0.657
531.74	0.660
531.94	0.663
532.13	0.661
532.33	0.662
532.53	0.661
532.73	0.661
532.93	0.659
533.13	0.661
533.33	0.661
533.52	0.662
533.72	0.664
533.92	0.662
534.12	0.661
534.32	0.661
534.52	0.659
534.71	0.661
534.91	0.664
535.11	0.666
535.31	0.663
535.51	0.665
535.71	0.667
535.90	0.664
536.10	0.665
536.30	0.667
536.50	0.669
536.70	0.668
536.89	0.666
537.09	0.665
537.29	0.667
537.49	0.668
537.69	0.666
537.89	0.666
538.08	0.667
538.28	0.664
538.48	0.664
538.68	0.665
538.88	0.667
539.07	0.667
539.27	0.665
539.47	0.664
539.67	0.665
539.87	0.666
540.06	0.664
540.26	0.665
540.46	0.668
540.66	0.666
540.86	0.664
541.05	0.664
541.25	0.666
541.45	0.666
541.65	0.664
541.84	0.666
542.04	0.667
542.24	0.668
542.44	0.666
542.64	0.667
542.83	0.671
543.03	0.670
543.23	0.667
543.43	0.669
543.62	0.671
543.82	0.671
544.02	0.669
544.22	0.669
544.42	0.672
544.61	0.672
544.81	0.669
545.01	0.668
545.21	0.671
545.40	0.671
545.60	0.668
545.80	0.671
546.00	0.671
546.19	0.671
546.39	0.669
546.59	0.666
546.79	0.668
546.98	0.668
547.18	0.667
547.38	0.668
547.58	0.671
547.77	0.671
547.97	0.667
548.17	0.669
548.37	0.670
548.56	0.670
548.76	0.670
548.96	0.672
549.16	0.675
549.35	0.675
549.55	0.672
549.75	0.672
549.95	0.677
550.14	0.677
550.34	0.675
550.54	0.679
550.73	0.684
550.93	0.684
551.13	0.680
551.33	0.678
551.52	0.680
551.72	0.680
551.92	0.678
552.12	0.678
552.31	0.679
552.51	0.679
552.71	0.673
552.90	0.673
553.10	0.674
553.30	0.675
553.50	0.673
553.69	0.675
553.89	0.676
554.09	0.676
554.28	0.672
554.48	0.674
554.68	0.676
554.87	0.676
555.07	0.673
555.27	0.673
555.47	0.675
555.66	0.676
555.86	0.674
556.06	0.677
556.25	0.679
556.45	0.687
556.65	0.684
556.84	0.688
557.04	0.692
557.24	0.694
557.43	0.694
557.63	0.696
557.83	0.699
558.02	0.699
558.22	0.702
558.42	0.703
558.61	0.696
558.81	0.696
559.01	0.692
559.21	0.691
559.40	0.691
559.60	0.691
559.80	0.687
559.99	0.688
560.19	0.691
560.39	0.685
560.58	0.682
560.78	0.682
560.97	0.686
561.17	0.684
561.37	0.681
561.56	0.683
561.76	0.686
561.96	0.685
562.15	0.682
562.35	0.685
562.55	0.687
562.74	0.686
562.94	0.684
563.14	0.682
563.33	0.684
563.53	0.684
563.73	0.681
563.92	0.682
564.12	0.686
564.31	0.688
564.51	0.685
564.71	0.687
564.90	0.690
565.10	0.692
565.30	0.693
565.49	0.695
565.69	0.696
565.89	0.696
566.08	0.693
566.28	0.694
566.47	0.696
566.67	0.694
566.87	0.691
567.06	0.692
567.26	0.699
567.46	0.694
567.65	0.693
567.85	0.696
568.04	0.699
568.24	0.698
568.44	0.695
568.63	0.693
568.83	0.696
569.02	0.694
569.22	0.689
569.42	0.685
569.61	0.688
569.81	0.686
570.00	0.684
570.20	0.685
570.40	0.687
570.59	0.687
570.79	0.684
570.98	0.682
571.18	0.683
571.38	0.684
571.57	0.680
571.77	0.678
571.96	0.682
572.16	0.679
572.35	0.673
572.55	0.674
572.75	0.672
572.94	0.673
573.14	0.670
573.33	0.671
573.53	0.672
573.73	0.672
573.92	0.669
574.12	0.667
574.31	0.670
574.51	0.671
574.70	0.668
574.90	0.669
575.09	0.672
575.29	0.672
575.49	0.669
575.68	0.669
575.88	0.671
576.07	0.673
576.27	0.670
576.46	0.669
576.66	0.668
576.86	0.668
577.05	0.665
577.25	0.663
577.44	0.665
577.64	0.665
577.83	0.663
578.03	0.664
578.22	0.663
578.42	0.662
578.61	0.660
578.81	0.661
579.00	0.662
579.20	0.662
579.40	0.660
579.59	0.659
579.79	0.659
579.98	0.659
580.18	0.658
580.37	0.659
580.57	0.662
580.76	0.666
580.96	0.664
581.15	0.665
581.35	0.667
581.54	0.667
581.74	0.666
581.93	0.667
582.13	0.669
582.32	0.666
582.52	0.664
582.71	0.664
582.91	0.661
583.10	0.661
583.30	0.660
583.49	0.659
583.69	0.663
583.88	0.665
584.08	0.664
584.27	0.666
584.47	0.669
584.66	0.670
584.86	0.668
585.05	0.670
585.25	0.672
585.44	0.672
585.64	0.670
585.83	0.667
586.03	0.668
586.22	0.666
586.42	0.662
586.61	0.664
586.81	0.667
587.00	0.667
587.20	0.664
587.39	0.665
587.59	0.668
587.78	0.669
587.98	0.670
588.17	0.670
588.37	0.672
588.56	0.675
588.76	0.670
588.95	0.670
589.15	0.674
589.34	0.676
589.54	0.674
589.73	0.674
589.92	0.677
590.12	0.676
590.31	0.674
590.51	0.679
590.70	0.680
590.90	0.681
591.09	0.678
591.29	0.677
591.48	0.677
591.68	0.678
591.87	0.676
592.06	0.675
592.26	0.678
592.45	0.678
592.65	0.672
592.84	0.672
593.04	0.675
593.23	0.677
593.43	0.674
593.62	0.674
593.81	0.675
594.01	0.676
594.20	0.673
594.40	0.672
594.59	0.675
594.79	0.676
594.98	0.673
595.17	0.673
595.37	0.674
595.56	0.676
595.76	0.675
595.95	0.676
596.14	0.678
596.34	0.680
596.53	0.677
596.73	0.678
596.92	0.680
597.12	0.683
597.31	0.682
597.50	0.681
597.70	0.683
597.89	0.683
598.09	0.678
598.28	0.680
598.47	0.682
598.67	0.682
598.86	0.677
599.06	0.680
599.25	0.680
599.44	0.678
599.64	0.676
599.83	0.674
600.03	0.678
600.22	0.679
600.41	0.679
600.61	0.676
600.80	0.679
601.00	0.680
601.19	0.675
601.38	0.674
601.58	0.677
601.77	0.677
601.96	0.679
602.16	0.679
602.35	0.688
602.55	0.685
602.74	0.686
602.93	0.687
603.13	0.692
603.32	0.693
603.51	0.691
603.71	0.695
603.90	0.697
604.09	0.697
604.29	0.694
604.48	0.689
604.68	0.691
604.87	0.689
605.06	0.685
605.26	0.683
605.45	0.684
605.64	0.683
605.84	0.678
606.03	0.677
606.22	0.676
606.42	0.676
606.61	0.672
606.80	0.672
607.00	0.675
607.19	0.675
607.38	0.674
607.58	0.675
607.77	0.679
607.96	0.679
608.16	0.678
608.35	0.683
608.54	0.686
608.74	0.689
608.93	0.694
609.12	0.697
609.32	0.700
609.51	0.704
609.70	0.701
609.90	0.704
610.09	0.709
610.28	0.713
610.48	0.706
610.67	0.707
610.86	0.707
611.06	0.702
611.25	0.698
611.44	0.699
611.64	0.699
611.83	0.702
612.02	0.697
612.21	0.696
612.41	0.695
612.60	0.694
612.79	0.690
612.99	0.691
613.18	0.693
613.37	0.691
613.57	0.687
613.76	0.689
613.95	0.687
614.14	0.687
614.34	0.684
614.53	0.685
614.72	0.689
614.92	0.689
615.11	0.685
615.30	0.683
615.49	0.685
615.69	0.688
615.88	0.684
616.07	0.686
616.26	0.689
616.46	0.690
616.65	0.687
616.84	0.686
617.04	0.688
617.23	0.691
617.42	0.692
617.61	0.696
617.81	0.697
618.00	0.698
618.19	0.696
618.38	0.700
618.58	0.703
618.77	0.703
618.96	0.703
619.15	0.705
619.35	0.707
619.54	0.708
619.73	0.702
619.92	0.704
620.12	0.709
620.31	0.710
620.50	0.704
620.69	0.704
620.89	0.707
621.08	0.708
621.27	0.707
621.46	0.706
621.66	0.711
621.85	0.711
622.04	0.706
622.23	0.708
622.43	0.708
622.62	0.709
622.81	0.706
623.00	0.707
623.19	0.711
623.39	0.710
623.58	0.706
623.77	0.704
623.96	0.708
624.16	0.707
624.35	0.701
624.54	0.705
624.73	0.709
624.92	0.708
625.12	0.704
625.31	0.705
625.50	0.708
625.69	0.709
625.88	0.705
626.08	0.705
626.27	0.708
626.46	0.708
626.65	0.704
626.84	0.704
627.04	0.709
627.23	0.709
627.42	0.704
627.61	0.707
627.80	0.710
628.00	0.711
628.19	0.708
628.38	0.712
628.57	0.716
628.76	0.716
628.96	0.712
629.15	0.714
629.34	0.718
629.53	0.718
629.72	0.711
629.91	0.711
630.11	0.716
630.30	0.716
630.49	0.717
630.68	0.718
630.87	0.722
631.06	0.724
631.26	0.718
631.45	0.720
631.64	0.729
631.83	0.731
632.02	0.728
632.21	0.727
632.41	0.735
632.60	0.730
632.79	0.728
632.98	0.728
633.17	0.730
633.36	0.732
633.55	0.727
633.75	0.723
633.94	0.727
634.13	0.726
634.32	0.722
634.51	0.715
634.70	0.718
634.89	0.718
635.09	0.714
635.28	0.714
635.47	0.716
635.66	0.718
635.85	0.713
636.04	0.716
636.23	0.721
636.43	0.724
636.62	0.723
636.81	0.721
637.00	0.725
637.19	0.727
637.38	0.723
637.57	0.723
637.76	0.726
637.95	0.727
638.15	0.722
638.34	0.718
638.53	0.721
638.72	0.723
638.91	0.720
639.10	0.717
639.29	0.719
639.48	0.720
639.67	0.720
639.87	0.719
640.06	0.725
640.25	0.724
640.44	0.724
640.63	0.725
640.82	0.728
641.01	0.728
641.20	0.728
641.39	0.729
641.58	0.732
641.78	0.730
641.97	0.725
642.16	0.740
642.35	0.742
642.54	0.741
642.73	0.735
642.92	0.734
643.11	0.739
643.30	0.738
643.49	0.732
643.68	0.735
643.87	0.738
644.06	0.738
644.25	0.716
644.45	0.718
644.64	0.720
644.83	0.721
645.02	0.716
645.21	0.714
645.40	0.717
645.59	0.716
645.78	0.709
645.97	0.712
646.16	0.714
646.35	0.712
646.54	0.709
646.73	0.710
646.92	0.712
647.11	0.713
647.30	0.708
647.49	0.709
647.68	0.710
647.88	0.708
648.07	0.699
648.26	0.702
648.45	0.704
648.64	0.701
648.83	0.698
649.02	0.701
649.21	0.712
649.40	0.711
649.59	0.706
649.78	0.707
649.97	0.724
650.16	0.724
650.35	0.718
650.54	0.721
650.73	0.731
650.92	0.727
651.11	0.719
651.30	0.716
651.49	0.722
651.68	0.722
651.87	0.718
652.06	0.706
652.25	0.710
652.44	0.711
652.63	0.705
652.82	0.704
653.01	0.704
653.20	0.702
653.39	0.689
653.58	0.685
653.77	0.685
653.96	0.680
654.15	0.672
654.34	0.670
654.53	0.667
654.72	0.662
654.91	0.653
655.10	0.649
655.29	0.648
655.48	0.646
655.67	0.640
655.86	0.638
656.05	0.637
656.24	0.636
656.43	0.631
656.62	0.630
656.81	0.632
657.00	0.630
657.19	0.628
657.38	0.629
657.57	0.630
657.76	0.633
657.95	0.631
658.14	0.635
658.33	0.639
658.51	0.645
658.70	0.645
658.89	0.646
659.08	0.654
659.27	0.661
659.46	0.660
659.65	0.667
659.84	0.671
660.03	0.674
660.22	0.675
660.41	0.679
660.60	0.678
660.79	0.679
660.98	0.685
661.17	0.685
661.36	0.684
661.55	0.684
661.74	0.681
661.92	0.684
662.11	0.687
662.30	0.684
662.49	0.676
662.68	0.676
662.87	0.680
663.06	0.673
663.25	0.674
663.44	0.675
663.63	0.676
663.82	0.675
664.01	0.668
664.20	0.667
664.38	0.669
664.57	0.671
664.76	0.670
664.95	0.671
665.14	0.677
665.33	0.672
665.52	0.679
665.71	0.683
665.90	0.683
666.09	0.684
666.28	0.682
666.46	0.680
666.65	0.682
666.84	0.679
667.03	0.671
667.22	0.669
667.41	0.673
667.60	0.662
667.79	0.654
667.98	0.656
668.16	0.657
668.35	0.656
668.54	0.652
668.73	0.652
668.92	0.655
669.11	0.654
669.30	0.648
669.49	0.643
669.67	0.645
669.86	0.648
670.05	0.645
670.24	0.643
670.43	0.641
670.62	0.641
670.81	0.636
671.00	0.636
671.18	0.637
671.37	0.636
671.56	0.634
671.75	0.634
671.94	0.631
672.13	0.628
672.32	0.623
672.50	0.623
672.69	0.623
672.88	0.623
673.07	0.618
673.26	0.620
673.45	0.622
673.63	0.622
673.82	0.618
674.01	0.619
674.20	0.619
674.39	0.619
674.58	0.618
674.76	0.618
674.95	0.617
675.14	0.617
675.33	0.612
675.52	0.610
675.71	0.610
675.89	0.609
676.08	0.604
676.27	0.604
676.46	0.605
676.65	0.604
676.84	0.603
677.02	0.605
677.21	0.607
677.40	0.606
677.59	0.603
677.78	0.604
677.96	0.607
678.15	0.607
678.34	0.605
678.53	0.605
678.72	0.606
678.90	0.603
679.09	0.599
679.28	0.595
679.47	0.596
679.66	0.595
679.84	0.591
680.03	0.589
680.22	0.588
680.41	0.590
680.60	0.586
680.78	0.585
680.97	0.588
681.16	0.588
681.35	0.587
681.53	0.586
681.72	0.588
681.91	0.590
682.10	0.587
682.29	0.590
682.47	0.587
682.66	0.587
682.85	0.585
683.04	0.583
683.22	0.583
683.41	0.585
683.60	0.584
683.79	0.584
683.97	0.584
684.16	0.583
684.35	0.579
684.54	0.581
684.72	0.581
684.91	0.582
685.10	0.580
685.29	0.581
685.47	0.578
685.66	0.577
685.85	0.573
686.04	0.573
686.22	0.576
686.41	0.578
686.60	0.575
686.79	0.578
686.97	0.579
687.16	0.580
687.35	0.577
687.54	0.581
687.72	0.586
687.91	0.585
688.10	0.586
688.29	0.586
688.47	0.584
688.66	0.584
688.85	0.579
689.03	0.576
689.22	0.581
689.41	0.582
689.60	0.577
689.78	0.573
689.97	0.575
690.16	0.572
690.34	0.568
690.53	0.568
690.72	0.568
690.91	0.566
691.09	0.564
691.28	0.558
691.47	0.557
691.65	0.556
691.84	0.553
692.03	0.552
692.21	0.551
692.40	0.551
692.59	0.548
692.77	0.547
692.96	0.549
693.15	0.550
693.34	0.548
693.52	0.548
693.71	0.549
693.90	0.550
694.08	0.550
694.27	0.551
694.46	0.561
694.64	0.562
694.83	0.561
695.02	0.560
695.20	0.560
695.39	0.560
695.58	0.559
695.76	0.560
695.95	0.559
696.14	0.558
696.32	0.556
696.51	0.546
696.70	0.546
696.88	0.548
697.07	0.546
697.26	0.548
697.44	0.549
697.63	0.548
697.81	0.546
698.00	0.545
698.19	0.544
698.37	0.545
698.56	0.544
698.75	0.544
698.93	0.544
699.12	0.543
699.31	0.541
699.49	0.540
699.68	0.542
699.87	0.544
700.05	0.544
700.24	0.543
700.42	0.545
700.61	0.544
700.80	0.542
700.98	0.542
701.17	0.544
701.36	0.543
701.54	0.542
701.73	0.544
701.91	0.542
702.10	0.541
702.29	0.539
702.47	0.538
702.66	0.540
702.84	0.541
703.03	0.539
703.22	0.541
703.40	0.541
703.59	0.542
703.77	0.541
703.96	0.541
704.15	0.542
704.33	0.542
704.52	0.541
704.70	0.540
704.89	0.540
705.08	0.539
705.26	0.534
705.45	0.535
705.63	0.534
705.82	0.531
706.00	0.530
706.19	0.529
706.38	0.530
706.56	0.529
706.75	0.526
706.93	0.525
707.12	0.527
707.30	0.527
707.49	0.525
707.68	0.523
707.86	0.522
708.05	0.522
708.23	0.520
708.42	0.520
708.60	0.524
708.79	0.523
708.98	0.522
709.16	0.521
709.35	0.523
709.53	0.527
709.72	0.526
709.90	0.528
710.09	0.531
710.27	0.533
710.46	0.537
710.64	0.535
710.83	0.537
711.02	0.539
711.20	0.537
711.39	0.535
711.57	0.533
711.76	0.533
711.94	0.531
712.13	0.531
712.31	0.531
712.50	0.525
712.68	0.522
712.87	0.523
713.05	0.524
713.24	0.525
713.42	0.524
713.61	0.525
713.79	0.526
713.98	0.526
714.16	0.527
714.35	0.526
714.54	0.528
714.72	0.529
714.91	0.526
715.09	0.532
715.28	0.535
715.46	0.535
715.65	0.532
715.83	0.533
716.02	0.535
716.20	0.531
716.39	0.531
716.57	0.531
716.76	0.534
716.94	0.534
717.12	0.526
717.31	0.528
717.49	0.531
717.68	0.534
717.86	0.533
718.05	0.535
718.23	0.539
718.42	0.540
718.60	0.541
718.79	0.549
718.97	0.552
719.16	0.552
719.34	0.550
719.53	0.549
719.71	0.549
719.90	0.551
720.08	0.548
720.27	0.548
720.45	0.548
720.63	0.547
720.82	0.540
721.00	0.542
721.19	0.547
721.37	0.546
721.56	0.545
721.74	0.549
721.93	0.557
722.11	0.565
722.30	0.564
722.48	0.569
722.66	0.571
722.85	0.571
723.03	0.570
723.22	0.568
723.40	0.572
723.59	0.572
723.77	0.574
723.95	0.567
724.14	0.568
724.32	0.571
724.51	0.569
724.69	0.569
724.88	0.570
725.06	0.569
725.24	0.569
725.43	0.570
725.61	0.574
725.80	0.568
725.98	0.565
726.16	0.562
726.35	0.567
726.53	0.567
726.72	0.566
726.90	0.577
727.09	0.577
727.27	0.583
727.45	0.580
727.64	0.589
727.82	0.598
728.01	0.602
728.19	0.598
728.37	0.605
728.56	0.608
728.74	0.613
728.92	0.600
729.11	0.603
729.29	0.602
729.48	0.604
729.66	0.592
729.84	0.591
730.03	0.596
730.21	0.600
730.40	0.587
730.58	0.591
730.76	0.593
730.95	0.596
731.13	0.596
731.31	0.610
731.50	0.621
731.68	0.625
731.86	0.621
732.05	0.635
732.23	0.638
732.42	0.643
732.60	0.645
732.78	0.649
732.97	0.670
733.15	0.676
733.33	0.662
733.52	0.670
733.70	0.681
733.88	0.691
734.07	0.677
734.25	0.705
734.43	0.714
734.62	0.716
734.80	0.708
734.98	0.699
735.17	0.707
735.35	0.715
735.53	0.700
735.72	0.705
735.90	0.729
736.08	0.748
736.27	0.721
736.45	0.732
736.63	0.747
736.82	0.760
737.00	0.759
737.18	0.770
737.37	0.805
737.55	0.829
737.73	0.822
737.92	0.827
738.10	0.825
738.28	0.848
738.46	0.834
738.65	0.848
738.83	0.873
739.01	0.935
739.20	0.923
739.38	0.907
739.56	0.902
739.75	0.903
739.93	0.861
740.11	0.890
740.29	0.898
740.48	0.906
740.66	0.879
740.84	0.869
741.03	0.830
741.21	0.845
741.39	0.822
741.57	0.834
741.76	0.857
741.94	0.866
742.12	0.821
742.31	0.826
742.49	0.850
742.67	0.878
742.85	0.896
743.04	0.903
743.22	0.916
743.40	0.975
743.58	0.955
743.77	0.979
743.95	1.022
744.13	1.090
744.31	1.060
744.50	1.053
744.68	1.059
744.86	1.027
745.04	1.038
745.23	1.115
745.41	1.100
745.59	1.102
745.77	1.048
745.96	1.032
746.14	1.048
746.32	1.042
746.50	1.026
746.69	1.006
746.87	1.025
747.05	1.004
747.23	0.916
747.42	0.903
747.60	0.938
747.78	0.945
747.96	0.978
748.14	0.926
748.33	0.970
748.51	0.966
748.69	0.951
748.87	0.981
749.06	0.983
749.24	0.982
749.42	0.960
749.60	0.936
749.78	0.951
749.97	0.896
750.15	0.884
750.33	0.883
750.51	0.915
750.69	0.923
750.88	0.925
751.06	0.942
751.24	0.976
751.42	0.962
751.60	0.953
751.79	1.040
751.97	1.114
752.15	1.115
752.33	1.062
752.51	1.147
752.69	1.170
752.88	1.122
753.06	1.169
753.24	1.134
753.42	1.189
753.60	1.442
753.78	1.209
753.97	1.223
754.15	1.257
754.33	1.307
754.51	1.129
754.69	1.108
754.87	1.149
755.06	1.060
755.24	1.059
755.42	1.070
755.60	0.951
755.78	0.967
755.96	0.904
756.15	0.905
756.33	0.911
756.51	0.931
756.69	0.912
756.87	0.876
757.05	0.901
757.23	0.884
757.42	0.842
757.60	0.842
757.78	0.829
757.96	0.826
758.14	0.804
758.32	0.790
758.50	0.808
758.69	0.806
758.87	0.797
759.05	0.800
759.23	0.808
759.41	0.808
759.59	0.798
759.77	0.824
759.95	0.857
760.13	0.912
760.32	0.908
760.50	0.900
760.68	0.931
760.86	0.934
761.04	0.898
761.22	0.906
761.40	0.967
761.58	0.968
761.76	0.931
761.95	0.907
762.13	0.860
762.31	0.857
762.49	0.821
762.67	0.841
762.85	0.857
763.03	0.853
763.21	0.828
763.39	0.809
763.57	0.814
763.75	0.806
763.94	0.789
764.12	0.786
764.30	0.816
764.48	0.821
764.66	0.778
764.84	0.777
765.02	0.823
765.20	0.830
765.38	0.805
765.56	0.812
765.74	0.859
765.92	0.860
766.10	0.868
766.28	0.861
766.46	0.896
766.65	0.895
766.83	0.877
767.01	0.857
767.19	0.869
767.37	0.867
767.55	0.850
767.73	0.830
767.91	0.838
768.09	0.825
768.27	0.810
768.45	0.799
768.63	0.807
768.81	0.807
768.99	0.775
769.17	0.801
769.35	0.820
769.53	0.816
769.71	0.792
769.89	0.801
770.07	0.812
770.25	0.793
770.43	0.768
770.61	0.796
770.79	0.808
770.97	0.821
771.15	0.784
771.33	0.792
771.51	0.799
771.69	0.811
771.87	0.817
772.05	0.822
772.24	0.835
772.42	0.843
772.60	0.816
772.78	0.883
772.96	0.918
773.14	0.913
773.32	0.880
773.49	0.887
773.67	0.887
773.85	0.862
774.03	0.846
774.21	0.886
774.39	0.902
774.57	0.925
774.75	0.840
774.93	0.835
775.11	0.866
775.29	0.873
775.47	0.870
775.65	0.884
775.83	0.913
776.01	0.937
776.19	0.873
776.37	0.874
776.55	0.877
776.73	0.874
776.91	0.862
777.09	0.841
777.27	0.841
777.45	0.831
777.63	0.801
777.81	0.797
777.99	0.787
778.17	0.788
778.35	0.763
778.53	0.754
778.71	0.764
778.89	0.750
779.07	0.735
779.24	0.742
779.42	0.747
779.60	0.768
779.78	0.761
779.96	0.766
780.14	0.780
780.32	0.803
780.50	0.781
780.68	0.780
780.86	0.776
781.04	0.796
781.22	0.798
781.40	0.808
781.58	0.800
781.75	0.788
781.93	0.770
782.11	0.768
782.29	0.753
782.47	0.752
782.65	0.735
782.83	0.766
783.01	0.762
783.19	0.754
783.37	0.736
783.55	0.740
783.72	0.762
783.90	0.769
784.08	0.756
784.26	0.770
784.44	0.790
784.62	0.793
784.80	0.754
784.98	0.757
785.16	0.765
785.33	0.780
785.51	0.761
785.69	0.745
785.87	0.749
786.05	0.761
786.23	0.754
786.41	0.753
786.59	0.761
786.77	0.761
786.94	0.748
787.12	0.752
787.30	0.757
787.48	0.753
787.66	0.740
787.84	0.740
788.02	0.731
788.19	0.729
788.37	0.711
788.55	0.712
788.73	0.713
788.91	0.707
789.09	0.688
789.27	0.678
789.44	0.694
789.62	0.700
789.80	0.707
789.98	0.734
790.16	0.723
790.34	0.720
790.51	0.705
790.69	0.726
790.87	0.734
791.05	0.731
791.23	0.720
791.41	0.719
791.58	0.730
791.76	0.707
791.94	0.671
792.12	0.680
792.30	0.683
792.48	0.682
792.65	0.674
792.83	0.681
793.01	0.691
793.19	0.690
793.37	0.673
793.54	0.669
793.72	0.684
793.90	0.684
794.08	0.673
794.26	0.676
794.43	0.688
794.61	0.672
794.79	0.658
794.97	0.657
795.15	0.665
795.32	0.670
795.50	0.657
795.68	0.651
795.86	0.658
796.04	0.658
796.21	0.650
796.39	0.647
796.57	0.664
796.75	0.673
796.92	0.669
797.10	0.674
797.28	0.677
797.46	0.681
797.64	0.680
797.81	0.689
797.99	0.696
798.17	0.699
798.35	0.691
798.52	0.694
798.70	0.692
798.88	0.703
799.06	0.699
799.23	0.702
799.41	0.712
799.59	0.705
799.77	0.689
799.94	0.697
800.12	0.709
800.30	0.727
800.48	0.724
800.65	0.725
800.83	0.716
801.01	0.708
801.19	0.706
801.36	0.703
801.54	0.709
801.72	0.721
801.90	0.705
802.07	0.701
802.25	0.687
802.43	0.669
802.60	0.662
802.78	0.669
802.96	0.676
803.14	0.668
803.31	0.665
803.49	0.667
803.67	0.665
803.84	0.669
804.02	0.658
804.20	0.662
804.38	0.670
804.55	0.670
804.73	0.654
804.91	0.654
805.08	0.668
805.26	0.663
805.44	0.722
805.61	0.724
805.79	0.724
805.97	0.722
806.15	0.710
806.32	0.704
806.50	0.711
806.68	0.709
806.85	0.699
807.03	0.690
807.21	0.711
807.38	0.646
807.56	0.634
807.74	0.647
807.91	0.657
808.09	0.661
808.27	0.678
808.44	0.706
808.62	0.720
808.80	0.724
808.97	0.717
809.15	0.709
809.33	0.731
809.50	0.739
809.68	0.721
809.86	0.732
810.03	0.769
810.21	0.747
810.39	0.724
810.56	0.730
810.74	0.757
810.91	0.838
811.09	0.825
811.27	0.849
811.44	0.858
811.62	0.862
811.80	0.838
811.97	0.799
812.15	0.803
812.33	0.798
812.50	0.779
812.68	0.764
812.85	0.704
813.03	0.708
813.21	0.673
813.38	0.667
813.56	0.670
813.74	0.681
813.91	0.690
814.09	0.722
814.26	0.717
814.44	0.722
814.62	0.712
814.79	0.716
814.97	0.722
815.14	0.722
815.32	0.723
815.50	0.742
815.67	0.748
815.85	0.736
816.02	0.722
816.20	0.732
816.38	0.751
816.55	0.757
816.73	0.757
816.90	0.769
817.08	0.809
817.26	0.818
817.43	0.792
817.61	0.820
817.78	0.848
817.96	0.824
818.13	0.808
818.31	0.802
818.49	0.819
818.66	0.806
818.84	0.787
819.01	0.762
819.19	0.774
819.36	0.778
819.54	0.740
819.71	0.786
819.89	0.805
820.07	0.817
820.24	0.812
820.42	0.813
820.59	0.839
820.77	0.868
820.94	0.857
821.12	0.876
821.29	0.893
821.47	0.899
821.64	0.821
821.82	0.838
822.00	0.841
822.17	0.840
822.35	0.828
822.52	0.832
822.70	0.823
822.87	0.831
823.05	0.804
823.22	0.820
823.40	0.852
823.57	0.879
823.75	0.850
823.92	0.883
824.10	0.906
824.27	0.960
824.45	0.934
824.62	1.007
824.80	1.031
824.97	1.049
825.15	1.026
825.32	1.050
825.50	1.060
825.67	1.076
825.85	1.041
826.02	1.070
826.20	1.107
826.37	1.309
826.55	1.181
826.72	1.538
826.90	1.771
827.07	2.035
827.25	1.787
827.42	-0.000
827.60	-0.000
827.77	-0.000
827.95	-0.000
828.12	-0.000
828.30	-0.000
828.47	-0.000
828.65	1.791
828.82	2.218
829.00	-0.000
829.17	-0.000
829.34	-0.000
829.52	-0.000
829.69	-0.000
829.87	-0.000
830.04	-0.000
830.22	-0.000
830.39	-0.000
830.57	-0.000
830.74	-0.000
830.92	-0.000
831.09	-0.000
831.26	-0.000
831.44	-0.000
831.61	-0.000
831.79	-0.000
831.96	-0.000
832.14	-0.000
832.31	-0.000
832.49	-0.000
832.66	-0.000
832.83	-0.000
833.01	-0.000
833.18	-0.000
833.36	-0.000
833.53	-0.000
833.70	-0.000
833.88	-0.000
834.05	-0.000
834.23	-0.000
834.40	-0.000
834.58	-0.000
834.75	-0.000
834.92	-0.000
835.10	-0.000
835.27	-0.000
835.45	-0.000
835.62	-0.000
835.79	-0.000
835.97	-0.000
836.14	-0.000
836.32	-0.000
836.49	-0.000
836.66	-0.000
836.84	-0.000
837.01	-0.000
837.18	-0.000
837.36	-0.000
837.53	-0.000
837.71	-0.000
837.88	-0.000
838.05	-0.000
838.23	-0.000
838.40	-0.000
838.58	-0.000
838.75	-0.000
838.92	-0.000
839.10	-0.000
839.27	-0.000
839.44	-0.000
839.62	-0.000
839.79	-0.000
839.96	-0.000
840.14	-0.000
840.31	-0.000
840.48	-0.000
840.66	-0.000
840.83	-0.000
841.01	-0.000
841.18	-0.000
841.35	-0.000
841.53	-0.000
841.70	-0.000
841.87	-0.000
842.05	-0.000
842.22	-0.000
842.39	-0.000
842.57	-0.000
842.74	-0.000
842.91	-0.000
843.09	-0.000
843.26	-0.000
843.43	-0.000
843.60	-0.000
843.78	-0.000
843.95	-0.000
844.12	-0.000
844.30	-0.000
844.47	-0.000
844.64	-0.000
844.82	-0.000
844.99	-0.000
845.16	-0.000
845.34	-0.000
845.51	-0.000
845.68	-0.000
845.85	-0.000
846.03	-0.000
846.20	-0.000
846.37	-0.000
846.55	-0.000
846.72	-0.000
846.89	-0.000
847.06	-0.000
847.24	-0.000
847.41	-0.000
847.58	-0.000
847.76	-0.000
847.93	-0.000
848.10	-0.000
848.27	-0.000
848.45	-0.000
848.62	-0.000
848.79	-0.000
848.97	-0.000
849.14	-0.000
849.31	-0.000
849.48	-0.000
849.66	-0.000
849.83	-0.000
850.00	-0.000
850.17	-0.000
850.35	-0.000
850.52	-0.000
850.69	-0.000
850.86	-0.000
851.04	-0.000
851.21	-0.000
851.38	-0.000
851.55	-0.000
851.72	-0.000
851.90	-0.000
852.07	-0.000
852.24	-0.000
852.41	-0.000
852.59	-0.000
852.76	-0.000
852.93	-0.000
853.10	-0.000
853.28	-0.000
853.45	-0.000
853.62	-0.000
853.79	-0.000
853.96	-0.000
854.14	-0.000
854.31	-0.000
854.48	-0.000
854.65	-0.000
854.82	-0.000
855.00	-0.000
855.17	-0.000
855.34	-0.000
855.51	-0.000
855.68	-0.000
855.86	-0.000
856.03	-0.000
856.20	-0.000
856.37	-0.000
856.54	-0.000
856.72	-0.000
856.89	-0.000
857.06	-0.000
857.23	-0.000
857.40	-0.000
857.57	-0.000
857.75	-0.000
857.92	-0.000
858.09	-0.000
858.26	-0.000
858.43	-0.000
858.60	-0.000
858.78	-0.000
858.95	-0.000
859.12	-0.000
859.29	-0.000
859.46	-0.000
859.63	-0.000
859.81	-0.000
859.98	-0.000
860.15	-0.000
860.32	-0.000
860.49	-0.000
860.66	-0.000
860.83	-0.000
861.01	-0.000
861.18	-0.000
861.35	-0.000
861.52	-0.000
861.69	-0.000
861.86	-0.000
862.03	-0.000
862.21	-0.000
862.38	-0.000
862.55	-0.000
862.72	-0.000
862.89	-0.000
863.06	-0.000
863.23	-0.000
863.40	-0.000
863.58	-0.000
863.75	-0.000
863.92	-0.000
864.09	-0.000
864.26	-0.000
864.43	-0.000
864.60	-0.000
864.77	-0.000
864.94	-0.000
865.11	-0.000
865.29	-0.000
865.46	-0.000
865.63	-0.000
865.80	-0.000
865.97	-0.000
866.14	-0.000
866.31	-0.000
866.48	-0.000
866.65	-0.000
866.82	-0.000
866.99	-0.000
867.16	-0.000
867.34	-0.000
867.51	-0.000
867.68	-0.000
867.85	-0.000
868.02	-0.000
868.19	-0.000
868.36	-0.000
868.53	-0.000
868.70	-0.000
868.87	-0.000
869.04	-0.000
869.21	-0.000
869.38	-0.000
869.55	-0.000
869.72	-0.000
869.89	-0.000
870.06	-0.000
870.24	-0.000
870.41	-0.000
870.58	-0.000
870.75	-0.000
870.92	-0.000
871.09	-0.000
871.26	-0.000
871.43	-0.000
871.60	-0.000
871.77	-0.000
871.94	-0.000
872.11	-0.000
872.28	-0.000
872.45	-0.000
872.62	-0.000
872.79	-0.000
872.96	-0.000
873.13	-0.000
873.30	-0.000
873.47	-0.000
873.64	-0.000
873.81	-0.000
873.98	-0.000
874.15	-0.000
874.32	-0.000
874.49	-0.000
874.66	-0.000
874.83	-0.000
875.00	-0.000
875.17	-0.000
875.34	-0.000
875.51	-0.000
875.68	-0.000
875.85	-0.000
876.02	-0.000
876.19	-0.000
876.36	-0.000
876.53	-0.000
876.70	-0.000
876.87	-0.000
877.04	-0.000
877.21	-0.000
877.38	-0.000
877.55	-0.000
877.72	-0.000
877.89	-0.000
878.06	-0.000
878.23	-0.000
878.39	-0.000
878.56	-0.000
878.73	-0.000
878.90	-0.000
879.07	-0.000
879.24	-0.000
879.41	-0.000
879.58	-0.000
879.75	-0.000
879.92	-0.000
880.09	-0.000
880.26	-0.000
880.43	-0.000
880.60	-0.000
880.77	-0.000
880.94	-0.000
881.11	-0.000
881.27	-0.000
881.44	-0.000
881.61	-0.000
881.78	-0.000
881.95	-0.000
882.12	-0.000
882.29	-0.000
882.46	-0.000
882.63	-0.000
882.80	-0.000
882.97	-0.000
883.14	-0.000
883.30	-0.000
883.47	-0.000
883.64	-0.000
883.81	-0.000
883.98	-0.000
884.15	-0.000
884.32	-0.000
884.49	-0.000
884.66	-0.000
884.82	-0.000
884.99	-0.000
885.16	-0.000
885.33	-0.000
885.50	-0.000
885.67	-0.000
885.84	-0.000
886.01	-0.000
886.17	-0.000
886.34	-0.000
886.51	-0.000
886.68	-0.000
886.85	-0.000
887.02	-0.000
887.19	-0.000
887.36	-0.000
887.52	-0.000
887.69	-0.000
887.86	-0.000
888.03	-0.000
888.20	-0.000
888.37	-0.000
888.54	-0.000
888.70	-0.000
888.87	-0.000
889.04	-0.000
889.21	-0.000
889.38	-0.000
889.55	-0.000
889.71	-0.000
889.88	-0.000
890.05	-0.000
890.22	-0.000
890.39	-0.000
>>>>>End Processed Spectral Data<<<<<
