SpectraSuite Data File
++++++++++++++++++++++++++++++++++++
Date: Fri Jun 19 14:18:04 CEST 2015
User: introlabs
Dark Spectrum Present: Yes
Reference Spectrum Present: Yes
Number of Sampled Component Spectra: 1
Spectrometers: USB4H08886
Integration Time (usec): 745692 (USB4H08886)
Spectra Averaged: 5 (USB4H08886)
Boxcar Smoothing: 5 (USB4H08886)
Correct for Electrical Dark: Yes (USB4H08886)
Strobe/Lamp Enabled: No (USB4H08886)
Correct for Detector Non-linearity: Yes (USB4H08886)
Correct for Stray Light: Yes (USB4H08886)
Number of Pixels in Processed Spectrum: 3648
>>>>>Begin Processed Spectral Data<<<<<
178.14	-0.000
178.36	-0.000
178.57	-0.000
178.79	-0.000
179.01	-0.000
179.22	-0.000
179.44	-0.000
179.65	-0.000
179.87	-0.000
180.08	-0.000
180.30	-0.000
180.52	-0.000
180.73	-0.000
180.95	-0.000
181.16	-0.000
181.38	-0.000
181.59	-0.000
181.81	-0.000
182.03	-0.000
182.24	-0.000
182.46	-0.000
182.67	-0.000
182.89	-0.000
183.10	-0.000
183.32	-0.000
183.54	-0.000
183.75	-0.000
183.97	-0.000
184.18	-0.000
184.40	-0.000
184.61	-0.000
184.83	-0.000
185.04	-0.000
185.26	-0.000
185.48	-0.000
185.69	-0.000
185.91	-0.000
186.12	-0.000
186.34	-0.000
186.55	-0.000
186.77	-0.000
186.98	-0.000
187.20	-0.000
187.42	-0.000
187.63	-0.000
187.85	-0.000
188.06	-0.000
188.28	-0.000
188.49	-0.000
188.71	-0.000
188.92	-0.000
189.14	-0.000
189.36	-0.000
189.57	-0.000
189.79	-0.000
190.00	-0.000
190.22	-0.000
190.43	-0.000
190.65	-0.000
190.86	-0.000
191.08	-0.000
191.29	-0.000
191.51	-0.000
191.72	-0.000
191.94	-0.000
192.16	-0.000
192.37	-0.000
192.59	-0.000
192.80	-0.000
193.02	-0.000
193.23	-0.000
193.45	-0.000
193.66	-0.000
193.88	-0.000
194.09	-0.000
194.31	-0.000
194.52	-0.000
194.74	-0.000
194.95	-0.000
195.17	-0.000
195.38	-0.000
195.60	-0.000
195.81	-0.000
196.03	-0.000
196.25	-0.000
196.46	-0.000
196.68	-0.000
196.89	-0.000
197.11	-0.000
197.32	-0.000
197.54	-0.000
197.75	-0.000
197.97	-0.000
198.18	-0.000
198.40	-0.000
198.61	-0.000
198.83	-0.000
199.04	-0.000
199.26	-0.000
199.47	-0.000
199.69	-0.000
199.90	-0.000
200.12	-0.000
200.33	-0.000
200.55	-0.000
200.76	-0.000
200.98	-0.000
201.19	-0.000
201.41	-0.000
201.62	-0.000
201.84	-0.000
202.05	-0.000
202.27	-0.000
202.48	-0.000
202.70	-0.000
202.91	-0.000
203.13	-0.000
203.34	-0.000
203.56	-0.000
203.77	-0.000
203.99	-0.000
204.20	-0.000
204.42	-0.000
204.63	-0.000
204.85	-0.000
205.06	-0.000
205.28	-0.000
205.49	-0.000
205.71	-0.000
205.92	-0.000
206.14	-0.000
206.35	-0.000
206.56	-0.000
206.78	-0.000
206.99	-0.000
207.21	-0.000
207.42	-0.000
207.64	-0.000
207.85	-0.000
208.07	-0.000
208.28	-0.000
208.50	-0.000
208.71	-0.000
208.93	-0.000
209.14	-0.000
209.36	-0.000
209.57	-0.000
209.79	-0.000
210.00	-0.000
210.22	-0.000
210.43	-0.000
210.64	-0.000
210.86	-0.000
211.07	-0.000
211.29	-0.000
211.50	-0.000
211.72	-0.000
211.93	-0.000
212.15	-0.000
212.36	-0.000
212.58	-0.000
212.79	-0.000
213.01	-0.000
213.22	-0.000
213.43	-0.000
213.65	-0.000
213.86	-0.000
214.08	-0.000
214.29	-0.000
214.51	-0.000
214.72	-0.000
214.94	-0.000
215.15	-0.000
215.36	-0.000
215.58	-0.000
215.79	-0.000
216.01	-0.000
216.22	-0.000
216.44	-0.000
216.65	-0.000
216.87	-0.000
217.08	-0.000
217.29	-0.000
217.51	-0.000
217.72	-0.000
217.94	-0.000
218.15	-0.000
218.37	-0.000
218.58	-0.000
218.80	-0.000
219.01	-0.000
219.22	-0.000
219.44	-0.000
219.65	-0.000
219.87	-0.000
220.08	-0.000
220.30	-0.000
220.51	-0.000
220.72	-0.000
220.94	-0.000
221.15	-0.000
221.37	-0.000
221.58	-0.000
221.79	-0.000
222.01	-0.000
222.22	-0.000
222.44	-0.000
222.65	-0.000
222.87	-0.000
223.08	-0.000
223.29	-0.000
223.51	-0.000
223.72	-0.000
223.94	-0.000
224.15	-0.000
224.36	-0.000
224.58	-0.000
224.79	-0.000
225.01	-0.000
225.22	-0.000
225.44	-0.000
225.65	-0.000
225.86	-0.000
226.08	-0.000
226.29	-0.000
226.51	-0.000
226.72	-0.000
226.93	-0.000
227.15	-0.000
227.36	-0.000
227.58	-0.000
227.79	-0.000
228.00	-0.000
228.22	-0.000
228.43	-0.000
228.65	-0.000
228.86	-0.000
229.07	-0.000
229.29	-0.000
229.50	-0.000
229.72	-0.000
229.93	-0.000
230.14	-0.000
230.36	-0.000
230.57	-0.000
230.78	-0.000
231.00	-0.000
231.21	-0.000
231.43	-0.000
231.64	-0.000
231.85	-0.000
232.07	-0.000
232.28	-0.000
232.50	-0.000
232.71	-0.000
232.92	-0.000
233.14	-0.000
233.35	-0.000
233.56	-0.000
233.78	-0.000
233.99	-0.000
234.21	-0.000
234.42	-0.000
234.63	-0.000
234.85	-0.000
235.06	-0.000
235.27	-0.000
235.49	-0.000
235.70	-0.000
235.91	-0.000
236.13	-0.000
236.34	-0.000
236.56	-0.000
236.77	-0.000
236.98	-0.000
237.20	-0.000
237.41	-0.000
237.62	-0.000
237.84	-0.000
238.05	-0.000
238.26	-0.000
238.48	-0.000
238.69	-0.000
238.91	-0.000
239.12	-0.000
239.33	-0.000
239.55	-0.000
239.76	-0.000
239.97	-0.000
240.19	-0.000
240.40	-0.000
240.61	-0.000
240.83	-0.000
241.04	-0.000
241.25	-0.000
241.47	-0.000
241.68	-0.000
241.89	-0.000
242.11	-0.000
242.32	-0.000
242.53	-0.000
242.75	-0.000
242.96	-0.000
243.17	-0.000
243.39	-0.000
243.60	-0.000
243.81	-0.000
244.03	-0.000
244.24	-0.000
244.45	-0.000
244.67	-0.000
244.88	-0.000
245.09	-0.000
245.31	-0.000
245.52	-0.000
245.73	-0.000
245.95	-0.000
246.16	-0.000
246.37	-0.000
246.59	-0.000
246.80	-0.000
247.01	-0.000
247.23	-0.000
247.44	-0.000
247.65	-0.000
247.87	-0.000
248.08	-0.000
248.29	-0.000
248.51	-0.000
248.72	-0.000
248.93	-0.000
249.15	-0.000
249.36	-0.000
249.57	-0.000
249.78	-0.000
250.00	-0.000
250.21	-0.000
250.42	-0.000
250.64	-0.000
250.85	-0.000
251.06	-0.000
251.28	-0.000
251.49	-0.000
251.70	-0.000
251.92	-0.000
252.13	-0.000
252.34	-0.000
252.55	-0.000
252.77	-0.000
252.98	-0.000
253.19	-0.000
253.41	-0.000
253.62	-0.000
253.83	-0.000
254.05	-0.000
254.26	-0.000
254.47	-0.000
254.68	-0.000
254.90	-0.000
255.11	-0.000
255.32	-0.000
255.54	-0.000
255.75	-0.000
255.96	-0.000
256.17	-0.000
256.39	-0.000
256.60	-0.000
256.81	-0.000
257.03	-0.000
257.24	-0.000
257.45	-0.000
257.66	-0.000
257.88	-0.000
258.09	-0.000
258.30	-0.000
258.51	-0.000
258.73	-0.000
258.94	-0.000
259.15	-0.000
259.37	-0.000
259.58	-0.000
259.79	-0.000
260.00	-0.000
260.22	-0.000
260.43	-0.000
260.64	-0.000
260.85	-0.000
261.07	-0.000
261.28	-0.000
261.49	-0.000
261.71	-0.000
261.92	-0.000
262.13	-0.000
262.34	-0.000
262.56	-0.000
262.77	-0.000
262.98	-0.000
263.19	-0.000
263.41	-0.000
263.62	-0.000
263.83	-0.000
264.04	-0.000
264.26	-0.000
264.47	-0.000
264.68	-0.000
264.89	-0.000
265.11	-0.000
265.32	-0.000
265.53	-0.000
265.74	-0.000
265.96	-0.000
266.17	-0.000
266.38	-0.000
266.59	-0.000
266.81	-0.000
267.02	-0.000
267.23	-0.000
267.44	-0.000
267.65	-0.000
267.87	-0.000
268.08	-0.000
268.29	-0.000
268.50	-0.000
268.72	-0.000
268.93	-0.000
269.14	-0.000
269.35	-0.000
269.57	-0.000
269.78	-0.000
269.99	-0.000
270.20	-0.000
270.41	-0.000
270.63	-0.000
270.84	-0.000
271.05	-0.000
271.26	-0.000
271.48	-0.000
271.69	-0.000
271.90	-0.000
272.11	-0.000
272.32	-0.000
272.54	-0.000
272.75	-0.000
272.96	-0.000
273.17	-0.000
273.39	-0.000
273.60	-0.000
273.81	-0.000
274.02	-0.000
274.23	-0.000
274.45	-0.000
274.66	-0.000
274.87	-0.000
275.08	-0.000
275.29	-0.000
275.51	-0.000
275.72	-0.000
275.93	-0.000
276.14	-0.000
276.35	-0.000
276.57	-0.000
276.78	-0.000
276.99	-0.000
277.20	-0.000
277.41	-0.000
277.63	-0.000
277.84	-0.000
278.05	-0.000
278.26	-0.000
278.47	-0.000
278.69	-0.000
278.90	-0.000
279.11	-0.000
279.32	-0.000
279.53	-0.000
279.74	-0.000
279.96	-0.000
280.17	-0.000
280.38	-0.000
280.59	-0.000
280.80	-0.000
281.02	-0.000
281.23	-0.000
281.44	-0.000
281.65	-0.000
281.86	-0.000
282.07	-0.000
282.29	-0.000
282.50	-0.000
282.71	-0.000
282.92	-0.000
283.13	-0.000
283.35	-0.000
283.56	-0.000
283.77	-0.000
283.98	-0.000
284.19	-0.000
284.40	-0.000
284.62	-0.000
284.83	-0.000
285.04	-0.000
285.25	-0.000
285.46	-0.000
285.67	-0.000
285.88	-0.000
286.10	-0.000
286.31	-0.000
286.52	-0.000
286.73	-0.000
286.94	-0.000
287.15	-0.000
287.37	-0.000
287.58	-0.000
287.79	-0.000
288.00	-0.000
288.21	-0.000
288.42	-0.000
288.63	-0.000
288.85	-0.000
289.06	-0.000
289.27	-0.000
289.48	-0.000
289.69	-0.000
289.90	-0.000
290.11	-0.000
290.33	-0.000
290.54	-0.000
290.75	-0.000
290.96	-0.000
291.17	-0.000
291.38	-0.000
291.59	-0.000
291.81	-0.000
292.02	-0.000
292.23	-0.000
292.44	-0.000
292.65	-0.000
292.86	-0.000
293.07	-0.000
293.28	-0.000
293.50	-0.000
293.71	-0.000
293.92	-0.000
294.13	-0.000
294.34	-0.000
294.55	-0.000
294.76	-0.000
294.97	-0.000
295.19	-0.000
295.40	-0.000
295.61	-0.000
295.82	-0.000
296.03	2.546
296.24	3.370
296.45	1.950
296.66	1.671
296.87	1.700
297.09	1.747
297.30	1.898
297.51	1.617
297.72	1.583
297.93	1.659
298.14	1.639
298.35	1.605
298.56	1.581
298.77	1.696
298.99	1.684
299.20	1.647
299.41	1.642
299.62	1.604
299.83	1.592
300.04	1.533
300.25	1.523
300.46	1.554
300.67	1.524
300.88	1.479
301.10	1.479
301.31	1.544
301.52	1.493
301.73	1.441
301.94	1.448
302.15	1.470
302.36	1.425
302.57	1.371
302.78	1.376
302.99	1.419
303.20	1.437
303.41	1.354
303.63	1.336
303.84	1.342
304.05	1.340
304.26	1.282
304.47	1.283
304.68	1.289
304.89	1.282
305.10	1.243
305.31	1.234
305.52	1.274
305.73	1.266
305.94	1.230
306.15	1.224
306.37	1.245
306.58	1.255
306.79	1.229
307.00	1.248
307.21	1.283
307.42	1.279
307.63	1.241
307.84	1.210
308.05	1.245
308.26	1.243
308.47	1.221
308.68	1.216
308.89	1.214
309.10	1.209
309.31	1.172
309.52	1.166
309.73	1.180
309.95	1.174
310.16	1.149
310.37	1.139
310.58	1.156
310.79	1.154
311.00	1.149
311.21	1.151
311.42	1.151
311.63	1.147
311.84	1.128
312.05	1.126
312.26	1.148
312.47	1.159
312.68	1.137
312.89	1.122
313.10	1.129
313.31	1.104
313.52	1.105
313.73	1.108
313.94	1.109
314.15	1.093
314.36	1.072
314.57	1.066
314.78	1.054
314.99	1.050
315.21	1.038
315.42	1.042
315.63	1.055
315.84	1.033
316.05	1.020
316.26	1.029
316.47	1.046
316.68	1.044
316.89	1.023
317.10	1.042
317.31	1.047
317.52	1.047
317.73	1.028
317.94	1.026
318.15	1.068
318.36	1.067
318.57	1.049
318.78	1.039
318.99	1.071
319.20	1.068
319.41	1.036
319.62	1.038
319.83	1.050
320.04	1.046
320.25	1.033
320.46	1.002
320.67	1.007
320.88	1.004
321.09	0.990
321.30	0.976
321.51	0.991
321.72	0.988
321.93	0.973
322.14	0.967
322.35	0.991
322.56	0.994
322.77	0.981
322.98	0.990
323.19	0.998
323.40	1.004
323.61	0.984
323.82	0.980
324.03	0.986
324.24	0.982
324.45	0.969
324.66	0.950
324.87	0.947
325.08	0.947
325.29	0.930
325.50	0.921
325.71	0.926
325.92	0.935
326.13	0.922
326.34	0.922
326.55	0.931
326.76	0.931
326.97	0.922
327.18	0.917
327.39	0.941
327.60	0.942
327.80	0.944
328.01	0.941
328.22	0.942
328.43	0.944
328.64	0.934
328.85	0.939
329.06	0.940
329.27	0.938
329.48	0.933
329.69	0.914
329.90	0.924
330.11	0.918
330.32	0.912
330.53	0.905
330.74	0.905
330.95	0.903
331.16	0.888
331.37	0.896
331.58	0.897
331.79	0.897
332.00	0.888
332.21	0.881
332.42	0.885
332.63	0.877
332.83	0.872
333.04	0.874
333.25	0.886
333.46	0.885
333.67	0.872
333.88	0.874
334.09	0.883
334.30	0.880
334.51	0.871
334.72	0.867
334.93	0.868
335.14	0.869
335.35	0.862
335.56	0.857
335.77	0.866
335.98	0.864
336.18	0.859
336.39	0.851
336.60	0.856
336.81	0.855
337.02	0.853
337.23	0.859
337.44	0.862
337.65	0.863
337.86	0.852
338.07	0.846
338.28	0.850
338.49	0.848
338.70	0.841
338.91	0.847
339.11	0.853
339.32	0.849
339.53	0.838
339.74	0.835
339.95	0.833
340.16	0.831
340.37	0.825
340.58	0.823
340.79	0.827
341.00	0.828
341.21	0.818
341.41	0.819
341.62	0.821
341.83	0.823
342.04	0.817
342.25	0.827
342.46	0.832
342.67	0.830
342.88	0.824
343.09	0.823
343.30	0.830
343.50	0.832
343.71	0.823
343.92	0.821
344.13	0.825
344.34	0.824
344.55	0.808
344.76	0.808
344.97	0.812
345.18	0.810
345.38	0.807
345.59	0.802
345.80	0.802
346.01	0.800
346.22	0.795
346.43	0.791
346.64	0.799
346.85	0.799
347.06	0.792
347.26	0.793
347.47	0.797
347.68	0.792
347.89	0.788
348.10	0.783
348.31	0.790
348.52	0.789
348.73	0.786
348.93	0.782
349.14	0.784
349.35	0.784
349.56	0.777
349.77	0.773
349.98	0.779
350.19	0.776
350.39	0.772
350.60	0.767
350.81	0.783
351.02	0.783
351.23	0.778
351.44	0.781
351.65	0.783
351.86	0.780
352.06	0.779
352.27	0.779
352.48	0.781
352.69	0.782
352.90	0.776
353.11	0.763
353.31	0.770
353.52	0.766
353.73	0.759
353.94	0.761
354.15	0.766
354.36	0.765
354.57	0.757
354.77	0.759
354.98	0.757
355.19	0.756
355.40	0.756
355.61	0.762
355.82	0.767
356.02	0.766
356.23	0.759
356.44	0.762
356.65	0.765
356.86	0.766
357.07	0.760
357.27	0.765
357.48	0.768
357.69	0.763
357.90	0.746
358.11	0.743
358.32	0.747
358.52	0.750
358.73	0.740
358.94	0.742
359.15	0.747
359.36	0.747
359.56	0.742
359.77	0.739
359.98	0.747
360.19	0.748
360.40	0.744
360.61	0.745
360.81	0.744
361.02	0.744
361.23	0.736
361.44	0.734
361.65	0.735
361.85	0.734
362.06	0.732
362.27	0.735
362.48	0.735
362.69	0.737
362.89	0.731
363.10	0.732
363.31	0.737
363.52	0.740
363.73	0.735
363.93	0.736
364.14	0.738
364.35	0.738
364.56	0.728
364.77	0.729
364.97	0.732
365.18	0.732
365.39	0.727
365.60	0.724
365.81	0.725
366.01	0.724
366.22	0.722
366.43	0.721
366.64	0.724
366.84	0.729
367.05	0.726
367.26	0.725
367.47	0.727
367.68	0.728
367.88	0.724
368.09	0.722
368.30	0.725
368.51	0.725
368.71	0.724
368.92	0.728
369.13	0.727
369.34	0.726
369.55	0.724
369.75	0.725
369.96	0.731
370.17	0.731
370.38	0.727
370.58	0.727
370.79	0.732
371.00	0.730
371.21	0.721
371.41	0.726
371.62	0.731
371.83	0.727
372.04	0.725
372.24	0.718
372.45	0.720
372.66	0.720
372.87	0.717
373.07	0.714
373.28	0.715
373.49	0.718
373.70	0.709
373.90	0.709
374.11	0.717
374.32	0.717
374.53	0.716
374.73	0.717
374.94	0.719
375.15	0.719
375.36	0.717
375.56	0.725
375.77	0.724
375.98	0.725
376.19	0.722
376.39	0.716
376.60	0.720
376.81	0.720
377.02	0.717
377.22	0.716
377.43	0.716
377.64	0.716
377.84	0.708
378.05	0.713
378.26	0.718
378.47	0.717
378.67	0.713
378.88	0.711
379.09	0.712
379.30	0.712
379.50	0.710
379.71	0.713
379.92	0.715
380.12	0.714
380.33	0.706
380.54	0.702
380.75	0.709
380.95	0.710
381.16	0.707
381.37	0.707
381.57	0.709
381.78	0.709
381.99	0.708
382.20	0.709
382.40	0.712
382.61	0.714
382.82	0.710
383.02	0.704
383.23	0.708
383.44	0.709
383.64	0.707
383.85	0.709
384.06	0.712
384.27	0.710
384.47	0.708
384.68	0.708
384.89	0.713
385.09	0.712
385.30	0.710
385.51	0.709
385.71	0.712
385.92	0.713
386.13	0.711
386.33	0.713
386.54	0.714
386.75	0.713
386.95	0.709
387.16	0.704
387.37	0.707
387.58	0.707
387.78	0.705
387.99	0.703
388.20	0.705
388.40	0.703
388.61	0.698
388.82	0.702
389.02	0.705
389.23	0.705
389.44	0.703
389.64	0.703
389.85	0.714
390.06	0.713
390.26	0.713
390.47	0.711
390.68	0.714
390.88	0.711
391.09	0.708
391.30	0.706
391.50	0.707
391.71	0.706
391.92	0.704
392.12	0.696
392.33	0.698
392.53	0.698
392.74	0.698
392.95	0.698
393.15	0.701
393.36	0.703
393.57	0.700
393.77	0.703
393.98	0.705
394.19	0.705
394.39	0.705
394.60	0.705
394.81	0.708
395.01	0.706
395.22	0.704
395.43	0.705
395.63	0.710
395.84	0.712
396.04	0.708
396.25	0.710
396.46	0.712
396.66	0.710
396.87	0.707
397.08	0.704
397.28	0.706
397.49	0.707
397.69	0.703
397.90	0.698
398.11	0.700
398.31	0.700
398.52	0.696
398.73	0.697
398.93	0.696
399.14	0.696
399.34	0.695
399.55	0.696
399.76	0.696
399.96	0.697
400.17	0.695
400.37	0.694
400.58	0.701
400.79	0.702
400.99	0.700
401.20	0.705
401.41	0.708
401.61	0.709
401.82	0.714
402.02	0.713
402.23	0.715
402.44	0.715
402.64	0.715
402.85	0.709
403.05	0.709
403.26	0.708
403.47	0.701
403.67	0.700
403.88	0.701
404.08	0.695
404.29	0.694
404.50	0.693
404.70	0.694
404.91	0.692
405.11	0.689
405.32	0.690
405.52	0.691
405.73	0.691
405.94	0.688
406.14	0.691
406.35	0.694
406.55	0.693
406.76	0.691
406.97	0.691
407.17	0.695
407.38	0.694
407.58	0.691
407.79	0.694
407.99	0.696
408.20	0.698
408.41	0.693
408.61	0.691
408.82	0.692
409.02	0.692
409.23	0.689
409.43	0.688
409.64	0.690
409.84	0.690
410.05	0.687
410.26	0.685
410.46	0.684
410.67	0.684
410.87	0.685
411.08	0.687
411.28	0.689
411.49	0.690
411.69	0.687
411.90	0.689
412.11	0.691
412.31	0.692
412.52	0.690
412.72	0.691
412.93	0.693
413.13	0.691
413.34	0.688
413.54	0.689
413.75	0.691
413.95	0.691
414.16	0.687
414.37	0.689
414.57	0.690
414.78	0.693
414.98	0.690
415.19	0.691
415.39	0.689
415.60	0.691
415.80	0.690
416.01	0.688
416.21	0.690
416.42	0.691
416.62	0.686
416.83	0.686
417.03	0.685
417.24	0.685
417.44	0.683
417.65	0.682
417.86	0.683
418.06	0.681
418.27	0.679
418.47	0.681
418.68	0.681
418.88	0.682
419.09	0.680
419.29	0.680
419.50	0.681
419.70	0.680
419.91	0.679
420.11	0.677
420.32	0.679
420.52	0.679
420.73	0.678
420.93	0.678
421.14	0.680
421.34	0.680
421.55	0.676
421.75	0.676
421.96	0.677
422.16	0.677
422.37	0.676
422.57	0.672
422.78	0.674
422.98	0.671
423.19	0.669
423.39	0.667
423.60	0.670
423.80	0.672
424.01	0.670
424.21	0.673
424.42	0.674
424.62	0.674
424.83	0.674
425.03	0.675
425.23	0.677
425.44	0.677
425.64	0.678
425.85	0.677
426.05	0.678
426.26	0.678
426.46	0.675
426.67	0.673
426.87	0.679
427.08	0.679
427.28	0.676
427.49	0.677
427.69	0.677
427.90	0.676
428.10	0.674
428.31	0.674
428.51	0.675
428.71	0.675
428.92	0.676
429.12	0.673
429.33	0.674
429.53	0.677
429.74	0.682
429.94	0.682
430.15	0.682
430.35	0.682
430.56	0.679
430.76	0.679
430.96	0.679
431.17	0.676
431.37	0.673
431.58	0.672
431.78	0.669
431.99	0.662
432.19	0.663
432.40	0.665
432.60	0.665
432.80	0.667
433.01	0.665
433.21	0.664
433.42	0.667
433.62	0.667
433.83	0.666
434.03	0.669
434.23	0.672
434.44	0.671
434.64	0.668
434.85	0.673
435.05	0.674
435.26	0.675
435.46	0.674
435.66	0.673
435.87	0.673
436.07	0.673
436.28	0.669
436.48	0.666
436.69	0.666
436.89	0.666
437.09	0.660
437.30	0.659
437.50	0.660
437.71	0.671
437.91	0.670
438.11	0.672
438.32	0.676
438.52	0.676
438.73	0.675
438.93	0.673
439.13	0.673
439.34	0.676
439.54	0.674
439.75	0.674
439.95	0.664
440.15	0.668
440.36	0.666
440.56	0.664
440.77	0.665
440.97	0.665
441.17	0.664
441.38	0.666
441.58	0.664
441.79	0.663
441.99	0.661
442.19	0.660
442.40	0.657
442.60	0.657
442.81	0.655
443.01	0.656
443.21	0.656
443.42	0.655
443.62	0.654
443.82	0.653
444.03	0.655
444.23	0.655
444.44	0.655
444.64	0.655
444.84	0.656
445.05	0.656
445.25	0.654
445.45	0.654
445.66	0.657
445.86	0.655
446.06	0.657
446.27	0.657
446.47	0.660
446.68	0.658
446.88	0.657
447.08	0.657
447.29	0.659
447.49	0.659
447.69	0.658
447.90	0.657
448.10	0.661
448.30	0.658
448.51	0.658
448.71	0.656
448.91	0.658
449.12	0.657
449.32	0.658
449.52	0.657
449.73	0.661
449.93	0.660
450.14	0.660
450.34	0.659
450.54	0.662
450.75	0.659
450.95	0.659
451.15	0.658
451.36	0.661
451.56	0.658
451.76	0.657
451.97	0.654
452.17	0.654
452.37	0.653
452.58	0.650
452.78	0.650
452.98	0.652
453.19	0.651
453.39	0.652
453.59	0.650
453.79	0.651
454.00	0.652
454.20	0.650
454.40	0.651
454.61	0.654
454.81	0.655
455.01	0.653
455.22	0.653
455.42	0.655
455.62	0.654
455.83	0.653
456.03	0.656
456.23	0.656
456.44	0.657
456.64	0.656
456.84	0.656
457.04	0.657
457.25	0.656
457.45	0.653
457.65	0.652
457.86	0.652
458.06	0.651
458.26	0.647
458.47	0.646
458.67	0.647
458.87	0.647
459.07	0.644
459.28	0.646
459.48	0.648
459.68	0.648
459.89	0.647
460.09	0.646
460.29	0.648
460.49	0.649
460.70	0.648
460.90	0.648
461.10	0.649
461.31	0.649
461.51	0.647
461.71	0.648
461.91	0.650
462.12	0.650
462.32	0.649
462.52	0.649
462.72	0.652
462.93	0.652
463.13	0.651
463.33	0.652
463.53	0.653
463.74	0.652
463.94	0.648
464.14	0.648
464.35	0.649
464.55	0.650
464.75	0.648
464.95	0.646
465.16	0.648
465.36	0.646
465.56	0.645
465.76	0.644
465.97	0.645
466.17	0.645
466.37	0.644
466.57	0.645
466.78	0.646
466.98	0.646
467.18	0.644
467.38	0.644
467.59	0.645
467.79	0.646
467.99	0.645
468.19	0.646
468.39	0.649
468.60	0.649
468.80	0.646
469.00	0.647
469.20	0.649
469.41	0.648
469.61	0.647
469.81	0.648
470.01	0.648
470.22	0.648
470.42	0.646
470.62	0.644
470.82	0.646
471.02	0.646
471.23	0.644
471.43	0.644
471.63	0.646
471.83	0.646
472.04	0.644
472.24	0.642
472.44	0.647
472.64	0.647
472.84	0.645
473.05	0.645
473.25	0.647
473.45	0.647
473.65	0.645
473.85	0.646
474.06	0.647
474.26	0.647
474.46	0.648
474.66	0.645
474.86	0.646
475.07	0.646
475.27	0.644
475.47	0.641
475.67	0.641
475.87	0.643
476.08	0.640
476.28	0.641
476.48	0.642
476.68	0.641
476.88	0.638
477.09	0.640
477.29	0.641
477.49	0.642
477.69	0.641
477.89	0.641
478.09	0.641
478.30	0.644
478.50	0.641
478.70	0.640
478.90	0.641
479.10	0.643
479.31	0.644
479.51	0.642
479.71	0.643
479.91	0.643
480.11	0.642
480.31	0.643
480.52	0.641
480.72	0.641
480.92	0.640
481.12	0.639
481.32	0.637
481.52	0.635
481.72	0.635
481.93	0.638
482.13	0.639
482.33	0.639
482.53	0.637
482.73	0.638
482.93	0.639
483.14	0.639
483.34	0.638
483.54	0.639
483.74	0.638
483.94	0.638
484.14	0.633
484.34	0.633
484.55	0.634
484.75	0.634
484.95	0.632
485.15	0.631
485.35	0.631
485.55	0.631
485.75	0.628
485.96	0.629
486.16	0.630
486.36	0.630
486.56	0.628
486.76	0.628
486.96	0.629
487.16	0.628
487.36	0.626
487.57	0.626
487.77	0.627
487.97	0.628
488.17	0.626
488.37	0.625
488.57	0.625
488.77	0.626
488.97	0.624
489.18	0.623
489.38	0.626
489.58	0.626
489.78	0.625
489.98	0.625
490.18	0.625
490.38	0.626
490.58	0.625
490.78	0.627
490.98	0.628
491.19	0.628
491.39	0.628
491.59	0.626
491.79	0.629
491.99	0.630
492.19	0.629
492.39	0.632
492.59	0.632
492.79	0.634
492.99	0.633
493.20	0.633
493.40	0.634
493.60	0.635
493.80	0.633
494.00	0.631
494.20	0.632
494.40	0.631
494.60	0.629
494.80	0.633
495.00	0.632
495.20	0.630
495.40	0.629
495.61	0.631
495.81	0.631
496.01	0.635
496.21	0.635
496.41	0.635
496.61	0.635
496.81	0.634
497.01	0.629
497.21	0.629
497.41	0.630
497.61	0.630
497.81	0.627
498.01	0.628
498.21	0.626
498.41	0.624
498.61	0.624
498.82	0.625
499.02	0.627
499.22	0.628
499.42	0.627
499.62	0.628
499.82	0.628
500.02	0.629
500.22	0.628
500.42	0.629
500.62	0.630
500.82	0.631
501.02	0.629
501.22	0.629
501.42	0.629
501.62	0.631
501.82	0.631
502.02	0.631
502.22	0.631
502.42	0.633
502.62	0.630
502.82	0.631
503.02	0.631
503.22	0.631
503.42	0.629
503.63	0.629
503.83	0.627
504.03	0.626
504.23	0.624
504.43	0.625
504.63	0.626
504.83	0.625
505.03	0.624
505.23	0.626
505.43	0.627
505.63	0.628
505.83	0.627
506.03	0.629
506.23	0.631
506.43	0.632
506.63	0.630
506.83	0.628
507.03	0.631
507.23	0.631
507.43	0.628
507.63	0.629
507.83	0.630
508.03	0.630
508.23	0.628
508.43	0.627
508.63	0.629
508.83	0.630
509.03	0.631
509.23	0.630
509.43	0.632
509.63	0.632
509.83	0.631
510.03	0.633
510.23	0.635
510.43	0.636
510.63	0.636
510.83	0.636
511.03	0.638
511.23	0.636
511.43	0.635
511.63	0.636
511.83	0.639
512.03	0.638
512.22	0.635
512.42	0.635
512.62	0.635
512.82	0.634
513.02	0.633
513.22	0.633
513.42	0.635
513.62	0.638
513.82	0.636
514.02	0.635
514.22	0.637
514.42	0.637
514.62	0.637
514.82	0.637
515.02	0.640
515.22	0.643
515.42	0.641
515.62	0.643
515.82	0.642
516.02	0.643
516.22	0.643
516.42	0.644
516.62	0.646
516.82	0.647
517.01	0.645
517.21	0.645
517.41	0.649
517.61	0.649
517.81	0.645
518.01	0.644
518.21	0.645
518.41	0.643
518.61	0.642
518.81	0.643
519.01	0.644
519.21	0.645
519.41	0.643
519.61	0.638
519.81	0.640
520.00	0.640
520.20	0.640
520.40	0.643
520.60	0.644
520.80	0.643
521.00	0.643
521.20	0.644
521.40	0.648
521.60	0.649
521.80	0.648
522.00	0.649
522.20	0.652
522.39	0.651
522.59	0.648
522.79	0.649
522.99	0.651
523.19	0.649
523.39	0.647
523.59	0.644
523.79	0.648
523.99	0.650
524.19	0.649
524.38	0.647
524.58	0.648
524.78	0.649
524.98	0.648
525.18	0.650
525.38	0.652
525.58	0.652
525.78	0.650
525.98	0.648
526.18	0.648
526.37	0.648
526.57	0.649
526.77	0.649
526.97	0.650
527.17	0.650
527.37	0.646
527.57	0.649
527.77	0.652
527.96	0.652
528.16	0.651
528.36	0.652
528.56	0.654
528.76	0.651
528.96	0.650
529.16	0.651
529.36	0.654
529.55	0.654
529.75	0.650
529.95	0.650
530.15	0.651
530.35	0.654
530.55	0.652
530.75	0.652
530.94	0.654
531.14	0.655
531.34	0.653
531.54	0.651
531.74	0.654
531.94	0.658
532.13	0.656
532.33	0.657
532.53	0.656
532.73	0.655
532.93	0.653
533.13	0.654
533.33	0.654
533.52	0.654
533.72	0.657
533.92	0.655
534.12	0.653
534.32	0.654
534.52	0.652
534.71	0.654
534.91	0.657
535.11	0.659
535.31	0.657
535.51	0.659
535.71	0.661
535.90	0.657
536.10	0.658
536.30	0.661
536.50	0.661
536.70	0.661
536.89	0.659
537.09	0.658
537.29	0.660
537.49	0.660
537.69	0.658
537.89	0.659
538.08	0.659
538.28	0.658
538.48	0.658
538.68	0.659
538.88	0.661
539.07	0.662
539.27	0.659
539.47	0.659
539.67	0.659
539.87	0.661
540.06	0.658
540.26	0.660
540.46	0.661
540.66	0.659
540.86	0.656
541.05	0.656
541.25	0.658
541.45	0.658
541.65	0.656
541.84	0.658
542.04	0.659
542.24	0.660
542.44	0.658
542.64	0.660
542.83	0.662
543.03	0.663
543.23	0.660
543.43	0.661
543.62	0.663
543.82	0.663
544.02	0.662
544.22	0.662
544.42	0.666
544.61	0.666
544.81	0.662
545.01	0.661
545.21	0.663
545.40	0.663
545.60	0.661
545.80	0.664
546.00	0.664
546.19	0.663
546.39	0.661
546.59	0.659
546.79	0.660
546.98	0.661
547.18	0.660
547.38	0.661
547.58	0.664
547.77	0.665
547.97	0.661
548.17	0.663
548.37	0.664
548.56	0.664
548.76	0.663
548.96	0.666
549.16	0.669
549.35	0.668
549.55	0.666
549.75	0.666
549.95	0.669
550.14	0.670
550.34	0.668
550.54	0.673
550.73	0.677
550.93	0.678
551.13	0.674
551.33	0.673
551.52	0.674
551.72	0.675
551.92	0.673
552.12	0.673
552.31	0.673
552.51	0.673
552.71	0.668
552.90	0.668
553.10	0.669
553.30	0.669
553.50	0.668
553.69	0.670
553.89	0.671
554.09	0.671
554.28	0.668
554.48	0.670
554.68	0.672
554.87	0.672
555.07	0.668
555.27	0.668
555.47	0.669
555.66	0.669
555.86	0.667
556.06	0.669
556.25	0.670
556.45	0.678
556.65	0.676
556.84	0.679
557.04	0.682
557.24	0.685
557.43	0.684
557.63	0.688
557.83	0.689
558.02	0.690
558.22	0.695
558.42	0.695
558.61	0.687
558.81	0.688
559.01	0.683
559.21	0.683
559.40	0.684
559.60	0.684
559.80	0.680
559.99	0.681
560.19	0.683
560.39	0.677
560.58	0.674
560.78	0.675
560.97	0.678
561.17	0.677
561.37	0.675
561.56	0.676
561.76	0.678
561.96	0.678
562.15	0.675
562.35	0.678
562.55	0.680
562.74	0.680
562.94	0.679
563.14	0.677
563.33	0.678
563.53	0.678
563.73	0.674
563.92	0.676
564.12	0.679
564.31	0.681
564.51	0.679
564.71	0.680
564.90	0.682
565.10	0.683
565.30	0.685
565.49	0.687
565.69	0.689
565.89	0.691
566.08	0.687
566.28	0.689
566.47	0.690
566.67	0.689
566.87	0.686
567.06	0.688
567.26	0.695
567.46	0.690
567.65	0.689
567.85	0.690
568.04	0.693
568.24	0.692
568.44	0.688
568.63	0.686
568.83	0.688
569.02	0.687
569.22	0.682
569.42	0.678
569.61	0.681
569.81	0.680
570.00	0.678
570.20	0.679
570.40	0.680
570.59	0.680
570.79	0.678
570.98	0.676
571.18	0.678
571.38	0.677
571.57	0.675
571.77	0.673
571.96	0.676
572.16	0.674
572.35	0.669
572.55	0.670
572.75	0.668
572.94	0.668
573.14	0.666
573.33	0.666
573.53	0.667
573.73	0.667
573.92	0.665
574.12	0.663
574.31	0.666
574.51	0.667
574.70	0.663
574.90	0.665
575.09	0.667
575.29	0.667
575.49	0.664
575.68	0.665
575.88	0.666
576.07	0.668
576.27	0.665
576.46	0.664
576.66	0.664
576.86	0.663
577.05	0.661
577.25	0.659
577.44	0.661
577.64	0.660
577.83	0.658
578.03	0.659
578.22	0.658
578.42	0.657
578.61	0.655
578.81	0.656
579.00	0.656
579.20	0.656
579.40	0.655
579.59	0.654
579.79	0.654
579.98	0.654
580.18	0.653
580.37	0.654
580.57	0.657
580.76	0.661
580.96	0.659
581.15	0.660
581.35	0.662
581.54	0.662
581.74	0.661
581.93	0.663
582.13	0.664
582.32	0.661
582.52	0.659
582.71	0.658
582.91	0.655
583.10	0.655
583.30	0.654
583.49	0.653
583.69	0.657
583.88	0.658
584.08	0.657
584.27	0.659
584.47	0.663
584.66	0.664
584.86	0.662
585.05	0.664
585.25	0.667
585.44	0.666
585.64	0.664
585.83	0.660
586.03	0.662
586.22	0.660
586.42	0.657
586.61	0.658
586.81	0.661
587.00	0.661
587.20	0.659
587.39	0.659
587.59	0.661
587.78	0.662
587.98	0.663
588.17	0.663
588.37	0.666
588.56	0.667
588.76	0.663
588.95	0.662
589.15	0.667
589.34	0.669
589.54	0.668
589.73	0.669
589.92	0.672
590.12	0.671
590.31	0.669
590.51	0.673
590.70	0.675
590.90	0.676
591.09	0.674
591.29	0.672
591.48	0.672
591.68	0.673
591.87	0.671
592.06	0.671
592.26	0.674
592.45	0.673
592.65	0.667
592.84	0.667
593.04	0.669
593.23	0.672
593.43	0.669
593.62	0.668
593.81	0.669
594.01	0.669
594.20	0.666
594.40	0.665
594.59	0.667
594.79	0.668
594.98	0.667
595.17	0.666
595.37	0.667
595.56	0.668
595.76	0.668
595.95	0.669
596.14	0.672
596.34	0.673
596.53	0.671
596.73	0.673
596.92	0.674
597.12	0.676
597.31	0.676
597.50	0.675
597.70	0.678
597.89	0.677
598.09	0.673
598.28	0.674
598.47	0.676
598.67	0.675
598.86	0.671
599.06	0.673
599.25	0.674
599.44	0.672
599.64	0.670
599.83	0.667
600.03	0.671
600.22	0.672
600.41	0.672
600.61	0.670
600.80	0.672
601.00	0.672
601.19	0.669
601.38	0.667
601.58	0.670
601.77	0.670
601.96	0.672
602.16	0.672
602.35	0.680
602.55	0.677
602.74	0.678
602.93	0.679
603.13	0.684
603.32	0.685
603.51	0.685
603.71	0.688
603.90	0.690
604.09	0.690
604.29	0.687
604.48	0.682
604.68	0.684
604.87	0.683
605.06	0.680
605.26	0.676
605.45	0.677
605.64	0.676
605.84	0.671
606.03	0.670
606.22	0.669
606.42	0.669
606.61	0.666
606.80	0.666
607.00	0.668
607.19	0.668
607.38	0.667
607.58	0.668
607.77	0.671
607.96	0.671
608.16	0.670
608.35	0.675
608.54	0.678
608.74	0.681
608.93	0.685
609.12	0.687
609.32	0.690
609.51	0.693
609.70	0.692
609.90	0.694
610.09	0.698
610.28	0.703
610.48	0.696
610.67	0.697
610.86	0.698
611.06	0.692
611.25	0.690
611.44	0.690
611.64	0.690
611.83	0.693
612.02	0.688
612.21	0.687
612.41	0.686
612.60	0.685
612.79	0.681
612.99	0.682
613.18	0.684
613.37	0.682
613.57	0.678
613.76	0.680
613.95	0.678
614.14	0.678
614.34	0.675
614.53	0.676
614.72	0.679
614.92	0.680
615.11	0.677
615.30	0.674
615.49	0.676
615.69	0.679
615.88	0.676
616.07	0.677
616.26	0.680
616.46	0.681
616.65	0.678
616.84	0.676
617.04	0.677
617.23	0.680
617.42	0.681
617.61	0.684
617.81	0.685
618.00	0.687
618.19	0.685
618.38	0.689
618.58	0.692
618.77	0.694
618.96	0.693
619.15	0.696
619.35	0.697
619.54	0.697
619.73	0.693
619.92	0.694
620.12	0.699
620.31	0.700
620.50	0.694
620.69	0.694
620.89	0.698
621.08	0.698
621.27	0.697
621.46	0.695
621.66	0.700
621.85	0.700
622.04	0.696
622.23	0.697
622.43	0.697
622.62	0.697
622.81	0.696
623.00	0.695
623.19	0.698
623.39	0.697
623.58	0.694
623.77	0.692
623.96	0.695
624.16	0.696
624.35	0.691
624.54	0.695
624.73	0.699
624.92	0.697
625.12	0.694
625.31	0.695
625.50	0.699
625.69	0.700
625.88	0.695
626.08	0.695
626.27	0.696
626.46	0.696
626.65	0.693
626.84	0.692
627.04	0.698
627.23	0.698
627.42	0.694
627.61	0.695
627.80	0.698
628.00	0.699
628.19	0.696
628.38	0.700
628.57	0.703
628.76	0.702
628.96	0.699
629.15	0.700
629.34	0.703
629.53	0.703
629.72	0.698
629.91	0.698
630.11	0.703
630.30	0.704
630.49	0.706
630.68	0.706
630.87	0.709
631.06	0.711
631.26	0.705
631.45	0.707
631.64	0.715
631.83	0.717
632.02	0.714
632.21	0.714
632.41	0.722
632.60	0.716
632.79	0.714
632.98	0.714
633.17	0.716
633.36	0.718
633.55	0.715
633.75	0.711
633.94	0.713
634.13	0.714
634.32	0.710
634.51	0.704
634.70	0.706
634.89	0.706
635.09	0.703
635.28	0.704
635.47	0.705
635.66	0.707
635.85	0.703
636.04	0.704
636.23	0.708
636.43	0.710
636.62	0.709
636.81	0.707
637.00	0.710
637.19	0.713
637.38	0.709
637.57	0.709
637.76	0.710
637.95	0.712
638.15	0.707
638.34	0.705
638.53	0.707
638.72	0.709
638.91	0.707
639.10	0.704
639.29	0.705
639.48	0.705
639.67	0.706
639.87	0.705
640.06	0.711
640.25	0.711
640.44	0.712
640.63	0.712
640.82	0.714
641.01	0.715
641.20	0.714
641.39	0.716
641.58	0.719
641.78	0.717
641.97	0.713
642.16	0.726
642.35	0.727
642.54	0.726
642.73	0.721
642.92	0.720
643.11	0.723
643.30	0.724
643.49	0.718
643.68	0.721
643.87	0.723
644.06	0.724
644.25	0.704
644.45	0.706
644.64	0.708
644.83	0.708
645.02	0.704
645.21	0.704
645.40	0.705
645.59	0.705
645.78	0.699
645.97	0.700
646.16	0.702
646.35	0.701
646.54	0.698
646.73	0.699
646.92	0.701
647.11	0.700
647.30	0.696
647.49	0.698
647.68	0.698
647.88	0.696
648.07	0.689
648.26	0.692
648.45	0.694
648.64	0.691
648.83	0.689
649.02	0.691
649.21	0.702
649.40	0.701
649.59	0.695
649.78	0.696
649.97	0.711
650.16	0.710
650.35	0.704
650.54	0.705
650.73	0.713
650.92	0.710
651.11	0.703
651.30	0.701
651.49	0.706
651.68	0.705
651.87	0.703
652.06	0.692
652.25	0.696
652.44	0.699
652.63	0.696
652.82	0.696
653.01	0.695
653.20	0.694
653.39	0.682
653.58	0.679
653.77	0.678
653.96	0.674
654.15	0.666
654.34	0.664
654.53	0.660
654.72	0.654
654.91	0.645
655.10	0.642
655.29	0.639
655.48	0.638
655.67	0.632
655.86	0.631
656.05	0.629
656.24	0.629
656.43	0.624
656.62	0.623
656.81	0.623
657.00	0.621
657.19	0.618
657.38	0.619
657.57	0.618
657.76	0.621
657.95	0.618
658.14	0.622
658.33	0.625
658.51	0.629
658.70	0.629
658.89	0.631
659.08	0.640
659.27	0.647
659.46	0.646
659.65	0.652
659.84	0.655
660.03	0.658
660.22	0.658
660.41	0.662
660.60	0.663
660.79	0.665
660.98	0.671
661.17	0.669
661.36	0.669
661.55	0.670
661.74	0.669
661.92	0.671
662.11	0.674
662.30	0.673
662.49	0.666
662.68	0.665
662.87	0.669
663.06	0.662
663.25	0.663
663.44	0.663
663.63	0.664
663.82	0.662
664.01	0.656
664.20	0.655
664.38	0.656
664.57	0.657
664.76	0.656
664.95	0.656
665.14	0.660
665.33	0.656
665.52	0.662
665.71	0.666
665.90	0.666
666.09	0.667
666.28	0.664
666.46	0.665
666.65	0.665
666.84	0.664
667.03	0.658
667.22	0.656
667.41	0.659
667.60	0.649
667.79	0.643
667.98	0.644
668.16	0.646
668.35	0.646
668.54	0.640
668.73	0.641
668.92	0.643
669.11	0.642
669.30	0.636
669.49	0.633
669.67	0.635
669.86	0.637
670.05	0.634
670.24	0.631
670.43	0.629
670.62	0.628
670.81	0.623
671.00	0.624
671.18	0.624
671.37	0.623
671.56	0.622
671.75	0.621
671.94	0.618
672.13	0.616
672.32	0.611
672.50	0.611
672.69	0.611
672.88	0.612
673.07	0.608
673.26	0.610
673.45	0.612
673.63	0.611
673.82	0.607
674.01	0.609
674.20	0.608
674.39	0.608
674.58	0.607
674.76	0.607
674.95	0.605
675.14	0.605
675.33	0.601
675.52	0.599
675.71	0.599
675.89	0.599
676.08	0.595
676.27	0.595
676.46	0.596
676.65	0.595
676.84	0.594
677.02	0.596
677.21	0.598
677.40	0.597
677.59	0.594
677.78	0.595
677.96	0.597
678.15	0.596
678.34	0.594
678.53	0.595
678.72	0.594
678.90	0.591
679.09	0.587
679.28	0.584
679.47	0.584
679.66	0.583
679.84	0.579
680.03	0.577
680.22	0.576
680.41	0.578
680.60	0.574
680.78	0.573
680.97	0.576
681.16	0.576
681.35	0.575
681.53	0.574
681.72	0.576
681.91	0.578
682.10	0.576
682.29	0.579
682.47	0.576
682.66	0.577
682.85	0.575
683.04	0.573
683.22	0.573
683.41	0.575
683.60	0.574
683.79	0.574
683.97	0.574
684.16	0.572
684.35	0.568
684.54	0.569
684.72	0.569
684.91	0.570
685.10	0.568
685.29	0.570
685.47	0.568
685.66	0.567
685.85	0.564
686.04	0.563
686.22	0.566
686.41	0.568
686.60	0.565
686.79	0.568
686.97	0.569
687.16	0.570
687.35	0.567
687.54	0.571
687.72	0.575
687.91	0.575
688.10	0.576
688.29	0.576
688.47	0.574
688.66	0.574
688.85	0.570
689.03	0.567
689.22	0.572
689.41	0.572
689.60	0.566
689.78	0.563
689.97	0.565
690.16	0.562
690.34	0.558
690.53	0.558
690.72	0.558
690.91	0.557
691.09	0.555
691.28	0.549
691.47	0.547
691.65	0.546
691.84	0.544
692.03	0.542
692.21	0.540
692.40	0.539
692.59	0.536
692.77	0.535
692.96	0.537
693.15	0.537
693.34	0.535
693.52	0.535
693.71	0.536
693.90	0.537
694.08	0.538
694.27	0.539
694.46	0.549
694.64	0.551
694.83	0.550
695.02	0.549
695.20	0.549
695.39	0.548
695.58	0.549
695.76	0.549
695.95	0.548
696.14	0.547
696.32	0.545
696.51	0.536
696.70	0.535
696.88	0.536
697.07	0.535
697.26	0.536
697.44	0.537
697.63	0.536
697.81	0.533
698.00	0.533
698.19	0.533
698.37	0.533
698.56	0.532
698.75	0.533
698.93	0.532
699.12	0.532
699.31	0.530
699.49	0.529
699.68	0.530
699.87	0.532
700.05	0.532
700.24	0.532
700.42	0.533
700.61	0.533
700.80	0.530
700.98	0.531
701.17	0.532
701.36	0.532
701.54	0.531
701.73	0.532
701.91	0.530
702.10	0.530
702.29	0.527
702.47	0.526
702.66	0.528
702.84	0.529
703.03	0.527
703.22	0.529
703.40	0.529
703.59	0.530
703.77	0.529
703.96	0.530
704.15	0.530
704.33	0.530
704.52	0.529
704.70	0.529
704.89	0.529
705.08	0.528
705.26	0.523
705.45	0.523
705.63	0.523
705.82	0.520
706.00	0.518
706.19	0.518
706.38	0.518
706.56	0.518
706.75	0.515
706.93	0.514
707.12	0.516
707.30	0.516
707.49	0.514
707.68	0.512
707.86	0.512
708.05	0.512
708.23	0.509
708.42	0.510
708.60	0.512
708.79	0.512
708.98	0.510
709.16	0.510
709.35	0.512
709.53	0.516
709.72	0.515
709.90	0.517
710.09	0.519
710.27	0.521
710.46	0.524
710.64	0.523
710.83	0.525
711.02	0.526
711.20	0.525
711.39	0.522
711.57	0.520
711.76	0.520
711.94	0.517
712.13	0.518
712.31	0.518
712.50	0.514
712.68	0.511
712.87	0.512
713.05	0.512
713.24	0.513
713.42	0.512
713.61	0.513
713.79	0.515
713.98	0.515
714.16	0.515
714.35	0.515
714.54	0.517
714.72	0.517
714.91	0.514
715.09	0.521
715.28	0.524
715.46	0.524
715.65	0.521
715.83	0.520
716.02	0.522
716.20	0.519
716.39	0.518
716.57	0.518
716.76	0.521
716.94	0.521
717.12	0.513
717.31	0.514
717.49	0.517
717.68	0.519
717.86	0.518
718.05	0.520
718.23	0.523
718.42	0.525
718.60	0.526
718.79	0.534
718.97	0.537
719.16	0.537
719.34	0.535
719.53	0.534
719.71	0.534
719.90	0.536
720.08	0.533
720.27	0.533
720.45	0.533
720.63	0.532
720.82	0.525
721.00	0.528
721.19	0.531
721.37	0.531
721.56	0.531
721.74	0.535
721.93	0.543
722.11	0.550
722.30	0.549
722.48	0.554
722.66	0.555
722.85	0.555
723.03	0.556
723.22	0.555
723.40	0.557
723.59	0.557
723.77	0.559
723.95	0.554
724.14	0.555
724.32	0.556
724.51	0.555
724.69	0.555
724.88	0.556
725.06	0.554
725.24	0.555
725.43	0.556
725.61	0.559
725.80	0.553
725.98	0.551
726.16	0.547
726.35	0.554
726.53	0.553
726.72	0.552
726.90	0.562
727.09	0.563
727.27	0.568
727.45	0.565
727.64	0.574
727.82	0.584
728.01	0.588
728.19	0.586
728.37	0.590
728.56	0.593
728.74	0.598
728.92	0.585
729.11	0.588
729.29	0.587
729.48	0.589
729.66	0.578
729.84	0.577
730.03	0.580
730.21	0.582
730.40	0.572
730.58	0.575
730.76	0.575
730.95	0.578
731.13	0.578
731.31	0.591
731.50	0.602
731.68	0.606
731.86	0.602
732.05	0.616
732.23	0.620
732.42	0.622
732.60	0.625
732.78	0.629
732.97	0.646
733.15	0.652
733.33	0.640
733.52	0.646
733.70	0.657
733.88	0.665
734.07	0.651
734.25	0.674
734.43	0.684
734.62	0.687
734.80	0.684
734.98	0.677
735.17	0.684
735.35	0.690
735.53	0.677
735.72	0.680
735.90	0.702
736.08	0.720
736.27	0.698
736.45	0.706
736.63	0.718
736.82	0.726
737.00	0.725
737.18	0.734
737.37	0.763
737.55	0.784
737.73	0.777
737.92	0.778
738.10	0.776
738.28	0.795
738.46	0.783
738.65	0.798
738.83	0.822
739.01	0.872
739.20	0.862
739.38	0.846
739.56	0.840
739.75	0.847
739.93	0.811
740.11	0.835
740.29	0.837
740.48	0.841
740.66	0.818
740.84	0.808
741.03	0.775
741.21	0.788
741.39	0.770
741.57	0.782
741.76	0.800
741.94	0.806
742.12	0.772
742.31	0.776
742.49	0.796
742.67	0.816
742.85	0.827
743.04	0.829
743.22	0.837
743.40	0.885
743.58	0.864
743.77	0.877
743.95	0.908
744.13	0.952
744.31	0.932
744.50	0.928
744.68	0.933
744.86	0.909
745.04	0.922
745.23	0.979
745.41	0.964
745.59	0.974
745.77	0.939
745.96	0.931
746.14	0.940
746.32	0.938
746.50	0.924
746.69	0.904
746.87	0.917
747.05	0.904
747.23	0.832
747.42	0.820
747.60	0.844
747.78	0.844
747.96	0.868
748.14	0.825
748.33	0.851
748.51	0.845
748.69	0.838
748.87	0.860
749.06	0.856
749.24	0.858
749.42	0.841
749.60	0.824
749.78	0.834
749.97	0.794
750.15	0.789
750.33	0.789
750.51	0.816
750.69	0.820
750.88	0.824
751.06	0.837
751.24	0.862
751.42	0.856
751.60	0.851
751.79	0.919
751.97	0.964
752.15	0.966
752.33	0.939
752.51	1.001
752.69	1.021
752.88	0.990
753.06	1.028
753.24	1.007
753.42	1.042
753.60	1.189
753.78	1.053
753.97	1.070
754.15	1.088
754.33	1.113
754.51	0.997
754.69	0.982
754.87	1.010
755.06	0.946
755.24	0.944
755.42	0.951
755.60	0.864
755.78	0.872
755.96	0.820
756.15	0.824
756.33	0.831
756.51	0.848
756.69	0.835
756.87	0.803
757.05	0.822
757.23	0.809
757.42	0.776
757.60	0.776
757.78	0.766
757.96	0.762
758.14	0.744
758.32	0.727
758.50	0.739
758.69	0.735
758.87	0.727
759.05	0.728
759.23	0.738
759.41	0.743
759.59	0.735
759.77	0.757
759.95	0.785
760.13	0.829
760.32	0.831
760.50	0.828
760.68	0.854
760.86	0.857
761.04	0.830
761.22	0.830
761.40	0.874
761.58	0.872
761.76	0.845
761.95	0.829
762.13	0.789
762.31	0.790
762.49	0.759
762.67	0.774
762.85	0.787
763.03	0.786
763.21	0.768
763.39	0.752
763.57	0.758
763.75	0.749
763.94	0.734
764.12	0.733
764.30	0.756
764.48	0.762
764.66	0.727
764.84	0.726
765.02	0.761
765.20	0.768
765.38	0.746
765.56	0.753
765.74	0.793
765.92	0.793
766.10	0.803
766.28	0.796
766.46	0.822
766.65	0.823
766.83	0.810
767.01	0.795
767.19	0.802
767.37	0.801
767.55	0.786
767.73	0.766
767.91	0.772
768.09	0.762
768.27	0.751
768.45	0.738
768.63	0.742
768.81	0.746
768.99	0.723
769.17	0.745
769.35	0.761
769.53	0.756
769.71	0.738
769.89	0.747
770.07	0.751
770.25	0.734
770.43	0.717
770.61	0.743
770.79	0.748
770.97	0.757
771.15	0.727
771.33	0.729
771.51	0.736
771.69	0.749
771.87	0.757
772.05	0.761
772.24	0.767
772.42	0.774
772.60	0.749
772.78	0.806
772.96	0.831
773.14	0.826
773.32	0.806
773.49	0.811
773.67	0.808
773.85	0.785
774.03	0.774
774.21	0.807
774.39	0.819
774.57	0.842
774.75	0.769
774.93	0.767
775.11	0.788
775.29	0.794
775.47	0.795
775.65	0.806
775.83	0.824
776.01	0.847
776.19	0.800
776.37	0.802
776.55	0.802
776.73	0.800
776.91	0.792
777.09	0.775
777.27	0.775
777.45	0.765
777.63	0.740
777.81	0.736
777.99	0.722
778.17	0.722
778.35	0.700
778.53	0.691
778.71	0.698
778.89	0.689
779.07	0.678
779.24	0.683
779.42	0.686
779.60	0.705
779.78	0.702
779.96	0.707
780.14	0.714
780.32	0.735
780.50	0.716
780.68	0.711
780.86	0.702
781.04	0.719
781.22	0.721
781.40	0.728
781.58	0.719
781.75	0.711
781.93	0.694
782.11	0.695
782.29	0.681
782.47	0.680
782.65	0.672
782.83	0.698
783.01	0.692
783.19	0.687
783.37	0.673
783.55	0.676
783.72	0.694
783.90	0.706
784.08	0.698
784.26	0.709
784.44	0.731
784.62	0.732
784.80	0.701
784.98	0.709
785.16	0.714
785.33	0.726
785.51	0.714
785.69	0.702
785.87	0.702
786.05	0.711
786.23	0.706
786.41	0.703
786.59	0.711
786.77	0.710
786.94	0.695
787.12	0.700
787.30	0.704
787.48	0.701
787.66	0.688
787.84	0.688
788.02	0.679
788.19	0.679
788.37	0.665
788.55	0.666
788.73	0.669
788.91	0.665
789.09	0.649
789.27	0.638
789.44	0.649
789.62	0.655
789.80	0.663
789.98	0.689
790.16	0.676
790.34	0.675
790.51	0.663
790.69	0.681
790.87	0.686
791.05	0.683
791.23	0.676
791.41	0.675
791.58	0.685
791.76	0.665
791.94	0.633
792.12	0.642
792.30	0.643
792.48	0.639
792.65	0.632
792.83	0.642
793.01	0.649
793.19	0.648
793.37	0.634
793.54	0.630
793.72	0.640
793.90	0.640
794.08	0.629
794.26	0.632
794.43	0.643
794.61	0.627
794.79	0.614
794.97	0.612
795.15	0.618
795.32	0.622
795.50	0.610
795.68	0.607
795.86	0.610
796.04	0.611
796.21	0.603
796.39	0.599
796.57	0.613
796.75	0.621
796.92	0.621
797.10	0.624
797.28	0.626
797.46	0.630
797.64	0.630
797.81	0.638
797.99	0.643
798.17	0.648
798.35	0.642
798.52	0.646
798.70	0.640
798.88	0.651
799.06	0.651
799.23	0.652
799.41	0.660
799.59	0.655
799.77	0.644
799.94	0.652
800.12	0.662
800.30	0.681
800.48	0.678
800.65	0.678
800.83	0.668
801.01	0.658
801.19	0.660
801.36	0.656
801.54	0.658
801.72	0.668
801.90	0.655
802.07	0.650
802.25	0.635
802.43	0.619
802.60	0.617
802.78	0.623
802.96	0.629
803.14	0.622
803.31	0.620
803.49	0.620
803.67	0.616
803.84	0.619
804.02	0.610
804.20	0.614
804.38	0.620
804.55	0.620
804.73	0.606
804.91	0.606
805.08	0.618
805.26	0.616
805.44	0.679
805.61	0.681
805.79	0.684
805.97	0.685
806.15	0.674
806.32	0.670
806.50	0.677
806.68	0.677
806.85	0.669
807.03	0.659
807.21	0.674
807.38	0.607
807.56	0.596
807.74	0.603
807.91	0.611
808.09	0.613
808.27	0.630
808.44	0.653
808.62	0.663
808.80	0.664
808.97	0.660
809.15	0.655
809.33	0.673
809.50	0.682
809.68	0.670
809.86	0.674
810.03	0.707
810.21	0.686
810.39	0.669
810.56	0.673
810.74	0.696
810.91	0.764
811.09	0.752
811.27	0.773
811.44	0.782
811.62	0.781
811.80	0.766
811.97	0.734
812.15	0.734
812.33	0.729
812.50	0.713
812.68	0.702
812.85	0.648
813.03	0.650
813.21	0.620
813.38	0.612
813.56	0.615
813.74	0.626
813.91	0.634
814.09	0.664
814.26	0.659
814.44	0.664
814.62	0.655
814.79	0.660
814.97	0.667
815.14	0.670
815.32	0.677
815.50	0.695
815.67	0.696
815.85	0.688
816.02	0.675
816.20	0.681
816.38	0.696
816.55	0.701
816.73	0.698
816.90	0.709
817.08	0.740
817.26	0.742
817.43	0.720
817.61	0.742
817.78	0.762
817.96	0.745
818.13	0.733
818.31	0.734
818.49	0.749
818.66	0.738
818.84	0.722
819.01	0.700
819.19	0.706
819.36	0.710
819.54	0.684
819.71	0.724
819.89	0.737
820.07	0.753
820.24	0.746
820.42	0.747
820.59	0.769
820.77	0.790
820.94	0.783
821.12	0.801
821.29	0.812
821.47	0.810
821.64	0.747
821.82	0.758
822.00	0.755
822.17	0.753
822.35	0.741
822.52	0.743
822.70	0.734
822.87	0.740
823.05	0.719
823.22	0.728
823.40	0.756
823.57	0.776
823.75	0.758
823.92	0.781
824.10	0.796
824.27	0.839
824.45	0.827
824.62	0.880
824.80	0.900
824.97	0.912
825.15	0.908
825.32	0.922
825.50	0.923
825.67	0.934
825.85	0.911
826.02	0.935
826.20	0.957
826.37	1.082
826.55	1.005
826.72	1.198
826.90	1.289
827.07	1.341
827.25	1.264
827.42	1.449
827.60	1.612
827.77	1.796
827.95	1.733
828.12	1.761
828.30	1.393
828.47	1.512
828.65	1.162
828.82	1.197
829.00	1.246
829.17	1.319
829.34	1.316
829.52	1.328
829.69	-0.000
829.87	-0.000
830.04	-0.000
830.22	-0.000
830.39	-0.000
830.57	-0.000
830.74	-0.000
830.92	-0.000
831.09	-0.000
831.26	-0.000
831.44	-0.000
831.61	-0.000
831.79	-0.000
831.96	-0.000
832.14	-0.000
832.31	-0.000
832.49	-0.000
832.66	-0.000
832.83	-0.000
833.01	-0.000
833.18	-0.000
833.36	-0.000
833.53	-0.000
833.70	-0.000
833.88	-0.000
834.05	-0.000
834.23	-0.000
834.40	-0.000
834.58	-0.000
834.75	-0.000
834.92	-0.000
835.10	-0.000
835.27	-0.000
835.45	-0.000
835.62	-0.000
835.79	-0.000
835.97	-0.000
836.14	-0.000
836.32	-0.000
836.49	-0.000
836.66	-0.000
836.84	-0.000
837.01	-0.000
837.18	-0.000
837.36	-0.000
837.53	-0.000
837.71	-0.000
837.88	-0.000
838.05	-0.000
838.23	-0.000
838.40	-0.000
838.58	-0.000
838.75	-0.000
838.92	-0.000
839.10	-0.000
839.27	-0.000
839.44	-0.000
839.62	-0.000
839.79	-0.000
839.96	-0.000
840.14	-0.000
840.31	-0.000
840.48	-0.000
840.66	-0.000
840.83	-0.000
841.01	-0.000
841.18	-0.000
841.35	-0.000
841.53	-0.000
841.70	-0.000
841.87	-0.000
842.05	-0.000
842.22	-0.000
842.39	-0.000
842.57	-0.000
842.74	-0.000
842.91	-0.000
843.09	-0.000
843.26	-0.000
843.43	-0.000
843.60	-0.000
843.78	-0.000
843.95	-0.000
844.12	-0.000
844.30	-0.000
844.47	-0.000
844.64	-0.000
844.82	-0.000
844.99	-0.000
845.16	-0.000
845.34	-0.000
845.51	-0.000
845.68	-0.000
845.85	-0.000
846.03	-0.000
846.20	-0.000
846.37	-0.000
846.55	-0.000
846.72	-0.000
846.89	-0.000
847.06	-0.000
847.24	-0.000
847.41	-0.000
847.58	-0.000
847.76	-0.000
847.93	-0.000
848.10	-0.000
848.27	-0.000
848.45	-0.000
848.62	-0.000
848.79	-0.000
848.97	-0.000
849.14	-0.000
849.31	-0.000
849.48	-0.000
849.66	-0.000
849.83	-0.000
850.00	-0.000
850.17	-0.000
850.35	-0.000
850.52	-0.000
850.69	-0.000
850.86	-0.000
851.04	-0.000
851.21	-0.000
851.38	-0.000
851.55	-0.000
851.72	-0.000
851.90	-0.000
852.07	-0.000
852.24	-0.000
852.41	-0.000
852.59	-0.000
852.76	-0.000
852.93	-0.000
853.10	-0.000
853.28	-0.000
853.45	-0.000
853.62	-0.000
853.79	-0.000
853.96	-0.000
854.14	-0.000
854.31	-0.000
854.48	-0.000
854.65	-0.000
854.82	-0.000
855.00	-0.000
855.17	-0.000
855.34	-0.000
855.51	-0.000
855.68	-0.000
855.86	-0.000
856.03	-0.000
856.20	-0.000
856.37	-0.000
856.54	-0.000
856.72	-0.000
856.89	-0.000
857.06	-0.000
857.23	-0.000
857.40	-0.000
857.57	-0.000
857.75	-0.000
857.92	-0.000
858.09	-0.000
858.26	-0.000
858.43	-0.000
858.60	-0.000
858.78	-0.000
858.95	-0.000
859.12	-0.000
859.29	-0.000
859.46	-0.000
859.63	-0.000
859.81	-0.000
859.98	-0.000
860.15	-0.000
860.32	-0.000
860.49	-0.000
860.66	-0.000
860.83	-0.000
861.01	-0.000
861.18	-0.000
861.35	-0.000
861.52	-0.000
861.69	-0.000
861.86	-0.000
862.03	-0.000
862.21	-0.000
862.38	-0.000
862.55	-0.000
862.72	-0.000
862.89	-0.000
863.06	-0.000
863.23	-0.000
863.40	-0.000
863.58	-0.000
863.75	-0.000
863.92	-0.000
864.09	-0.000
864.26	-0.000
864.43	-0.000
864.60	-0.000
864.77	-0.000
864.94	-0.000
865.11	-0.000
865.29	-0.000
865.46	-0.000
865.63	-0.000
865.80	-0.000
865.97	-0.000
866.14	-0.000
866.31	-0.000
866.48	-0.000
866.65	-0.000
866.82	-0.000
866.99	-0.000
867.16	-0.000
867.34	-0.000
867.51	-0.000
867.68	-0.000
867.85	-0.000
868.02	-0.000
868.19	-0.000
868.36	-0.000
868.53	-0.000
868.70	-0.000
868.87	-0.000
869.04	-0.000
869.21	-0.000
869.38	-0.000
869.55	-0.000
869.72	-0.000
869.89	-0.000
870.06	-0.000
870.24	-0.000
870.41	-0.000
870.58	-0.000
870.75	-0.000
870.92	-0.000
871.09	-0.000
871.26	-0.000
871.43	-0.000
871.60	-0.000
871.77	-0.000
871.94	-0.000
872.11	-0.000
872.28	-0.000
872.45	-0.000
872.62	-0.000
872.79	-0.000
872.96	-0.000
873.13	-0.000
873.30	-0.000
873.47	-0.000
873.64	-0.000
873.81	-0.000
873.98	-0.000
874.15	-0.000
874.32	-0.000
874.49	-0.000
874.66	-0.000
874.83	-0.000
875.00	-0.000
875.17	-0.000
875.34	-0.000
875.51	-0.000
875.68	-0.000
875.85	-0.000
876.02	-0.000
876.19	-0.000
876.36	-0.000
876.53	-0.000
876.70	-0.000
876.87	-0.000
877.04	-0.000
877.21	-0.000
877.38	-0.000
877.55	-0.000
877.72	-0.000
877.89	-0.000
878.06	-0.000
878.23	-0.000
878.39	-0.000
878.56	-0.000
878.73	-0.000
878.90	-0.000
879.07	-0.000
879.24	-0.000
879.41	-0.000
879.58	-0.000
879.75	-0.000
879.92	-0.000
880.09	-0.000
880.26	-0.000
880.43	-0.000
880.60	-0.000
880.77	-0.000
880.94	-0.000
881.11	-0.000
881.27	-0.000
881.44	-0.000
881.61	-0.000
881.78	-0.000
881.95	-0.000
882.12	-0.000
882.29	-0.000
882.46	-0.000
882.63	-0.000
882.80	-0.000
882.97	-0.000
883.14	-0.000
883.30	-0.000
883.47	-0.000
883.64	-0.000
883.81	-0.000
883.98	-0.000
884.15	-0.000
884.32	-0.000
884.49	-0.000
884.66	-0.000
884.82	-0.000
884.99	-0.000
885.16	-0.000
885.33	-0.000
885.50	-0.000
885.67	-0.000
885.84	-0.000
886.01	-0.000
886.17	-0.000
886.34	-0.000
886.51	-0.000
886.68	-0.000
886.85	-0.000
887.02	-0.000
887.19	-0.000
887.36	-0.000
887.52	-0.000
887.69	-0.000
887.86	-0.000
888.03	-0.000
888.20	-0.000
888.37	-0.000
888.54	-0.000
888.70	-0.000
888.87	-0.000
889.04	-0.000
889.21	-0.000
889.38	-0.000
889.55	-0.000
889.71	-0.000
889.88	-0.000
890.05	-0.000
890.22	-0.000
890.39	-0.000
>>>>>End Processed Spectral Data<<<<<
