SpectraSuite Data File
++++++++++++++++++++++++++++++++++++
Date: Fri Jun 19 14:41:32 CEST 2015
User: introlabs
Dark Spectrum Present: Yes
Reference Spectrum Present: Yes
Number of Sampled Component Spectra: 1
Spectrometers: USB4H08886
Integration Time (usec): 745692 (USB4H08886)
Spectra Averaged: 5 (USB4H08886)
Boxcar Smoothing: 5 (USB4H08886)
Correct for Electrical Dark: Yes (USB4H08886)
Strobe/Lamp Enabled: No (USB4H08886)
Correct for Detector Non-linearity: Yes (USB4H08886)
Correct for Stray Light: Yes (USB4H08886)
Number of Pixels in Processed Spectrum: 3648
>>>>>Begin Processed Spectral Data<<<<<
178.14	-0.000
178.36	-0.000
178.57	-0.000
178.79	-0.000
179.01	-0.000
179.22	-0.000
179.44	-0.000
179.65	-0.000
179.87	-0.000
180.08	-0.000
180.30	-0.000
180.52	-0.000
180.73	-0.000
180.95	-0.000
181.16	-0.000
181.38	-0.000
181.59	-0.000
181.81	-0.000
182.03	-0.000
182.24	-0.000
182.46	-0.000
182.67	-0.000
182.89	-0.000
183.10	-0.000
183.32	-0.000
183.54	-0.000
183.75	-0.000
183.97	-0.000
184.18	-0.000
184.40	-0.000
184.61	-0.000
184.83	-0.000
185.04	-0.000
185.26	-0.000
185.48	-0.000
185.69	-0.000
185.91	-0.000
186.12	-0.000
186.34	-0.000
186.55	-0.000
186.77	-0.000
186.98	-0.000
187.20	-0.000
187.42	-0.000
187.63	-0.000
187.85	-0.000
188.06	-0.000
188.28	-0.000
188.49	-0.000
188.71	-0.000
188.92	-0.000
189.14	-0.000
189.36	-0.000
189.57	-0.000
189.79	-0.000
190.00	-0.000
190.22	-0.000
190.43	-0.000
190.65	-0.000
190.86	-0.000
191.08	-0.000
191.29	-0.000
191.51	-0.000
191.72	-0.000
191.94	-0.000
192.16	-0.000
192.37	-0.000
192.59	-0.000
192.80	-0.000
193.02	-0.000
193.23	-0.000
193.45	-0.000
193.66	-0.000
193.88	-0.000
194.09	-0.000
194.31	-0.000
194.52	-0.000
194.74	-0.000
194.95	-0.000
195.17	-0.000
195.38	-0.000
195.60	-0.000
195.81	-0.000
196.03	-0.000
196.25	-0.000
196.46	-0.000
196.68	-0.000
196.89	-0.000
197.11	-0.000
197.32	-0.000
197.54	-0.000
197.75	-0.000
197.97	-0.000
198.18	-0.000
198.40	-0.000
198.61	-0.000
198.83	-0.000
199.04	-0.000
199.26	-0.000
199.47	-0.000
199.69	-0.000
199.90	-0.000
200.12	-0.000
200.33	-0.000
200.55	-0.000
200.76	-0.000
200.98	-0.000
201.19	-0.000
201.41	-0.000
201.62	-0.000
201.84	-0.000
202.05	-0.000
202.27	-0.000
202.48	-0.000
202.70	-0.000
202.91	-0.000
203.13	-0.000
203.34	-0.000
203.56	-0.000
203.77	-0.000
203.99	-0.000
204.20	-0.000
204.42	-0.000
204.63	-0.000
204.85	-0.000
205.06	-0.000
205.28	-0.000
205.49	-0.000
205.71	-0.000
205.92	-0.000
206.14	-0.000
206.35	-0.000
206.56	-0.000
206.78	-0.000
206.99	-0.000
207.21	-0.000
207.42	-0.000
207.64	-0.000
207.85	-0.000
208.07	-0.000
208.28	-0.000
208.50	-0.000
208.71	-0.000
208.93	-0.000
209.14	-0.000
209.36	-0.000
209.57	-0.000
209.79	-0.000
210.00	-0.000
210.22	-0.000
210.43	-0.000
210.64	-0.000
210.86	-0.000
211.07	-0.000
211.29	-0.000
211.50	-0.000
211.72	-0.000
211.93	-0.000
212.15	-0.000
212.36	-0.000
212.58	-0.000
212.79	-0.000
213.01	-0.000
213.22	-0.000
213.43	-0.000
213.65	-0.000
213.86	-0.000
214.08	-0.000
214.29	-0.000
214.51	-0.000
214.72	-0.000
214.94	-0.000
215.15	-0.000
215.36	-0.000
215.58	-0.000
215.79	-0.000
216.01	-0.000
216.22	-0.000
216.44	-0.000
216.65	-0.000
216.87	-0.000
217.08	-0.000
217.29	-0.000
217.51	-0.000
217.72	-0.000
217.94	-0.000
218.15	-0.000
218.37	-0.000
218.58	-0.000
218.80	-0.000
219.01	-0.000
219.22	-0.000
219.44	-0.000
219.65	-0.000
219.87	-0.000
220.08	-0.000
220.30	-0.000
220.51	-0.000
220.72	-0.000
220.94	-0.000
221.15	-0.000
221.37	-0.000
221.58	-0.000
221.79	-0.000
222.01	-0.000
222.22	-0.000
222.44	-0.000
222.65	-0.000
222.87	-0.000
223.08	-0.000
223.29	-0.000
223.51	-0.000
223.72	-0.000
223.94	-0.000
224.15	-0.000
224.36	-0.000
224.58	-0.000
224.79	-0.000
225.01	-0.000
225.22	-0.000
225.44	-0.000
225.65	-0.000
225.86	-0.000
226.08	-0.000
226.29	-0.000
226.51	-0.000
226.72	-0.000
226.93	-0.000
227.15	-0.000
227.36	-0.000
227.58	-0.000
227.79	-0.000
228.00	-0.000
228.22	-0.000
228.43	-0.000
228.65	-0.000
228.86	-0.000
229.07	-0.000
229.29	-0.000
229.50	-0.000
229.72	-0.000
229.93	-0.000
230.14	-0.000
230.36	-0.000
230.57	-0.000
230.78	-0.000
231.00	-0.000
231.21	-0.000
231.43	-0.000
231.64	-0.000
231.85	-0.000
232.07	-0.000
232.28	-0.000
232.50	-0.000
232.71	-0.000
232.92	-0.000
233.14	-0.000
233.35	-0.000
233.56	-0.000
233.78	-0.000
233.99	-0.000
234.21	-0.000
234.42	-0.000
234.63	-0.000
234.85	-0.000
235.06	-0.000
235.27	-0.000
235.49	-0.000
235.70	-0.000
235.91	-0.000
236.13	-0.000
236.34	-0.000
236.56	-0.000
236.77	-0.000
236.98	-0.000
237.20	-0.000
237.41	-0.000
237.62	-0.000
237.84	-0.000
238.05	-0.000
238.26	-0.000
238.48	-0.000
238.69	-0.000
238.91	-0.000
239.12	-0.000
239.33	-0.000
239.55	-0.000
239.76	-0.000
239.97	-0.000
240.19	-0.000
240.40	-0.000
240.61	-0.000
240.83	-0.000
241.04	-0.000
241.25	-0.000
241.47	-0.000
241.68	-0.000
241.89	-0.000
242.11	-0.000
242.32	-0.000
242.53	-0.000
242.75	-0.000
242.96	-0.000
243.17	-0.000
243.39	-0.000
243.60	-0.000
243.81	-0.000
244.03	-0.000
244.24	-0.000
244.45	-0.000
244.67	-0.000
244.88	-0.000
245.09	-0.000
245.31	-0.000
245.52	-0.000
245.73	-0.000
245.95	-0.000
246.16	-0.000
246.37	-0.000
246.59	-0.000
246.80	-0.000
247.01	-0.000
247.23	-0.000
247.44	-0.000
247.65	-0.000
247.87	-0.000
248.08	-0.000
248.29	-0.000
248.51	-0.000
248.72	-0.000
248.93	-0.000
249.15	-0.000
249.36	-0.000
249.57	-0.000
249.78	-0.000
250.00	-0.000
250.21	-0.000
250.42	-0.000
250.64	-0.000
250.85	-0.000
251.06	-0.000
251.28	-0.000
251.49	-0.000
251.70	-0.000
251.92	-0.000
252.13	-0.000
252.34	-0.000
252.55	-0.000
252.77	-0.000
252.98	-0.000
253.19	-0.000
253.41	-0.000
253.62	-0.000
253.83	-0.000
254.05	-0.000
254.26	-0.000
254.47	-0.000
254.68	-0.000
254.90	-0.000
255.11	-0.000
255.32	-0.000
255.54	-0.000
255.75	-0.000
255.96	-0.000
256.17	-0.000
256.39	-0.000
256.60	-0.000
256.81	-0.000
257.03	-0.000
257.24	-0.000
257.45	-0.000
257.66	-0.000
257.88	-0.000
258.09	-0.000
258.30	-0.000
258.51	-0.000
258.73	-0.000
258.94	-0.000
259.15	-0.000
259.37	-0.000
259.58	-0.000
259.79	-0.000
260.00	-0.000
260.22	-0.000
260.43	-0.000
260.64	-0.000
260.85	-0.000
261.07	-0.000
261.28	-0.000
261.49	-0.000
261.71	-0.000
261.92	-0.000
262.13	-0.000
262.34	-0.000
262.56	-0.000
262.77	-0.000
262.98	-0.000
263.19	-0.000
263.41	-0.000
263.62	-0.000
263.83	-0.000
264.04	-0.000
264.26	-0.000
264.47	-0.000
264.68	-0.000
264.89	-0.000
265.11	-0.000
265.32	-0.000
265.53	-0.000
265.74	-0.000
265.96	-0.000
266.17	-0.000
266.38	-0.000
266.59	-0.000
266.81	-0.000
267.02	-0.000
267.23	-0.000
267.44	-0.000
267.65	-0.000
267.87	-0.000
268.08	-0.000
268.29	-0.000
268.50	-0.000
268.72	-0.000
268.93	-0.000
269.14	-0.000
269.35	-0.000
269.57	-0.000
269.78	-0.000
269.99	-0.000
270.20	-0.000
270.41	-0.000
270.63	-0.000
270.84	-0.000
271.05	-0.000
271.26	-0.000
271.48	-0.000
271.69	-0.000
271.90	-0.000
272.11	-0.000
272.32	-0.000
272.54	-0.000
272.75	-0.000
272.96	-0.000
273.17	-0.000
273.39	-0.000
273.60	-0.000
273.81	-0.000
274.02	-0.000
274.23	-0.000
274.45	-0.000
274.66	-0.000
274.87	-0.000
275.08	-0.000
275.29	-0.000
275.51	-0.000
275.72	-0.000
275.93	-0.000
276.14	-0.000
276.35	-0.000
276.57	-0.000
276.78	-0.000
276.99	-0.000
277.20	-0.000
277.41	-0.000
277.63	-0.000
277.84	-0.000
278.05	-0.000
278.26	-0.000
278.47	-0.000
278.69	-0.000
278.90	-0.000
279.11	-0.000
279.32	-0.000
279.53	-0.000
279.74	-0.000
279.96	-0.000
280.17	-0.000
280.38	-0.000
280.59	-0.000
280.80	-0.000
281.02	-0.000
281.23	-0.000
281.44	-0.000
281.65	-0.000
281.86	-0.000
282.07	-0.000
282.29	-0.000
282.50	-0.000
282.71	-0.000
282.92	-0.000
283.13	-0.000
283.35	-0.000
283.56	-0.000
283.77	-0.000
283.98	-0.000
284.19	-0.000
284.40	-0.000
284.62	-0.000
284.83	-0.000
285.04	-0.000
285.25	-0.000
285.46	-0.000
285.67	-0.000
285.88	-0.000
286.10	-0.000
286.31	-0.000
286.52	-0.000
286.73	-0.000
286.94	-0.000
287.15	-0.000
287.37	-0.000
287.58	-0.000
287.79	-0.000
288.00	-0.000
288.21	-0.000
288.42	-0.000
288.63	-0.000
288.85	-0.000
289.06	-0.000
289.27	-0.000
289.48	-0.000
289.69	-0.000
289.90	-0.000
290.11	-0.000
290.33	-0.000
290.54	-0.000
290.75	-0.000
290.96	-0.000
291.17	-0.000
291.38	-0.000
291.59	-0.000
291.81	-0.000
292.02	-0.000
292.23	-0.000
292.44	-0.000
292.65	-0.000
292.86	-0.000
293.07	-0.000
293.28	-0.000
293.50	-0.000
293.71	-0.000
293.92	-0.000
294.13	-0.000
294.34	-0.000
294.55	-0.000
294.76	-0.000
294.97	-0.000
295.19	-0.000
295.40	-0.000
295.61	-0.000
295.82	-0.000
296.03	-0.000
296.24	-0.000
296.45	2.329
296.66	1.846
296.87	1.890
297.09	2.010
297.30	2.321
297.51	1.793
297.72	1.767
297.93	1.874
298.14	1.845
298.35	1.787
298.56	1.753
298.77	1.929
298.99	1.890
299.20	1.844
299.41	1.812
299.62	1.754
299.83	1.737
300.04	1.654
300.25	1.645
300.46	1.690
300.67	1.660
300.88	1.605
301.10	1.603
301.31	1.694
301.52	1.622
301.73	1.553
301.94	1.561
302.15	1.580
302.36	1.529
302.57	1.460
302.78	1.469
302.99	1.515
303.20	1.534
303.41	1.432
303.63	1.414
303.84	1.423
304.05	1.420
304.26	1.356
304.47	1.360
304.68	1.358
304.89	1.349
305.10	1.306
305.31	1.290
305.52	1.334
305.73	1.330
305.94	1.285
306.15	1.274
306.37	1.295
306.58	1.300
306.79	1.269
307.00	1.295
307.21	1.334
307.42	1.325
307.63	1.290
307.84	1.255
308.05	1.291
308.26	1.290
308.47	1.267
308.68	1.263
308.89	1.265
309.10	1.267
309.31	1.223
309.52	1.216
309.73	1.233
309.95	1.226
310.16	1.197
310.37	1.185
310.58	1.206
310.79	1.205
311.00	1.203
311.21	1.207
311.42	1.209
311.63	1.202
311.84	1.182
312.05	1.181
312.26	1.202
312.47	1.214
312.68	1.188
312.89	1.169
313.10	1.175
313.31	1.147
313.52	1.148
313.73	1.148
313.94	1.152
314.15	1.134
314.36	1.113
314.57	1.107
314.78	1.096
314.99	1.093
315.21	1.081
315.42	1.085
315.63	1.097
315.84	1.074
316.05	1.060
316.26	1.068
316.47	1.087
316.68	1.082
316.89	1.062
317.10	1.081
317.31	1.087
317.52	1.087
317.73	1.066
317.94	1.064
318.15	1.107
318.36	1.108
318.57	1.087
318.78	1.076
318.99	1.112
319.20	1.110
319.41	1.077
319.62	1.078
319.83	1.095
320.04	1.089
320.25	1.075
320.46	1.041
320.67	1.043
320.88	1.041
321.09	1.027
321.30	1.012
321.51	1.028
321.72	1.025
321.93	1.009
322.14	1.001
322.35	1.029
322.56	1.030
322.77	1.019
322.98	1.030
323.19	1.039
323.40	1.045
323.61	1.023
323.82	1.017
324.03	1.023
324.24	1.020
324.45	1.006
324.66	0.986
324.87	0.984
325.08	0.982
325.29	0.962
325.50	0.955
325.71	0.961
325.92	0.969
326.13	0.955
326.34	0.956
326.55	0.965
326.76	0.964
326.97	0.954
327.18	0.947
327.39	0.972
327.60	0.973
327.80	0.972
328.01	0.970
328.22	0.970
328.43	0.974
328.64	0.961
328.85	0.966
329.06	0.968
329.27	0.969
329.48	0.964
329.69	0.946
329.90	0.957
330.11	0.951
330.32	0.942
330.53	0.934
330.74	0.933
330.95	0.932
331.16	0.917
331.37	0.924
331.58	0.924
331.79	0.924
332.00	0.917
332.21	0.908
332.42	0.913
332.63	0.905
332.83	0.901
333.04	0.903
333.25	0.915
333.46	0.913
333.67	0.899
333.88	0.902
334.09	0.911
334.30	0.908
334.51	0.900
334.72	0.896
334.93	0.901
335.14	0.899
335.35	0.892
335.56	0.888
335.77	0.897
335.98	0.895
336.18	0.889
336.39	0.882
336.60	0.886
336.81	0.883
337.02	0.882
337.23	0.886
337.44	0.889
337.65	0.891
337.86	0.881
338.07	0.876
338.28	0.882
338.49	0.880
338.70	0.872
338.91	0.878
339.11	0.885
339.32	0.880
339.53	0.869
339.74	0.866
339.95	0.862
340.16	0.859
340.37	0.851
340.58	0.850
340.79	0.852
341.00	0.853
341.21	0.842
341.41	0.844
341.62	0.846
341.83	0.847
342.04	0.842
342.25	0.853
342.46	0.858
342.67	0.856
342.88	0.849
343.09	0.849
343.30	0.855
343.50	0.858
343.71	0.847
343.92	0.846
344.13	0.850
344.34	0.849
344.55	0.833
344.76	0.832
344.97	0.836
345.18	0.835
345.38	0.832
345.59	0.827
345.80	0.828
346.01	0.826
346.22	0.821
346.43	0.816
346.64	0.825
346.85	0.824
347.06	0.817
347.26	0.818
347.47	0.822
347.68	0.817
347.89	0.813
348.10	0.807
348.31	0.813
348.52	0.813
348.73	0.810
348.93	0.807
349.14	0.809
349.35	0.809
349.56	0.802
349.77	0.798
349.98	0.804
350.19	0.802
350.39	0.797
350.60	0.793
350.81	0.810
351.02	0.808
351.23	0.802
351.44	0.804
351.65	0.807
351.86	0.804
352.06	0.803
352.27	0.803
352.48	0.805
352.69	0.804
352.90	0.799
353.11	0.785
353.31	0.793
353.52	0.789
353.73	0.782
353.94	0.783
354.15	0.789
354.36	0.787
354.57	0.778
354.77	0.780
354.98	0.779
355.19	0.778
355.40	0.778
355.61	0.783
355.82	0.789
356.02	0.788
356.23	0.781
356.44	0.783
356.65	0.787
356.86	0.787
357.07	0.781
357.27	0.785
357.48	0.788
357.69	0.783
357.90	0.767
358.11	0.763
358.32	0.765
358.52	0.769
358.73	0.759
358.94	0.762
359.15	0.766
359.36	0.767
359.56	0.762
359.77	0.759
359.98	0.766
360.19	0.766
360.40	0.764
360.61	0.765
360.81	0.764
361.02	0.764
361.23	0.756
361.44	0.754
361.65	0.754
361.85	0.753
362.06	0.752
362.27	0.754
362.48	0.755
362.69	0.757
362.89	0.750
363.10	0.751
363.31	0.756
363.52	0.759
363.73	0.754
363.93	0.755
364.14	0.757
364.35	0.758
364.56	0.747
364.77	0.749
364.97	0.751
365.18	0.752
365.39	0.747
365.60	0.744
365.81	0.746
366.01	0.746
366.22	0.743
366.43	0.742
366.64	0.745
366.84	0.751
367.05	0.747
367.26	0.746
367.47	0.748
367.68	0.748
367.88	0.744
368.09	0.742
368.30	0.744
368.51	0.744
368.71	0.743
368.92	0.747
369.13	0.745
369.34	0.745
369.55	0.743
369.75	0.742
369.96	0.749
370.17	0.749
370.38	0.746
370.58	0.745
370.79	0.751
371.00	0.748
371.21	0.739
371.41	0.745
371.62	0.748
371.83	0.743
372.04	0.742
372.24	0.735
372.45	0.736
372.66	0.736
372.87	0.732
373.07	0.730
373.28	0.731
373.49	0.735
373.70	0.724
373.90	0.724
374.11	0.734
374.32	0.734
374.53	0.732
374.73	0.733
374.94	0.736
375.15	0.736
375.36	0.733
375.56	0.742
375.77	0.743
375.98	0.743
376.19	0.740
376.39	0.733
376.60	0.737
376.81	0.738
377.02	0.736
377.22	0.734
377.43	0.734
377.64	0.734
377.84	0.725
378.05	0.730
378.26	0.736
378.47	0.735
378.67	0.732
378.88	0.729
379.09	0.730
379.30	0.730
379.50	0.727
379.71	0.728
379.92	0.731
380.12	0.730
380.33	0.722
380.54	0.718
380.75	0.725
380.95	0.726
381.16	0.723
381.37	0.723
381.57	0.725
381.78	0.727
381.99	0.727
382.20	0.727
382.40	0.730
382.61	0.730
382.82	0.726
383.02	0.719
383.23	0.722
383.44	0.722
383.64	0.721
383.85	0.723
384.06	0.726
384.27	0.724
384.47	0.722
384.68	0.723
384.89	0.728
385.09	0.728
385.30	0.728
385.51	0.727
385.71	0.729
385.92	0.730
386.13	0.729
386.33	0.730
386.54	0.731
386.75	0.729
386.95	0.725
387.16	0.720
387.37	0.723
387.58	0.722
387.78	0.720
387.99	0.718
388.20	0.720
388.40	0.716
388.61	0.713
388.82	0.716
389.02	0.718
389.23	0.718
389.44	0.717
389.64	0.718
389.85	0.729
390.06	0.729
390.26	0.729
390.47	0.728
390.68	0.731
390.88	0.730
391.09	0.725
391.30	0.724
391.50	0.724
391.71	0.724
391.92	0.721
392.12	0.713
392.33	0.714
392.53	0.714
392.74	0.714
392.95	0.714
393.15	0.716
393.36	0.718
393.57	0.717
393.77	0.720
393.98	0.721
394.19	0.721
394.39	0.721
394.60	0.723
394.81	0.725
395.01	0.723
395.22	0.721
395.43	0.721
395.63	0.725
395.84	0.726
396.04	0.723
396.25	0.725
396.46	0.727
396.66	0.726
396.87	0.723
397.08	0.720
397.28	0.722
397.49	0.724
397.69	0.720
397.90	0.716
398.11	0.718
398.31	0.718
398.52	0.714
398.73	0.715
398.93	0.714
399.14	0.713
399.34	0.712
399.55	0.713
399.76	0.713
399.96	0.715
400.17	0.713
400.37	0.711
400.58	0.718
400.79	0.720
400.99	0.717
401.20	0.723
401.41	0.726
401.61	0.727
401.82	0.732
402.02	0.731
402.23	0.732
402.44	0.733
402.64	0.733
402.85	0.727
403.05	0.726
403.26	0.725
403.47	0.718
403.67	0.717
403.88	0.718
404.08	0.712
404.29	0.710
404.50	0.709
404.70	0.710
404.91	0.708
405.11	0.706
405.32	0.706
405.52	0.706
405.73	0.706
405.94	0.704
406.14	0.706
406.35	0.709
406.55	0.708
406.76	0.706
406.97	0.707
407.17	0.710
407.38	0.709
407.58	0.708
407.79	0.710
407.99	0.713
408.20	0.714
408.41	0.710
408.61	0.707
408.82	0.709
409.02	0.709
409.23	0.706
409.43	0.705
409.64	0.707
409.84	0.706
410.05	0.703
410.26	0.701
410.46	0.701
410.67	0.701
410.87	0.703
411.08	0.704
411.28	0.706
411.49	0.707
411.69	0.705
411.90	0.707
412.11	0.708
412.31	0.710
412.52	0.708
412.72	0.708
412.93	0.709
413.13	0.708
413.34	0.704
413.54	0.705
413.75	0.707
413.95	0.707
414.16	0.703
414.37	0.706
414.57	0.706
414.78	0.709
414.98	0.706
415.19	0.707
415.39	0.705
415.60	0.707
415.80	0.706
416.01	0.704
416.21	0.706
416.42	0.706
416.62	0.701
416.83	0.701
417.03	0.701
417.24	0.702
417.44	0.699
417.65	0.699
417.86	0.699
418.06	0.697
418.27	0.695
418.47	0.697
418.68	0.698
418.88	0.698
419.09	0.696
419.29	0.697
419.50	0.698
419.70	0.697
419.91	0.696
420.11	0.693
420.32	0.695
420.52	0.695
420.73	0.693
420.93	0.694
421.14	0.696
421.34	0.694
421.55	0.691
421.75	0.690
421.96	0.691
422.16	0.691
422.37	0.691
422.57	0.688
422.78	0.690
422.98	0.686
423.19	0.684
423.39	0.683
423.60	0.687
423.80	0.688
424.01	0.686
424.21	0.688
424.42	0.689
424.62	0.689
424.83	0.688
425.03	0.688
425.23	0.691
425.44	0.691
425.64	0.691
425.85	0.689
426.05	0.690
426.26	0.691
426.46	0.687
426.67	0.687
426.87	0.692
427.08	0.693
427.28	0.691
427.49	0.691
427.69	0.692
427.90	0.691
428.10	0.688
428.31	0.688
428.51	0.690
428.71	0.690
428.92	0.691
429.12	0.689
429.33	0.689
429.53	0.692
429.74	0.697
429.94	0.697
430.15	0.697
430.35	0.696
430.56	0.693
430.76	0.693
430.96	0.693
431.17	0.691
431.37	0.687
431.58	0.685
431.78	0.682
431.99	0.675
432.19	0.677
432.40	0.679
432.60	0.679
432.80	0.681
433.01	0.679
433.21	0.679
433.42	0.681
433.62	0.681
433.83	0.681
434.03	0.683
434.23	0.687
434.44	0.686
434.64	0.683
434.85	0.689
435.05	0.690
435.26	0.690
435.46	0.688
435.66	0.688
435.87	0.688
436.07	0.688
436.28	0.683
436.48	0.680
436.69	0.679
436.89	0.680
437.09	0.673
437.30	0.672
437.50	0.672
437.71	0.685
437.91	0.684
438.11	0.685
438.32	0.690
438.52	0.690
438.73	0.689
438.93	0.688
439.13	0.688
439.34	0.691
439.54	0.689
439.75	0.690
439.95	0.680
440.15	0.684
440.36	0.682
440.56	0.679
440.77	0.681
440.97	0.680
441.17	0.679
441.38	0.680
441.58	0.677
441.79	0.676
441.99	0.674
442.19	0.673
442.40	0.670
442.60	0.670
442.81	0.668
443.01	0.668
443.21	0.669
443.42	0.668
443.62	0.666
443.82	0.667
444.03	0.668
444.23	0.669
444.44	0.669
444.64	0.668
444.84	0.669
445.05	0.669
445.25	0.666
445.45	0.667
445.66	0.670
445.86	0.669
446.06	0.670
446.27	0.669
446.47	0.672
446.68	0.670
446.88	0.669
447.08	0.668
447.29	0.670
447.49	0.671
447.69	0.670
447.90	0.667
448.10	0.671
448.30	0.668
448.51	0.670
448.71	0.667
448.91	0.670
449.12	0.668
449.32	0.670
449.52	0.668
449.73	0.672
449.93	0.671
450.14	0.672
450.34	0.671
450.54	0.674
450.75	0.670
450.95	0.669
451.15	0.669
451.36	0.671
451.56	0.667
451.76	0.667
451.97	0.664
452.17	0.664
452.37	0.662
452.58	0.659
452.78	0.659
452.98	0.662
453.19	0.662
453.39	0.662
453.59	0.662
453.79	0.663
454.00	0.663
454.20	0.661
454.40	0.662
454.61	0.664
454.81	0.664
455.01	0.663
455.22	0.663
455.42	0.665
455.62	0.663
455.83	0.662
456.03	0.665
456.23	0.666
456.44	0.668
456.64	0.667
456.84	0.667
457.04	0.667
457.25	0.667
457.45	0.663
457.65	0.662
457.86	0.663
458.06	0.661
458.26	0.657
458.47	0.656
458.67	0.658
458.87	0.658
459.07	0.654
459.28	0.657
459.48	0.659
459.68	0.659
459.89	0.659
460.09	0.658
460.29	0.659
460.49	0.660
460.70	0.659
460.90	0.659
461.10	0.660
461.31	0.659
461.51	0.656
461.71	0.657
461.91	0.659
462.12	0.659
462.32	0.658
462.52	0.659
462.72	0.661
462.93	0.662
463.13	0.660
463.33	0.660
463.53	0.662
463.74	0.661
463.94	0.657
464.14	0.657
464.35	0.658
464.55	0.658
464.75	0.656
464.95	0.654
465.16	0.656
465.36	0.655
465.56	0.654
465.76	0.653
465.97	0.653
466.17	0.654
466.37	0.652
466.57	0.653
466.78	0.654
466.98	0.654
467.18	0.652
467.38	0.651
467.59	0.653
467.79	0.654
467.99	0.653
468.19	0.655
468.39	0.658
468.60	0.658
468.80	0.656
469.00	0.657
469.20	0.658
469.41	0.658
469.61	0.658
469.81	0.659
470.01	0.659
470.22	0.659
470.42	0.657
470.62	0.654
470.82	0.656
471.02	0.655
471.23	0.652
471.43	0.653
471.63	0.655
471.83	0.655
472.04	0.653
472.24	0.652
472.44	0.657
472.64	0.657
472.84	0.655
473.05	0.655
473.25	0.658
473.45	0.658
473.65	0.655
473.85	0.656
474.06	0.657
474.26	0.657
474.46	0.658
474.66	0.655
474.86	0.656
475.07	0.656
475.27	0.653
475.47	0.651
475.67	0.651
475.87	0.654
476.08	0.650
476.28	0.651
476.48	0.653
476.68	0.651
476.88	0.650
477.09	0.651
477.29	0.652
477.49	0.653
477.69	0.652
477.89	0.652
478.09	0.652
478.30	0.654
478.50	0.651
478.70	0.651
478.90	0.651
479.10	0.653
479.31	0.654
479.51	0.652
479.71	0.653
479.91	0.653
480.11	0.652
480.31	0.652
480.52	0.650
480.72	0.651
480.92	0.649
481.12	0.648
481.32	0.646
481.52	0.644
481.72	0.644
481.93	0.647
482.13	0.648
482.33	0.647
482.53	0.646
482.73	0.647
482.93	0.648
483.14	0.648
483.34	0.647
483.54	0.647
483.74	0.647
483.94	0.646
484.14	0.642
484.34	0.642
484.55	0.642
484.75	0.642
484.95	0.640
485.15	0.640
485.35	0.640
485.55	0.640
485.75	0.638
485.96	0.638
486.16	0.640
486.36	0.639
486.56	0.637
486.76	0.638
486.96	0.638
487.16	0.637
487.36	0.635
487.57	0.635
487.77	0.635
487.97	0.636
488.17	0.633
488.37	0.633
488.57	0.634
488.77	0.634
488.97	0.632
489.18	0.632
489.38	0.634
489.58	0.635
489.78	0.634
489.98	0.633
490.18	0.633
490.38	0.634
490.58	0.632
490.78	0.633
490.98	0.634
491.19	0.635
491.39	0.634
491.59	0.633
491.79	0.636
491.99	0.637
492.19	0.636
492.39	0.639
492.59	0.639
492.79	0.641
492.99	0.641
493.20	0.641
493.40	0.641
493.60	0.643
493.80	0.641
494.00	0.638
494.20	0.639
494.40	0.639
494.60	0.636
494.80	0.641
495.00	0.640
495.20	0.638
495.40	0.637
495.61	0.639
495.81	0.639
496.01	0.642
496.21	0.643
496.41	0.642
496.61	0.643
496.81	0.642
497.01	0.637
497.21	0.636
497.41	0.637
497.61	0.636
497.81	0.633
498.01	0.634
498.21	0.632
498.41	0.630
498.61	0.630
498.82	0.632
499.02	0.634
499.22	0.635
499.42	0.634
499.62	0.636
499.82	0.636
500.02	0.638
500.22	0.636
500.42	0.639
500.62	0.640
500.82	0.640
501.02	0.638
501.22	0.637
501.42	0.637
501.62	0.640
501.82	0.639
502.02	0.639
502.22	0.638
502.42	0.640
502.62	0.637
502.82	0.638
503.02	0.638
503.22	0.638
503.42	0.636
503.63	0.636
503.83	0.633
504.03	0.632
504.23	0.631
504.43	0.632
504.63	0.632
504.83	0.632
505.03	0.631
505.23	0.632
505.43	0.634
505.63	0.634
505.83	0.634
506.03	0.636
506.23	0.639
506.43	0.639
506.63	0.638
506.83	0.637
507.03	0.639
507.23	0.640
507.43	0.637
507.63	0.638
507.83	0.638
508.03	0.639
508.23	0.638
508.43	0.637
508.63	0.638
508.83	0.639
509.03	0.639
509.23	0.638
509.43	0.639
509.63	0.639
509.83	0.637
510.03	0.640
510.23	0.641
510.43	0.642
510.63	0.643
510.83	0.643
511.03	0.644
511.23	0.643
511.43	0.642
511.63	0.644
511.83	0.647
512.03	0.646
512.22	0.643
512.42	0.642
512.62	0.643
512.82	0.642
513.02	0.641
513.22	0.641
513.42	0.643
513.62	0.645
513.82	0.643
514.02	0.642
514.22	0.643
514.42	0.644
514.62	0.644
514.82	0.644
515.02	0.647
515.22	0.651
515.42	0.649
515.62	0.652
515.82	0.651
516.02	0.652
516.22	0.652
516.42	0.653
516.62	0.655
516.82	0.656
517.01	0.654
517.21	0.653
517.41	0.656
517.61	0.656
517.81	0.652
518.01	0.651
518.21	0.651
518.41	0.650
518.61	0.649
518.81	0.650
519.01	0.651
519.21	0.651
519.41	0.650
519.61	0.645
519.81	0.648
520.00	0.648
520.20	0.649
520.40	0.651
520.60	0.652
520.80	0.651
521.00	0.651
521.20	0.652
521.40	0.657
521.60	0.657
521.80	0.657
522.00	0.657
522.20	0.659
522.39	0.658
522.59	0.655
522.79	0.657
522.99	0.660
523.19	0.658
523.39	0.655
523.59	0.654
523.79	0.656
523.99	0.658
524.19	0.657
524.38	0.656
524.58	0.658
524.78	0.658
524.98	0.656
525.18	0.658
525.38	0.659
525.58	0.659
525.78	0.657
525.98	0.655
526.18	0.655
526.37	0.654
526.57	0.656
526.77	0.656
526.97	0.657
527.17	0.657
527.37	0.653
527.57	0.656
527.77	0.658
527.96	0.658
528.16	0.657
528.36	0.657
528.56	0.659
528.76	0.656
528.96	0.655
529.16	0.657
529.36	0.659
529.55	0.659
529.75	0.656
529.95	0.656
530.15	0.658
530.35	0.661
530.55	0.659
530.75	0.659
530.94	0.660
531.14	0.660
531.34	0.659
531.54	0.657
531.74	0.660
531.94	0.662
532.13	0.660
532.33	0.661
532.53	0.660
532.73	0.659
532.93	0.658
533.13	0.660
533.33	0.660
533.52	0.660
533.72	0.664
533.92	0.662
534.12	0.660
534.32	0.660
534.52	0.658
534.71	0.660
534.91	0.663
535.11	0.665
535.31	0.663
535.51	0.665
535.71	0.667
535.90	0.664
536.10	0.665
536.30	0.667
536.50	0.668
536.70	0.668
536.89	0.666
537.09	0.665
537.29	0.667
537.49	0.667
537.69	0.665
537.89	0.666
538.08	0.666
538.28	0.665
538.48	0.665
538.68	0.666
538.88	0.668
539.07	0.668
539.27	0.666
539.47	0.665
539.67	0.665
539.87	0.666
540.06	0.664
540.26	0.665
540.46	0.667
540.66	0.664
540.86	0.662
541.05	0.661
541.25	0.663
541.45	0.663
541.65	0.662
541.84	0.664
542.04	0.664
542.24	0.665
542.44	0.664
542.64	0.665
542.83	0.668
543.03	0.669
543.23	0.667
543.43	0.668
543.62	0.669
543.82	0.669
544.02	0.667
544.22	0.667
544.42	0.671
544.61	0.671
544.81	0.668
545.01	0.667
545.21	0.669
545.40	0.670
545.60	0.668
545.80	0.671
546.00	0.672
546.19	0.671
546.39	0.670
546.59	0.668
546.79	0.669
546.98	0.669
547.18	0.669
547.38	0.669
547.58	0.672
547.77	0.672
547.97	0.669
548.17	0.670
548.37	0.671
548.56	0.671
548.76	0.670
548.96	0.672
549.16	0.675
549.35	0.674
549.55	0.672
549.75	0.672
549.95	0.675
550.14	0.675
550.34	0.673
550.54	0.678
550.73	0.682
550.93	0.682
551.13	0.679
551.33	0.677
551.52	0.678
551.72	0.679
551.92	0.677
552.12	0.677
552.31	0.678
552.51	0.679
552.71	0.674
552.90	0.673
553.10	0.674
553.30	0.674
553.50	0.673
553.69	0.675
553.89	0.676
554.09	0.675
554.28	0.672
554.48	0.673
554.68	0.676
554.87	0.676
555.07	0.673
555.27	0.673
555.47	0.675
555.66	0.676
555.86	0.674
556.06	0.676
556.25	0.677
556.45	0.685
556.65	0.683
556.84	0.685
557.04	0.687
557.24	0.689
557.43	0.688
557.63	0.691
557.83	0.692
558.02	0.693
558.22	0.697
558.42	0.698
558.61	0.691
558.81	0.692
559.01	0.688
559.21	0.689
559.40	0.689
559.60	0.690
559.80	0.686
559.99	0.688
560.19	0.690
560.39	0.683
560.58	0.681
560.78	0.681
560.97	0.684
561.17	0.683
561.37	0.681
561.56	0.683
561.76	0.684
561.96	0.684
562.15	0.682
562.35	0.684
562.55	0.686
562.74	0.686
562.94	0.685
563.14	0.683
563.33	0.684
563.53	0.683
563.73	0.681
563.92	0.683
564.12	0.685
564.31	0.687
564.51	0.685
564.71	0.686
564.90	0.689
565.10	0.690
565.30	0.693
565.49	0.694
565.69	0.697
565.89	0.696
566.08	0.692
566.28	0.694
566.47	0.695
566.67	0.693
566.87	0.691
567.06	0.692
567.26	0.698
567.46	0.694
567.65	0.693
567.85	0.694
568.04	0.697
568.24	0.696
568.44	0.693
568.63	0.693
568.83	0.694
569.02	0.693
569.22	0.688
569.42	0.685
569.61	0.687
569.81	0.686
570.00	0.684
570.20	0.686
570.40	0.687
570.59	0.687
570.79	0.684
570.98	0.682
571.18	0.684
571.38	0.683
571.57	0.680
571.77	0.678
571.96	0.681
572.16	0.679
572.35	0.674
572.55	0.675
572.75	0.673
572.94	0.672
573.14	0.671
573.33	0.672
573.53	0.672
573.73	0.672
573.92	0.670
574.12	0.668
574.31	0.671
574.51	0.671
574.70	0.668
574.90	0.670
575.09	0.672
575.29	0.673
575.49	0.670
575.68	0.671
575.88	0.672
576.07	0.674
576.27	0.671
576.46	0.670
576.66	0.670
576.86	0.669
577.05	0.667
577.25	0.665
577.44	0.667
577.64	0.666
577.83	0.664
578.03	0.665
578.22	0.665
578.42	0.664
578.61	0.661
578.81	0.662
579.00	0.663
579.20	0.663
579.40	0.662
579.59	0.660
579.79	0.661
579.98	0.661
580.18	0.660
580.37	0.660
580.57	0.662
580.76	0.667
580.96	0.665
581.15	0.666
581.35	0.668
581.54	0.668
581.74	0.667
581.93	0.668
582.13	0.670
582.32	0.667
582.52	0.665
582.71	0.665
582.91	0.661
583.10	0.660
583.30	0.659
583.49	0.658
583.69	0.662
583.88	0.663
584.08	0.663
584.27	0.664
584.47	0.668
584.66	0.668
584.86	0.667
585.05	0.669
585.25	0.672
585.44	0.671
585.64	0.670
585.83	0.667
586.03	0.667
586.22	0.665
586.42	0.662
586.61	0.663
586.81	0.666
587.00	0.665
587.20	0.663
587.39	0.663
587.59	0.665
587.78	0.666
587.98	0.667
588.17	0.668
588.37	0.671
588.56	0.673
588.76	0.668
588.95	0.669
589.15	0.673
589.34	0.675
589.54	0.674
589.73	0.674
589.92	0.678
590.12	0.677
590.31	0.675
590.51	0.679
590.70	0.681
590.90	0.682
591.09	0.680
591.29	0.678
591.48	0.678
591.68	0.679
591.87	0.678
592.06	0.677
592.26	0.680
592.45	0.679
592.65	0.673
592.84	0.672
593.04	0.675
593.23	0.677
593.43	0.674
593.62	0.673
593.81	0.674
594.01	0.673
594.20	0.670
594.40	0.669
594.59	0.671
594.79	0.672
594.98	0.670
595.17	0.670
595.37	0.670
595.56	0.672
595.76	0.672
595.95	0.674
596.14	0.677
596.34	0.679
596.53	0.676
596.73	0.678
596.92	0.679
597.12	0.681
597.31	0.681
597.50	0.680
597.70	0.682
597.89	0.682
598.09	0.678
598.28	0.679
598.47	0.681
598.67	0.680
598.86	0.676
599.06	0.679
599.25	0.680
599.44	0.678
599.64	0.676
599.83	0.673
600.03	0.676
600.22	0.677
600.41	0.676
600.61	0.674
600.80	0.676
601.00	0.677
601.19	0.673
601.38	0.672
601.58	0.674
601.77	0.675
601.96	0.678
602.16	0.677
602.35	0.686
602.55	0.684
602.74	0.685
602.93	0.687
603.13	0.692
603.32	0.694
603.51	0.692
603.71	0.696
603.90	0.698
604.09	0.698
604.29	0.695
604.48	0.690
604.68	0.691
604.87	0.690
605.06	0.686
605.26	0.683
605.45	0.683
605.64	0.682
605.84	0.677
606.03	0.676
606.22	0.675
606.42	0.674
606.61	0.671
606.80	0.671
607.00	0.672
607.19	0.673
607.38	0.671
607.58	0.672
607.77	0.675
607.96	0.675
608.16	0.674
608.35	0.679
608.54	0.682
608.74	0.684
608.93	0.690
609.12	0.693
609.32	0.696
609.51	0.699
609.70	0.698
609.90	0.699
610.09	0.704
610.28	0.709
610.48	0.702
610.67	0.704
610.86	0.705
611.06	0.698
611.25	0.696
611.44	0.696
611.64	0.696
611.83	0.699
612.02	0.696
612.21	0.695
612.41	0.694
612.60	0.694
612.79	0.690
612.99	0.689
613.18	0.692
613.37	0.690
613.57	0.687
613.76	0.688
613.95	0.686
614.14	0.685
614.34	0.682
614.53	0.683
614.72	0.686
614.92	0.686
615.11	0.682
615.30	0.679
615.49	0.681
615.69	0.683
615.88	0.679
616.07	0.680
616.26	0.682
616.46	0.684
616.65	0.680
616.84	0.680
617.04	0.681
617.23	0.684
617.42	0.685
617.61	0.689
617.81	0.691
618.00	0.693
618.19	0.692
618.38	0.696
618.58	0.700
618.77	0.700
618.96	0.699
619.15	0.701
619.35	0.703
619.54	0.703
619.73	0.698
619.92	0.700
620.12	0.704
620.31	0.704
620.50	0.698
620.69	0.698
620.89	0.702
621.08	0.702
621.27	0.703
621.46	0.701
621.66	0.705
621.85	0.705
622.04	0.702
622.23	0.702
622.43	0.703
622.62	0.703
622.81	0.702
623.00	0.701
623.19	0.705
623.39	0.702
623.58	0.700
623.77	0.698
623.96	0.702
624.16	0.701
624.35	0.696
624.54	0.700
624.73	0.703
624.92	0.701
625.12	0.698
625.31	0.699
625.50	0.703
625.69	0.704
625.88	0.699
626.08	0.698
626.27	0.699
626.46	0.699
626.65	0.696
626.84	0.696
627.04	0.702
627.23	0.702
627.42	0.697
627.61	0.699
627.80	0.703
628.00	0.704
628.19	0.702
628.38	0.706
628.57	0.708
628.76	0.708
628.96	0.704
629.15	0.704
629.34	0.706
629.53	0.708
629.72	0.701
629.91	0.701
630.11	0.707
630.30	0.707
630.49	0.709
630.68	0.711
630.87	0.713
631.06	0.715
631.26	0.710
631.45	0.713
631.64	0.719
631.83	0.722
632.02	0.719
632.21	0.717
632.41	0.724
632.60	0.719
632.79	0.717
632.98	0.718
633.17	0.720
633.36	0.723
633.55	0.719
633.75	0.715
633.94	0.717
634.13	0.717
634.32	0.715
634.51	0.709
634.70	0.711
634.89	0.711
635.09	0.706
635.28	0.707
635.47	0.707
635.66	0.710
635.85	0.706
636.04	0.708
636.23	0.712
636.43	0.713
636.62	0.711
636.81	0.710
637.00	0.713
637.19	0.717
637.38	0.713
637.57	0.712
637.76	0.714
637.95	0.715
638.15	0.711
638.34	0.709
638.53	0.712
638.72	0.714
638.91	0.711
639.10	0.709
639.29	0.709
639.48	0.710
639.67	0.711
639.87	0.708
640.06	0.714
640.25	0.713
640.44	0.713
640.63	0.713
640.82	0.715
641.01	0.715
641.20	0.714
641.39	0.716
641.58	0.718
641.78	0.717
641.97	0.714
642.16	0.728
642.35	0.729
642.54	0.728
642.73	0.723
642.92	0.721
643.11	0.725
643.30	0.725
643.49	0.720
643.68	0.723
643.87	0.724
644.06	0.724
644.25	0.703
644.45	0.706
644.64	0.708
644.83	0.709
645.02	0.706
645.21	0.705
645.40	0.707
645.59	0.707
645.78	0.701
645.97	0.704
646.16	0.704
646.35	0.704
646.54	0.702
646.73	0.703
646.92	0.705
647.11	0.704
647.30	0.700
647.49	0.701
647.68	0.701
647.88	0.700
648.07	0.692
648.26	0.696
648.45	0.698
648.64	0.694
648.83	0.691
649.02	0.693
649.21	0.703
649.40	0.702
649.59	0.696
649.78	0.698
649.97	0.712
650.16	0.713
650.35	0.707
650.54	0.709
650.73	0.719
650.92	0.714
651.11	0.708
651.30	0.706
651.49	0.710
651.68	0.712
651.87	0.709
652.06	0.698
652.25	0.701
652.44	0.704
652.63	0.701
652.82	0.701
653.01	0.701
653.20	0.700
653.39	0.688
653.58	0.686
653.77	0.685
653.96	0.680
654.15	0.672
654.34	0.670
654.53	0.666
654.72	0.660
654.91	0.651
655.10	0.647
655.29	0.645
655.48	0.643
655.67	0.638
655.86	0.635
656.05	0.634
656.24	0.634
656.43	0.629
656.62	0.628
656.81	0.628
657.00	0.626
657.19	0.623
657.38	0.623
657.57	0.622
657.76	0.624
657.95	0.621
658.14	0.624
658.33	0.627
658.51	0.632
658.70	0.632
658.89	0.633
659.08	0.643
659.27	0.650
659.46	0.651
659.65	0.658
659.84	0.662
660.03	0.665
660.22	0.666
660.41	0.670
660.60	0.669
660.79	0.670
660.98	0.675
661.17	0.674
661.36	0.673
661.55	0.674
661.74	0.672
661.92	0.674
662.11	0.675
662.30	0.674
662.49	0.667
662.68	0.666
662.87	0.669
663.06	0.663
663.25	0.665
663.44	0.664
663.63	0.665
663.82	0.664
664.01	0.658
664.20	0.658
664.38	0.659
664.57	0.659
664.76	0.659
664.95	0.660
665.14	0.665
665.33	0.660
665.52	0.667
665.71	0.671
665.90	0.671
666.09	0.673
666.28	0.670
666.46	0.670
666.65	0.671
666.84	0.669
667.03	0.662
667.22	0.660
667.41	0.663
667.60	0.654
667.79	0.646
667.98	0.648
668.16	0.650
668.35	0.649
668.54	0.644
668.73	0.645
668.92	0.645
669.11	0.645
669.30	0.640
669.49	0.636
669.67	0.638
669.86	0.641
670.05	0.637
670.24	0.636
670.43	0.634
670.62	0.634
670.81	0.628
671.00	0.629
671.18	0.629
671.37	0.628
671.56	0.625
671.75	0.624
671.94	0.621
672.13	0.619
672.32	0.614
672.50	0.614
672.69	0.614
672.88	0.615
673.07	0.610
673.26	0.613
673.45	0.614
673.63	0.615
673.82	0.611
674.01	0.612
674.20	0.611
674.39	0.611
674.58	0.610
674.76	0.610
674.95	0.610
675.14	0.609
675.33	0.604
675.52	0.603
675.71	0.602
675.89	0.602
676.08	0.598
676.27	0.599
676.46	0.600
676.65	0.598
676.84	0.598
677.02	0.600
677.21	0.602
677.40	0.601
677.59	0.598
677.78	0.599
677.96	0.602
678.15	0.601
678.34	0.599
678.53	0.600
678.72	0.600
678.90	0.597
679.09	0.593
679.28	0.590
679.47	0.590
679.66	0.590
679.84	0.586
680.03	0.584
680.22	0.583
680.41	0.584
680.60	0.580
680.78	0.579
680.97	0.581
681.16	0.580
681.35	0.579
681.53	0.577
681.72	0.578
681.91	0.580
682.10	0.579
682.29	0.582
682.47	0.580
682.66	0.579
682.85	0.578
683.04	0.577
683.22	0.578
683.41	0.579
683.60	0.579
683.79	0.579
683.97	0.579
684.16	0.577
684.35	0.573
684.54	0.574
684.72	0.574
684.91	0.575
685.10	0.573
685.29	0.574
685.47	0.571
685.66	0.570
685.85	0.567
686.04	0.566
686.22	0.568
686.41	0.571
686.60	0.567
686.79	0.571
686.97	0.571
687.16	0.572
687.35	0.570
687.54	0.573
687.72	0.578
687.91	0.578
688.10	0.579
688.29	0.579
688.47	0.577
688.66	0.577
688.85	0.572
689.03	0.570
689.22	0.575
689.41	0.575
689.60	0.570
689.78	0.568
689.97	0.569
690.16	0.566
690.34	0.563
690.53	0.563
690.72	0.563
690.91	0.561
691.09	0.559
691.28	0.554
691.47	0.552
691.65	0.551
691.84	0.548
692.03	0.546
692.21	0.544
692.40	0.544
692.59	0.542
692.77	0.541
692.96	0.542
693.15	0.543
693.34	0.540
693.52	0.540
693.71	0.541
693.90	0.542
694.08	0.542
694.27	0.543
694.46	0.552
694.64	0.552
694.83	0.552
695.02	0.551
695.20	0.550
695.39	0.550
695.58	0.550
695.76	0.551
695.95	0.550
696.14	0.549
696.32	0.547
696.51	0.538
696.70	0.538
696.88	0.539
697.07	0.538
697.26	0.539
697.44	0.540
697.63	0.539
697.81	0.537
698.00	0.537
698.19	0.536
698.37	0.536
698.56	0.536
698.75	0.536
698.93	0.536
699.12	0.535
699.31	0.533
699.49	0.533
699.68	0.535
699.87	0.537
700.05	0.537
700.24	0.536
700.42	0.538
700.61	0.537
700.80	0.535
700.98	0.535
701.17	0.537
701.36	0.536
701.54	0.536
701.73	0.537
701.91	0.535
702.10	0.534
702.29	0.532
702.47	0.531
702.66	0.532
702.84	0.533
703.03	0.531
703.22	0.533
703.40	0.532
703.59	0.533
703.77	0.532
703.96	0.532
704.15	0.534
704.33	0.533
704.52	0.532
704.70	0.532
704.89	0.532
705.08	0.530
705.26	0.526
705.45	0.526
705.63	0.525
705.82	0.522
706.00	0.521
706.19	0.520
706.38	0.521
706.56	0.519
706.75	0.518
706.93	0.517
707.12	0.518
707.30	0.519
707.49	0.516
707.68	0.514
707.86	0.514
708.05	0.514
708.23	0.511
708.42	0.512
708.60	0.515
708.79	0.514
708.98	0.512
709.16	0.512
709.35	0.514
709.53	0.518
709.72	0.516
709.90	0.519
710.09	0.521
710.27	0.522
710.46	0.526
710.64	0.524
710.83	0.527
711.02	0.528
711.20	0.527
711.39	0.525
711.57	0.523
711.76	0.524
711.94	0.521
712.13	0.522
712.31	0.522
712.50	0.518
712.68	0.515
712.87	0.516
713.05	0.517
713.24	0.518
713.42	0.517
713.61	0.518
713.79	0.519
713.98	0.519
714.16	0.520
714.35	0.519
714.54	0.520
714.72	0.520
714.91	0.518
715.09	0.523
715.28	0.526
715.46	0.526
715.65	0.523
715.83	0.523
716.02	0.525
716.20	0.521
716.39	0.520
716.57	0.521
716.76	0.524
716.94	0.524
717.12	0.516
717.31	0.517
717.49	0.520
717.68	0.522
717.86	0.521
718.05	0.523
718.23	0.526
718.42	0.528
718.60	0.529
718.79	0.536
718.97	0.539
719.16	0.539
719.34	0.537
719.53	0.537
719.71	0.537
719.90	0.537
720.08	0.535
720.27	0.535
720.45	0.535
720.63	0.533
720.82	0.528
721.00	0.530
721.19	0.534
721.37	0.533
721.56	0.533
721.74	0.536
721.93	0.545
722.11	0.553
722.30	0.552
722.48	0.556
722.66	0.558
722.85	0.557
723.03	0.557
723.22	0.555
723.40	0.559
723.59	0.559
723.77	0.562
723.95	0.556
724.14	0.555
724.32	0.556
724.51	0.556
724.69	0.557
724.88	0.558
725.06	0.557
725.24	0.557
725.43	0.558
725.61	0.561
725.80	0.555
725.98	0.553
726.16	0.550
726.35	0.555
726.53	0.555
726.72	0.553
726.90	0.563
727.09	0.564
727.27	0.570
727.45	0.567
727.64	0.577
727.82	0.583
728.01	0.589
728.19	0.586
728.37	0.591
728.56	0.594
728.74	0.601
728.92	0.590
729.11	0.592
729.29	0.591
729.48	0.593
729.66	0.582
729.84	0.582
730.03	0.586
730.21	0.589
730.40	0.579
730.58	0.581
730.76	0.579
730.95	0.582
731.13	0.581
731.31	0.594
731.50	0.604
731.68	0.607
731.86	0.604
732.05	0.617
732.23	0.620
732.42	0.622
732.60	0.625
732.78	0.632
732.97	0.651
733.15	0.658
733.33	0.647
733.52	0.652
733.70	0.663
733.88	0.671
734.07	0.656
734.25	0.682
734.43	0.691
734.62	0.691
734.80	0.685
734.98	0.677
735.17	0.682
735.35	0.687
735.53	0.677
735.72	0.682
735.90	0.705
736.08	0.724
736.27	0.700
736.45	0.710
736.63	0.724
736.82	0.732
737.00	0.732
737.18	0.744
737.37	0.775
737.55	0.797
737.73	0.788
737.92	0.788
738.10	0.786
738.28	0.804
738.46	0.792
738.65	0.806
738.83	0.829
739.01	0.877
739.20	0.866
739.38	0.849
739.56	0.838
739.75	0.842
739.93	0.808
740.11	0.833
740.29	0.834
740.48	0.838
740.66	0.817
740.84	0.812
741.03	0.780
741.21	0.789
741.39	0.771
741.57	0.787
741.76	0.803
741.94	0.811
742.12	0.773
742.31	0.781
742.49	0.802
742.67	0.823
742.85	0.834
743.04	0.840
743.22	0.851
743.40	0.902
743.58	0.881
743.77	0.897
743.95	0.929
744.13	0.980
744.31	0.956
744.50	0.950
744.68	0.950
744.86	0.925
745.04	0.932
745.23	0.990
745.41	0.976
745.59	0.981
745.77	0.947
745.96	0.937
746.14	0.947
746.32	0.945
746.50	0.934
746.69	0.919
746.87	0.935
747.05	0.923
747.23	0.848
747.42	0.837
747.60	0.867
747.78	0.867
747.96	0.894
748.14	0.849
748.33	0.875
748.51	0.868
748.69	0.859
748.87	0.880
749.06	0.877
749.24	0.880
749.42	0.862
749.60	0.841
749.78	0.851
749.97	0.813
750.15	0.808
750.33	0.813
750.51	0.837
750.69	0.842
750.88	0.845
751.06	0.852
751.24	0.875
751.42	0.867
751.60	0.859
751.79	0.928
751.97	0.965
752.15	0.962
752.33	0.929
752.51	0.990
752.69	1.003
752.88	0.972
753.06	1.018
753.24	1.003
753.42	1.034
753.60	1.189
753.78	1.052
753.97	1.073
754.15	1.090
754.33	1.116
754.51	0.994
754.69	0.986
754.87	1.021
755.06	0.952
755.24	0.952
755.42	0.961
755.60	0.869
755.78	0.877
755.96	0.827
756.15	0.830
756.33	0.836
756.51	0.856
756.69	0.840
756.87	0.805
757.05	0.821
757.23	0.805
757.42	0.776
757.60	0.775
757.78	0.766
757.96	0.763
758.14	0.748
758.32	0.733
758.50	0.745
758.69	0.743
758.87	0.734
759.05	0.739
759.23	0.747
759.41	0.746
759.59	0.739
759.77	0.760
759.95	0.786
760.13	0.831
760.32	0.830
760.50	0.826
760.68	0.851
760.86	0.856
761.04	0.830
761.22	0.835
761.40	0.882
761.58	0.883
761.76	0.853
761.95	0.834
762.13	0.792
762.31	0.793
762.49	0.762
762.67	0.779
762.85	0.789
763.03	0.783
763.21	0.766
763.39	0.746
763.57	0.746
763.75	0.744
763.94	0.732
764.12	0.733
764.30	0.756
764.48	0.763
764.66	0.727
764.84	0.726
765.02	0.761
765.20	0.771
765.38	0.754
765.56	0.762
765.74	0.801
765.92	0.800
766.10	0.809
766.28	0.802
766.46	0.825
766.65	0.827
766.83	0.814
767.01	0.797
767.19	0.801
767.37	0.801
767.55	0.786
767.73	0.765
767.91	0.770
768.09	0.756
768.27	0.746
768.45	0.740
768.63	0.746
768.81	0.750
768.99	0.726
769.17	0.748
769.35	0.762
769.53	0.760
769.71	0.742
769.89	0.752
770.07	0.758
770.25	0.739
770.43	0.718
770.61	0.737
770.79	0.742
770.97	0.751
771.15	0.724
771.33	0.723
771.51	0.727
771.69	0.736
771.87	0.743
772.05	0.748
772.24	0.756
772.42	0.765
772.60	0.744
772.78	0.801
772.96	0.826
773.14	0.819
773.32	0.801
773.49	0.808
773.67	0.808
773.85	0.784
774.03	0.774
774.21	0.804
774.39	0.813
774.57	0.836
774.75	0.769
774.93	0.766
775.11	0.788
775.29	0.796
775.47	0.795
775.65	0.805
775.83	0.823
776.01	0.845
776.19	0.800
776.37	0.801
776.55	0.801
776.73	0.795
776.91	0.788
777.09	0.774
777.27	0.771
777.45	0.761
777.63	0.736
777.81	0.733
777.99	0.724
778.17	0.724
778.35	0.704
778.53	0.692
778.71	0.700
778.89	0.686
779.07	0.676
779.24	0.681
779.42	0.683
779.60	0.704
779.78	0.698
779.96	0.701
780.14	0.707
780.32	0.726
780.50	0.709
780.68	0.708
780.86	0.703
781.04	0.719
781.22	0.723
781.40	0.735
781.58	0.726
781.75	0.720
781.93	0.702
782.11	0.705
782.29	0.692
782.47	0.693
782.65	0.679
782.83	0.704
783.01	0.698
783.19	0.692
783.37	0.677
783.55	0.679
783.72	0.698
783.90	0.710
784.08	0.699
784.26	0.710
784.44	0.730
784.62	0.735
784.80	0.706
784.98	0.713
785.16	0.717
785.33	0.729
785.51	0.715
785.69	0.700
785.87	0.699
786.05	0.711
786.23	0.707
786.41	0.703
786.59	0.709
786.77	0.709
786.94	0.695
787.12	0.699
787.30	0.702
787.48	0.700
787.66	0.690
787.84	0.689
788.02	0.680
788.19	0.677
788.37	0.665
788.55	0.666
788.73	0.667
788.91	0.661
789.09	0.645
789.27	0.634
789.44	0.647
789.62	0.653
789.80	0.663
789.98	0.685
790.16	0.673
790.34	0.672
790.51	0.659
790.69	0.676
790.87	0.683
791.05	0.682
791.23	0.676
791.41	0.675
791.58	0.679
791.76	0.658
791.94	0.628
792.12	0.636
792.30	0.635
792.48	0.633
792.65	0.627
792.83	0.634
793.01	0.641
793.19	0.639
793.37	0.625
793.54	0.624
793.72	0.635
793.90	0.635
794.08	0.626
794.26	0.628
794.43	0.639
794.61	0.623
794.79	0.611
794.97	0.610
795.15	0.615
795.32	0.619
795.50	0.609
795.68	0.604
795.86	0.608
796.04	0.608
796.21	0.601
796.39	0.599
796.57	0.614
796.75	0.621
796.92	0.621
797.10	0.626
797.28	0.628
797.46	0.631
797.64	0.632
797.81	0.640
797.99	0.645
798.17	0.650
798.35	0.644
798.52	0.649
798.70	0.645
798.88	0.653
799.06	0.651
799.23	0.653
799.41	0.662
799.59	0.655
799.77	0.643
799.94	0.653
800.12	0.663
800.30	0.680
800.48	0.675
800.65	0.676
800.83	0.668
801.01	0.663
801.19	0.664
801.36	0.658
801.54	0.662
801.72	0.672
801.90	0.658
802.07	0.651
802.25	0.637
802.43	0.624
802.60	0.621
802.78	0.626
802.96	0.629
803.14	0.621
803.31	0.621
803.49	0.621
803.67	0.618
803.84	0.622
804.02	0.614
804.20	0.618
804.38	0.622
804.55	0.620
804.73	0.606
804.91	0.606
805.08	0.620
805.26	0.616
805.44	0.678
805.61	0.682
805.79	0.681
805.97	0.682
806.15	0.674
806.32	0.669
806.50	0.675
806.68	0.675
806.85	0.668
807.03	0.657
807.21	0.675
807.38	0.609
807.56	0.597
807.74	0.605
807.91	0.611
808.09	0.611
808.27	0.630
808.44	0.655
808.62	0.663
808.80	0.663
808.97	0.659
809.15	0.652
809.33	0.668
809.50	0.676
809.68	0.663
809.86	0.671
810.03	0.702
810.21	0.682
810.39	0.666
810.56	0.672
810.74	0.698
810.91	0.768
811.09	0.755
811.27	0.778
811.44	0.785
811.62	0.784
811.80	0.768
811.97	0.740
812.15	0.739
812.33	0.735
812.50	0.720
812.68	0.707
812.85	0.652
813.03	0.655
813.21	0.624
813.38	0.618
813.56	0.623
813.74	0.632
813.91	0.639
814.09	0.669
814.26	0.660
814.44	0.663
814.62	0.653
814.79	0.657
814.97	0.663
815.14	0.666
815.32	0.672
815.50	0.687
815.67	0.691
815.85	0.682
816.02	0.669
816.20	0.677
816.38	0.692
816.55	0.699
816.73	0.698
816.90	0.706
817.08	0.735
817.26	0.738
817.43	0.717
817.61	0.739
817.78	0.760
817.96	0.742
818.13	0.732
818.31	0.731
818.49	0.742
818.66	0.733
818.84	0.722
819.01	0.704
819.19	0.708
819.36	0.712
819.54	0.682
819.71	0.721
819.89	0.733
820.07	0.748
820.24	0.744
820.42	0.744
820.59	0.762
820.77	0.783
820.94	0.773
821.12	0.791
821.29	0.806
821.47	0.809
821.64	0.746
821.82	0.758
822.00	0.753
822.17	0.750
822.35	0.743
822.52	0.745
822.70	0.734
822.87	0.744
823.05	0.722
823.22	0.733
823.40	0.759
823.57	0.781
823.75	0.763
823.92	0.787
824.10	0.805
824.27	0.842
824.45	0.835
824.62	0.894
824.80	0.907
824.97	0.914
825.15	0.904
825.32	0.916
825.50	0.912
825.67	0.922
825.85	0.895
826.02	0.910
826.20	0.931
826.37	1.046
826.55	0.969
826.72	1.142
826.90	1.218
827.07	1.267
827.25	1.205
827.42	1.352
827.60	1.480
827.77	1.625
827.95	1.596
828.12	1.674
828.30	1.360
828.47	1.469
828.65	1.146
828.82	1.193
829.00	1.234
829.17	1.308
829.34	1.308
829.52	1.356
829.69	-0.000
829.87	-0.000
830.04	-0.000
830.22	-0.000
830.39	-0.000
830.57	-0.000
830.74	-0.000
830.92	-0.000
831.09	-0.000
831.26	-0.000
831.44	-0.000
831.61	-0.000
831.79	-0.000
831.96	-0.000
832.14	-0.000
832.31	-0.000
832.49	-0.000
832.66	-0.000
832.83	-0.000
833.01	-0.000
833.18	-0.000
833.36	-0.000
833.53	-0.000
833.70	-0.000
833.88	-0.000
834.05	-0.000
834.23	-0.000
834.40	-0.000
834.58	-0.000
834.75	-0.000
834.92	-0.000
835.10	-0.000
835.27	-0.000
835.45	-0.000
835.62	-0.000
835.79	-0.000
835.97	-0.000
836.14	-0.000
836.32	-0.000
836.49	-0.000
836.66	-0.000
836.84	-0.000
837.01	-0.000
837.18	-0.000
837.36	-0.000
837.53	-0.000
837.71	-0.000
837.88	-0.000
838.05	-0.000
838.23	-0.000
838.40	-0.000
838.58	-0.000
838.75	-0.000
838.92	-0.000
839.10	-0.000
839.27	-0.000
839.44	-0.000
839.62	-0.000
839.79	-0.000
839.96	-0.000
840.14	-0.000
840.31	-0.000
840.48	-0.000
840.66	-0.000
840.83	-0.000
841.01	-0.000
841.18	-0.000
841.35	-0.000
841.53	-0.000
841.70	-0.000
841.87	-0.000
842.05	-0.000
842.22	-0.000
842.39	-0.000
842.57	-0.000
842.74	-0.000
842.91	-0.000
843.09	-0.000
843.26	-0.000
843.43	-0.000
843.60	-0.000
843.78	-0.000
843.95	-0.000
844.12	-0.000
844.30	-0.000
844.47	-0.000
844.64	-0.000
844.82	-0.000
844.99	-0.000
845.16	-0.000
845.34	-0.000
845.51	-0.000
845.68	-0.000
845.85	-0.000
846.03	-0.000
846.20	-0.000
846.37	-0.000
846.55	-0.000
846.72	-0.000
846.89	-0.000
847.06	-0.000
847.24	-0.000
847.41	-0.000
847.58	-0.000
847.76	-0.000
847.93	-0.000
848.10	-0.000
848.27	-0.000
848.45	-0.000
848.62	-0.000
848.79	-0.000
848.97	-0.000
849.14	-0.000
849.31	-0.000
849.48	-0.000
849.66	-0.000
849.83	-0.000
850.00	-0.000
850.17	-0.000
850.35	-0.000
850.52	-0.000
850.69	-0.000
850.86	-0.000
851.04	-0.000
851.21	-0.000
851.38	-0.000
851.55	-0.000
851.72	-0.000
851.90	-0.000
852.07	-0.000
852.24	-0.000
852.41	-0.000
852.59	-0.000
852.76	-0.000
852.93	-0.000
853.10	-0.000
853.28	-0.000
853.45	-0.000
853.62	-0.000
853.79	-0.000
853.96	-0.000
854.14	-0.000
854.31	-0.000
854.48	-0.000
854.65	-0.000
854.82	-0.000
855.00	-0.000
855.17	-0.000
855.34	-0.000
855.51	-0.000
855.68	-0.000
855.86	-0.000
856.03	-0.000
856.20	-0.000
856.37	-0.000
856.54	-0.000
856.72	-0.000
856.89	-0.000
857.06	-0.000
857.23	-0.000
857.40	-0.000
857.57	-0.000
857.75	-0.000
857.92	-0.000
858.09	-0.000
858.26	-0.000
858.43	-0.000
858.60	-0.000
858.78	-0.000
858.95	-0.000
859.12	-0.000
859.29	-0.000
859.46	-0.000
859.63	-0.000
859.81	-0.000
859.98	-0.000
860.15	-0.000
860.32	-0.000
860.49	-0.000
860.66	-0.000
860.83	-0.000
861.01	-0.000
861.18	-0.000
861.35	-0.000
861.52	-0.000
861.69	-0.000
861.86	-0.000
862.03	-0.000
862.21	-0.000
862.38	-0.000
862.55	-0.000
862.72	-0.000
862.89	-0.000
863.06	-0.000
863.23	-0.000
863.40	-0.000
863.58	-0.000
863.75	-0.000
863.92	-0.000
864.09	-0.000
864.26	-0.000
864.43	-0.000
864.60	-0.000
864.77	-0.000
864.94	-0.000
865.11	-0.000
865.29	-0.000
865.46	-0.000
865.63	-0.000
865.80	-0.000
865.97	-0.000
866.14	-0.000
866.31	-0.000
866.48	-0.000
866.65	-0.000
866.82	-0.000
866.99	-0.000
867.16	-0.000
867.34	-0.000
867.51	-0.000
867.68	-0.000
867.85	-0.000
868.02	-0.000
868.19	-0.000
868.36	-0.000
868.53	-0.000
868.70	-0.000
868.87	-0.000
869.04	-0.000
869.21	-0.000
869.38	-0.000
869.55	-0.000
869.72	-0.000
869.89	-0.000
870.06	-0.000
870.24	-0.000
870.41	-0.000
870.58	-0.000
870.75	-0.000
870.92	-0.000
871.09	-0.000
871.26	-0.000
871.43	-0.000
871.60	-0.000
871.77	-0.000
871.94	-0.000
872.11	-0.000
872.28	-0.000
872.45	-0.000
872.62	-0.000
872.79	-0.000
872.96	-0.000
873.13	-0.000
873.30	-0.000
873.47	-0.000
873.64	-0.000
873.81	-0.000
873.98	-0.000
874.15	-0.000
874.32	-0.000
874.49	-0.000
874.66	-0.000
874.83	-0.000
875.00	-0.000
875.17	-0.000
875.34	-0.000
875.51	-0.000
875.68	-0.000
875.85	-0.000
876.02	-0.000
876.19	-0.000
876.36	-0.000
876.53	-0.000
876.70	-0.000
876.87	-0.000
877.04	-0.000
877.21	-0.000
877.38	-0.000
877.55	-0.000
877.72	-0.000
877.89	-0.000
878.06	-0.000
878.23	-0.000
878.39	-0.000
878.56	-0.000
878.73	-0.000
878.90	-0.000
879.07	-0.000
879.24	-0.000
879.41	-0.000
879.58	-0.000
879.75	-0.000
879.92	-0.000
880.09	-0.000
880.26	-0.000
880.43	-0.000
880.60	-0.000
880.77	-0.000
880.94	-0.000
881.11	-0.000
881.27	-0.000
881.44	-0.000
881.61	-0.000
881.78	-0.000
881.95	-0.000
882.12	-0.000
882.29	-0.000
882.46	-0.000
882.63	-0.000
882.80	-0.000
882.97	-0.000
883.14	-0.000
883.30	-0.000
883.47	-0.000
883.64	-0.000
883.81	-0.000
883.98	-0.000
884.15	-0.000
884.32	-0.000
884.49	-0.000
884.66	-0.000
884.82	-0.000
884.99	-0.000
885.16	-0.000
885.33	-0.000
885.50	-0.000
885.67	-0.000
885.84	-0.000
886.01	-0.000
886.17	-0.000
886.34	-0.000
886.51	-0.000
886.68	-0.000
886.85	-0.000
887.02	-0.000
887.19	-0.000
887.36	-0.000
887.52	-0.000
887.69	-0.000
887.86	-0.000
888.03	-0.000
888.20	-0.000
888.37	-0.000
888.54	-0.000
888.70	-0.000
888.87	-0.000
889.04	-0.000
889.21	-0.000
889.38	-0.000
889.55	-0.000
889.71	-0.000
889.88	-0.000
890.05	-0.000
890.22	-0.000
890.39	-0.000
>>>>>End Processed Spectral Data<<<<<
