SpectraSuite Data File
++++++++++++++++++++++++++++++++++++
Date: Fri Jun 19 14:12:20 CEST 2015
User: introlabs
Dark Spectrum Present: Yes
Reference Spectrum Present: Yes
Number of Sampled Component Spectra: 1
Spectrometers: USB4H08886
Integration Time (usec): 745692 (USB4H08886)
Spectra Averaged: 5 (USB4H08886)
Boxcar Smoothing: 5 (USB4H08886)
Correct for Electrical Dark: Yes (USB4H08886)
Strobe/Lamp Enabled: No (USB4H08886)
Correct for Detector Non-linearity: Yes (USB4H08886)
Correct for Stray Light: Yes (USB4H08886)
Number of Pixels in Processed Spectrum: 3648
>>>>>Begin Processed Spectral Data<<<<<
178.14	-0.000
178.36	-0.000
178.57	-0.000
178.79	-0.000
179.01	-0.000
179.22	-0.000
179.44	-0.000
179.65	-0.000
179.87	-0.000
180.08	-0.000
180.30	-0.000
180.52	-0.000
180.73	-0.000
180.95	-0.000
181.16	-0.000
181.38	-0.000
181.59	-0.000
181.81	-0.000
182.03	-0.000
182.24	-0.000
182.46	-0.000
182.67	-0.000
182.89	-0.000
183.10	-0.000
183.32	-0.000
183.54	-0.000
183.75	-0.000
183.97	-0.000
184.18	-0.000
184.40	-0.000
184.61	-0.000
184.83	-0.000
185.04	-0.000
185.26	-0.000
185.48	-0.000
185.69	-0.000
185.91	-0.000
186.12	-0.000
186.34	-0.000
186.55	-0.000
186.77	-0.000
186.98	-0.000
187.20	-0.000
187.42	-0.000
187.63	-0.000
187.85	-0.000
188.06	-0.000
188.28	-0.000
188.49	-0.000
188.71	-0.000
188.92	-0.000
189.14	-0.000
189.36	-0.000
189.57	-0.000
189.79	-0.000
190.00	-0.000
190.22	-0.000
190.43	-0.000
190.65	-0.000
190.86	-0.000
191.08	-0.000
191.29	-0.000
191.51	-0.000
191.72	-0.000
191.94	-0.000
192.16	-0.000
192.37	-0.000
192.59	-0.000
192.80	-0.000
193.02	-0.000
193.23	-0.000
193.45	-0.000
193.66	-0.000
193.88	-0.000
194.09	-0.000
194.31	-0.000
194.52	-0.000
194.74	-0.000
194.95	-0.000
195.17	-0.000
195.38	-0.000
195.60	-0.000
195.81	-0.000
196.03	-0.000
196.25	-0.000
196.46	-0.000
196.68	-0.000
196.89	-0.000
197.11	-0.000
197.32	-0.000
197.54	-0.000
197.75	-0.000
197.97	-0.000
198.18	-0.000
198.40	-0.000
198.61	-0.000
198.83	-0.000
199.04	-0.000
199.26	-0.000
199.47	-0.000
199.69	-0.000
199.90	-0.000
200.12	-0.000
200.33	-0.000
200.55	-0.000
200.76	-0.000
200.98	-0.000
201.19	-0.000
201.41	-0.000
201.62	-0.000
201.84	-0.000
202.05	-0.000
202.27	-0.000
202.48	-0.000
202.70	-0.000
202.91	-0.000
203.13	-0.000
203.34	-0.000
203.56	-0.000
203.77	-0.000
203.99	-0.000
204.20	-0.000
204.42	-0.000
204.63	-0.000
204.85	-0.000
205.06	-0.000
205.28	-0.000
205.49	-0.000
205.71	-0.000
205.92	-0.000
206.14	-0.000
206.35	-0.000
206.56	-0.000
206.78	-0.000
206.99	-0.000
207.21	-0.000
207.42	-0.000
207.64	-0.000
207.85	-0.000
208.07	-0.000
208.28	-0.000
208.50	-0.000
208.71	-0.000
208.93	-0.000
209.14	-0.000
209.36	-0.000
209.57	-0.000
209.79	-0.000
210.00	-0.000
210.22	-0.000
210.43	-0.000
210.64	-0.000
210.86	-0.000
211.07	-0.000
211.29	-0.000
211.50	-0.000
211.72	-0.000
211.93	-0.000
212.15	-0.000
212.36	-0.000
212.58	-0.000
212.79	-0.000
213.01	-0.000
213.22	-0.000
213.43	-0.000
213.65	-0.000
213.86	-0.000
214.08	-0.000
214.29	-0.000
214.51	-0.000
214.72	-0.000
214.94	-0.000
215.15	-0.000
215.36	-0.000
215.58	-0.000
215.79	-0.000
216.01	-0.000
216.22	-0.000
216.44	-0.000
216.65	-0.000
216.87	-0.000
217.08	-0.000
217.29	-0.000
217.51	-0.000
217.72	-0.000
217.94	-0.000
218.15	-0.000
218.37	-0.000
218.58	-0.000
218.80	-0.000
219.01	-0.000
219.22	-0.000
219.44	-0.000
219.65	-0.000
219.87	-0.000
220.08	-0.000
220.30	-0.000
220.51	-0.000
220.72	-0.000
220.94	-0.000
221.15	-0.000
221.37	-0.000
221.58	-0.000
221.79	-0.000
222.01	-0.000
222.22	-0.000
222.44	-0.000
222.65	-0.000
222.87	-0.000
223.08	-0.000
223.29	-0.000
223.51	-0.000
223.72	-0.000
223.94	-0.000
224.15	-0.000
224.36	-0.000
224.58	-0.000
224.79	-0.000
225.01	-0.000
225.22	-0.000
225.44	-0.000
225.65	-0.000
225.86	-0.000
226.08	-0.000
226.29	-0.000
226.51	-0.000
226.72	-0.000
226.93	-0.000
227.15	-0.000
227.36	-0.000
227.58	-0.000
227.79	-0.000
228.00	-0.000
228.22	-0.000
228.43	-0.000
228.65	-0.000
228.86	-0.000
229.07	-0.000
229.29	-0.000
229.50	-0.000
229.72	-0.000
229.93	-0.000
230.14	-0.000
230.36	-0.000
230.57	-0.000
230.78	-0.000
231.00	-0.000
231.21	-0.000
231.43	-0.000
231.64	-0.000
231.85	-0.000
232.07	-0.000
232.28	-0.000
232.50	-0.000
232.71	-0.000
232.92	-0.000
233.14	-0.000
233.35	-0.000
233.56	-0.000
233.78	-0.000
233.99	-0.000
234.21	-0.000
234.42	-0.000
234.63	-0.000
234.85	-0.000
235.06	-0.000
235.27	-0.000
235.49	-0.000
235.70	-0.000
235.91	-0.000
236.13	-0.000
236.34	-0.000
236.56	-0.000
236.77	-0.000
236.98	-0.000
237.20	-0.000
237.41	-0.000
237.62	-0.000
237.84	-0.000
238.05	-0.000
238.26	-0.000
238.48	-0.000
238.69	-0.000
238.91	-0.000
239.12	-0.000
239.33	-0.000
239.55	-0.000
239.76	-0.000
239.97	-0.000
240.19	-0.000
240.40	-0.000
240.61	-0.000
240.83	-0.000
241.04	-0.000
241.25	-0.000
241.47	-0.000
241.68	-0.000
241.89	-0.000
242.11	-0.000
242.32	-0.000
242.53	-0.000
242.75	-0.000
242.96	-0.000
243.17	-0.000
243.39	-0.000
243.60	-0.000
243.81	-0.000
244.03	-0.000
244.24	-0.000
244.45	-0.000
244.67	-0.000
244.88	-0.000
245.09	-0.000
245.31	-0.000
245.52	-0.000
245.73	-0.000
245.95	-0.000
246.16	-0.000
246.37	-0.000
246.59	-0.000
246.80	-0.000
247.01	-0.000
247.23	-0.000
247.44	-0.000
247.65	-0.000
247.87	-0.000
248.08	-0.000
248.29	-0.000
248.51	-0.000
248.72	-0.000
248.93	-0.000
249.15	-0.000
249.36	-0.000
249.57	-0.000
249.78	-0.000
250.00	-0.000
250.21	-0.000
250.42	-0.000
250.64	-0.000
250.85	-0.000
251.06	-0.000
251.28	-0.000
251.49	-0.000
251.70	-0.000
251.92	-0.000
252.13	-0.000
252.34	-0.000
252.55	-0.000
252.77	-0.000
252.98	-0.000
253.19	-0.000
253.41	-0.000
253.62	-0.000
253.83	-0.000
254.05	-0.000
254.26	-0.000
254.47	-0.000
254.68	-0.000
254.90	-0.000
255.11	-0.000
255.32	-0.000
255.54	-0.000
255.75	-0.000
255.96	-0.000
256.17	-0.000
256.39	-0.000
256.60	-0.000
256.81	-0.000
257.03	-0.000
257.24	-0.000
257.45	-0.000
257.66	-0.000
257.88	-0.000
258.09	-0.000
258.30	-0.000
258.51	-0.000
258.73	-0.000
258.94	-0.000
259.15	-0.000
259.37	-0.000
259.58	-0.000
259.79	-0.000
260.00	-0.000
260.22	-0.000
260.43	-0.000
260.64	-0.000
260.85	-0.000
261.07	-0.000
261.28	-0.000
261.49	-0.000
261.71	-0.000
261.92	-0.000
262.13	-0.000
262.34	-0.000
262.56	-0.000
262.77	-0.000
262.98	-0.000
263.19	-0.000
263.41	-0.000
263.62	-0.000
263.83	-0.000
264.04	-0.000
264.26	-0.000
264.47	-0.000
264.68	-0.000
264.89	-0.000
265.11	-0.000
265.32	-0.000
265.53	-0.000
265.74	-0.000
265.96	-0.000
266.17	-0.000
266.38	-0.000
266.59	-0.000
266.81	-0.000
267.02	-0.000
267.23	-0.000
267.44	-0.000
267.65	-0.000
267.87	-0.000
268.08	-0.000
268.29	-0.000
268.50	-0.000
268.72	-0.000
268.93	-0.000
269.14	-0.000
269.35	-0.000
269.57	-0.000
269.78	-0.000
269.99	-0.000
270.20	-0.000
270.41	-0.000
270.63	-0.000
270.84	-0.000
271.05	-0.000
271.26	-0.000
271.48	-0.000
271.69	-0.000
271.90	-0.000
272.11	-0.000
272.32	-0.000
272.54	-0.000
272.75	-0.000
272.96	-0.000
273.17	-0.000
273.39	-0.000
273.60	-0.000
273.81	-0.000
274.02	-0.000
274.23	-0.000
274.45	-0.000
274.66	-0.000
274.87	-0.000
275.08	-0.000
275.29	-0.000
275.51	-0.000
275.72	-0.000
275.93	-0.000
276.14	-0.000
276.35	-0.000
276.57	-0.000
276.78	-0.000
276.99	-0.000
277.20	-0.000
277.41	-0.000
277.63	-0.000
277.84	-0.000
278.05	-0.000
278.26	-0.000
278.47	-0.000
278.69	-0.000
278.90	-0.000
279.11	-0.000
279.32	-0.000
279.53	-0.000
279.74	-0.000
279.96	-0.000
280.17	-0.000
280.38	-0.000
280.59	-0.000
280.80	-0.000
281.02	-0.000
281.23	-0.000
281.44	-0.000
281.65	-0.000
281.86	-0.000
282.07	-0.000
282.29	-0.000
282.50	-0.000
282.71	-0.000
282.92	-0.000
283.13	-0.000
283.35	-0.000
283.56	-0.000
283.77	-0.000
283.98	-0.000
284.19	-0.000
284.40	-0.000
284.62	-0.000
284.83	-0.000
285.04	-0.000
285.25	-0.000
285.46	-0.000
285.67	-0.000
285.88	-0.000
286.10	-0.000
286.31	-0.000
286.52	-0.000
286.73	-0.000
286.94	-0.000
287.15	-0.000
287.37	-0.000
287.58	-0.000
287.79	-0.000
288.00	-0.000
288.21	-0.000
288.42	-0.000
288.63	-0.000
288.85	-0.000
289.06	-0.000
289.27	-0.000
289.48	-0.000
289.69	-0.000
289.90	-0.000
290.11	-0.000
290.33	-0.000
290.54	-0.000
290.75	-0.000
290.96	-0.000
291.17	-0.000
291.38	-0.000
291.59	-0.000
291.81	-0.000
292.02	-0.000
292.23	-0.000
292.44	-0.000
292.65	-0.000
292.86	-0.000
293.07	-0.000
293.28	2.696
293.50	-0.000
293.71	-0.000
293.92	-0.000
294.13	-0.000
294.34	-0.000
294.55	-0.000
294.76	-0.000
294.97	-0.000
295.19	-0.000
295.40	-0.000
295.61	-0.000
295.82	3.641
296.03	2.279
296.24	2.526
296.45	1.864
296.66	1.627
296.87	1.647
297.09	1.707
297.30	1.843
297.51	1.591
297.72	1.579
297.93	1.653
298.14	1.639
298.35	1.609
298.56	1.578
298.77	1.693
298.99	1.669
299.20	1.640
299.41	1.621
299.62	1.594
299.83	1.586
300.04	1.523
300.25	1.515
300.46	1.541
300.67	1.517
300.88	1.478
301.10	1.475
301.31	1.539
301.52	1.482
301.73	1.436
301.94	1.437
302.15	1.457
302.36	1.414
302.57	1.361
302.78	1.370
302.99	1.410
303.20	1.421
303.41	1.339
303.63	1.321
303.84	1.335
304.05	1.328
304.26	1.273
304.47	1.276
304.68	1.279
304.89	1.270
305.10	1.234
305.31	1.223
305.52	1.261
305.73	1.255
305.94	1.220
306.15	1.209
306.37	1.232
306.58	1.239
306.79	1.211
307.00	1.233
307.21	1.269
307.42	1.262
307.63	1.226
307.84	1.200
308.05	1.232
308.26	1.233
308.47	1.213
308.68	1.208
308.89	1.208
309.10	1.206
309.31	1.167
309.52	1.158
309.73	1.173
309.95	1.168
310.16	1.142
310.37	1.132
310.58	1.149
310.79	1.147
311.00	1.141
311.21	1.144
311.42	1.145
311.63	1.140
311.84	1.122
312.05	1.120
312.26	1.143
312.47	1.155
312.68	1.133
312.89	1.119
313.10	1.127
313.31	1.103
313.52	1.103
313.73	1.104
313.94	1.105
314.15	1.090
314.36	1.070
314.57	1.064
314.78	1.051
314.99	1.045
315.21	1.034
315.42	1.037
315.63	1.051
315.84	1.030
316.05	1.018
316.26	1.027
316.47	1.044
316.68	1.039
316.89	1.020
317.10	1.040
317.31	1.045
317.52	1.045
317.73	1.026
317.94	1.025
318.15	1.065
318.36	1.063
318.57	1.047
318.78	1.038
318.99	1.070
319.20	1.066
319.41	1.033
319.62	1.035
319.83	1.048
320.04	1.043
320.25	1.028
320.46	0.999
320.67	1.002
320.88	0.997
321.09	0.983
321.30	0.970
321.51	0.986
321.72	0.985
321.93	0.969
322.14	0.963
322.35	0.989
322.56	0.992
322.77	0.978
322.98	0.991
323.19	1.000
323.40	1.007
323.61	0.986
323.82	0.980
324.03	0.985
324.24	0.983
324.45	0.970
324.66	0.952
324.87	0.950
325.08	0.950
325.29	0.930
325.50	0.923
325.71	0.926
325.92	0.934
326.13	0.921
326.34	0.922
326.55	0.930
326.76	0.928
326.97	0.917
327.18	0.911
327.39	0.936
327.60	0.938
327.80	0.938
328.01	0.937
328.22	0.937
328.43	0.940
328.64	0.930
328.85	0.933
329.06	0.936
329.27	0.934
329.48	0.929
329.69	0.911
329.90	0.920
330.11	0.914
330.32	0.908
330.53	0.901
330.74	0.900
330.95	0.898
331.16	0.884
331.37	0.891
331.58	0.894
331.79	0.893
332.00	0.884
332.21	0.878
332.42	0.882
332.63	0.874
332.83	0.871
333.04	0.873
333.25	0.885
333.46	0.883
333.67	0.871
333.88	0.873
334.09	0.882
334.30	0.878
334.51	0.870
334.72	0.865
334.93	0.868
335.14	0.866
335.35	0.860
335.56	0.855
335.77	0.864
335.98	0.862
336.18	0.857
336.39	0.851
336.60	0.855
336.81	0.854
337.02	0.853
337.23	0.858
337.44	0.861
337.65	0.862
337.86	0.853
338.07	0.847
338.28	0.852
338.49	0.850
338.70	0.843
338.91	0.850
339.11	0.856
339.32	0.851
339.53	0.840
339.74	0.838
339.95	0.834
340.16	0.833
340.37	0.826
340.58	0.824
340.79	0.828
341.00	0.827
341.21	0.816
341.41	0.818
341.62	0.820
341.83	0.821
342.04	0.817
342.25	0.827
342.46	0.832
342.67	0.832
342.88	0.825
343.09	0.824
343.30	0.831
343.50	0.833
343.71	0.824
343.92	0.822
344.13	0.828
344.34	0.827
344.55	0.811
344.76	0.810
344.97	0.814
345.18	0.813
345.38	0.810
345.59	0.805
345.80	0.805
346.01	0.803
346.22	0.799
346.43	0.793
346.64	0.801
346.85	0.801
347.06	0.794
347.26	0.793
347.47	0.797
347.68	0.793
347.89	0.789
348.10	0.784
348.31	0.791
348.52	0.791
348.73	0.789
348.93	0.785
349.14	0.787
349.35	0.787
349.56	0.781
349.77	0.776
349.98	0.781
350.19	0.779
350.39	0.774
350.60	0.769
350.81	0.785
351.02	0.782
351.23	0.778
351.44	0.780
351.65	0.783
351.86	0.781
352.06	0.780
352.27	0.781
352.48	0.783
352.69	0.782
352.90	0.778
353.11	0.764
353.31	0.772
353.52	0.768
353.73	0.760
353.94	0.761
354.15	0.767
354.36	0.767
354.57	0.758
354.77	0.760
354.98	0.760
355.19	0.760
355.40	0.760
355.61	0.765
355.82	0.769
356.02	0.769
356.23	0.762
356.44	0.763
356.65	0.766
356.86	0.766
357.07	0.760
357.27	0.764
357.48	0.766
357.69	0.761
357.90	0.746
358.11	0.743
358.32	0.748
358.52	0.750
358.73	0.741
358.94	0.744
359.15	0.749
359.36	0.749
359.56	0.743
359.77	0.741
359.98	0.748
360.19	0.749
360.40	0.745
360.61	0.746
360.81	0.745
361.02	0.745
361.23	0.737
361.44	0.735
361.65	0.735
361.85	0.735
362.06	0.733
362.27	0.735
362.48	0.735
362.69	0.737
362.89	0.730
363.10	0.731
363.31	0.736
363.52	0.739
363.73	0.734
363.93	0.736
364.14	0.738
364.35	0.740
364.56	0.729
364.77	0.731
364.97	0.733
365.18	0.734
365.39	0.729
365.60	0.726
365.81	0.727
366.01	0.727
366.22	0.723
366.43	0.722
366.64	0.724
366.84	0.731
367.05	0.727
367.26	0.726
367.47	0.728
367.68	0.728
367.88	0.725
368.09	0.723
368.30	0.726
368.51	0.725
368.71	0.725
368.92	0.729
369.13	0.727
369.34	0.726
369.55	0.725
369.75	0.725
369.96	0.732
370.17	0.733
370.38	0.729
370.58	0.728
370.79	0.734
371.00	0.732
371.21	0.723
371.41	0.729
371.62	0.732
371.83	0.728
372.04	0.726
372.24	0.720
372.45	0.721
372.66	0.721
372.87	0.718
373.07	0.715
373.28	0.716
373.49	0.719
373.70	0.710
373.90	0.711
374.11	0.719
374.32	0.718
374.53	0.717
374.73	0.717
374.94	0.720
375.15	0.720
375.36	0.717
375.56	0.725
375.77	0.726
375.98	0.726
376.19	0.723
376.39	0.717
376.60	0.721
376.81	0.721
377.02	0.719
377.22	0.717
377.43	0.717
377.64	0.718
377.84	0.708
378.05	0.713
378.26	0.719
378.47	0.718
378.67	0.715
378.88	0.712
379.09	0.713
379.30	0.712
379.50	0.710
379.71	0.713
379.92	0.715
380.12	0.715
380.33	0.707
380.54	0.702
380.75	0.709
380.95	0.709
381.16	0.707
381.37	0.707
381.57	0.710
381.78	0.711
381.99	0.710
382.20	0.710
382.40	0.713
382.61	0.713
382.82	0.710
383.02	0.704
383.23	0.707
383.44	0.707
383.64	0.705
383.85	0.708
384.06	0.710
384.27	0.708
384.47	0.706
384.68	0.707
384.89	0.713
385.09	0.712
385.30	0.712
385.51	0.711
385.71	0.714
385.92	0.715
386.13	0.713
386.33	0.716
386.54	0.717
386.75	0.716
386.95	0.711
387.16	0.707
387.37	0.709
387.58	0.708
387.78	0.706
387.99	0.703
388.20	0.705
388.40	0.702
388.61	0.697
388.82	0.700
389.02	0.703
389.23	0.702
389.44	0.701
389.64	0.702
389.85	0.713
390.06	0.713
390.26	0.714
390.47	0.713
390.68	0.716
390.88	0.715
391.09	0.711
391.30	0.710
391.50	0.710
391.71	0.710
391.92	0.707
392.12	0.699
392.33	0.700
392.53	0.699
392.74	0.699
392.95	0.698
393.15	0.701
393.36	0.703
393.57	0.701
393.77	0.704
393.98	0.707
394.19	0.706
394.39	0.706
394.60	0.707
394.81	0.709
395.01	0.707
395.22	0.705
395.43	0.706
395.63	0.711
395.84	0.712
396.04	0.708
396.25	0.709
396.46	0.711
396.66	0.709
396.87	0.707
397.08	0.704
397.28	0.706
397.49	0.708
397.69	0.704
397.90	0.699
398.11	0.700
398.31	0.701
398.52	0.697
398.73	0.698
398.93	0.698
399.14	0.697
399.34	0.696
399.55	0.697
399.76	0.697
399.96	0.698
400.17	0.696
400.37	0.695
400.58	0.702
400.79	0.704
400.99	0.702
401.20	0.707
401.41	0.709
401.61	0.710
401.82	0.715
402.02	0.714
402.23	0.715
402.44	0.715
402.64	0.715
402.85	0.710
403.05	0.708
403.26	0.707
403.47	0.700
403.67	0.699
403.88	0.700
404.08	0.694
404.29	0.692
404.50	0.692
404.70	0.692
404.91	0.691
405.11	0.688
405.32	0.689
405.52	0.689
405.73	0.689
405.94	0.687
406.14	0.690
406.35	0.692
406.55	0.691
406.76	0.689
406.97	0.691
407.17	0.693
407.38	0.693
407.58	0.692
407.79	0.695
407.99	0.697
408.20	0.699
408.41	0.694
408.61	0.692
408.82	0.694
409.02	0.694
409.23	0.690
409.43	0.689
409.64	0.690
409.84	0.690
410.05	0.686
410.26	0.684
410.46	0.684
410.67	0.684
410.87	0.685
411.08	0.687
411.28	0.689
411.49	0.690
411.69	0.688
411.90	0.689
412.11	0.691
412.31	0.692
412.52	0.690
412.72	0.691
412.93	0.692
413.13	0.690
413.34	0.686
413.54	0.687
413.75	0.689
413.95	0.688
414.16	0.686
414.37	0.689
414.57	0.689
414.78	0.692
414.98	0.689
415.19	0.691
415.39	0.688
415.60	0.690
415.80	0.690
416.01	0.688
416.21	0.690
416.42	0.691
416.62	0.685
416.83	0.686
417.03	0.685
417.24	0.685
417.44	0.683
417.65	0.683
417.86	0.683
418.06	0.681
418.27	0.679
418.47	0.681
418.68	0.681
418.88	0.682
419.09	0.680
419.29	0.681
419.50	0.681
419.70	0.680
419.91	0.678
420.11	0.677
420.32	0.679
420.52	0.679
420.73	0.678
420.93	0.678
421.14	0.680
421.34	0.679
421.55	0.676
421.75	0.676
421.96	0.677
422.16	0.677
422.37	0.676
422.57	0.674
422.78	0.675
422.98	0.672
423.19	0.669
423.39	0.668
423.60	0.671
423.80	0.673
424.01	0.671
424.21	0.673
424.42	0.674
424.62	0.674
424.83	0.673
425.03	0.674
425.23	0.676
425.44	0.677
425.64	0.677
425.85	0.676
426.05	0.677
426.26	0.677
426.46	0.674
426.67	0.673
426.87	0.678
427.08	0.679
427.28	0.676
427.49	0.677
427.69	0.678
427.90	0.677
428.10	0.674
428.31	0.673
428.51	0.675
428.71	0.674
428.92	0.675
429.12	0.672
429.33	0.673
429.53	0.677
429.74	0.680
429.94	0.680
430.15	0.680
430.35	0.680
430.56	0.678
430.76	0.677
430.96	0.678
431.17	0.676
431.37	0.673
431.58	0.671
431.78	0.669
431.99	0.662
432.19	0.664
432.40	0.666
432.60	0.666
432.80	0.668
433.01	0.666
433.21	0.666
433.42	0.668
433.62	0.669
433.83	0.668
434.03	0.670
434.23	0.673
434.44	0.672
434.64	0.669
434.85	0.674
435.05	0.676
435.26	0.676
435.46	0.674
435.66	0.674
435.87	0.674
436.07	0.674
436.28	0.670
436.48	0.667
436.69	0.666
436.89	0.667
437.09	0.661
437.30	0.660
437.50	0.661
437.71	0.672
437.91	0.671
438.11	0.673
438.32	0.677
438.52	0.677
438.73	0.676
438.93	0.675
439.13	0.675
439.34	0.678
439.54	0.675
439.75	0.675
439.95	0.665
440.15	0.669
440.36	0.667
440.56	0.665
440.77	0.666
440.97	0.666
441.17	0.664
441.38	0.665
441.58	0.662
441.79	0.662
441.99	0.661
442.19	0.660
442.40	0.658
442.60	0.658
442.81	0.655
443.01	0.655
443.21	0.657
443.42	0.656
443.62	0.655
443.82	0.655
444.03	0.657
444.23	0.657
444.44	0.657
444.64	0.656
444.84	0.658
445.05	0.658
445.25	0.655
445.45	0.656
445.66	0.658
445.86	0.657
446.06	0.658
446.27	0.657
446.47	0.660
446.68	0.658
446.88	0.657
447.08	0.656
447.29	0.658
447.49	0.658
447.69	0.657
447.90	0.656
448.10	0.660
448.30	0.658
448.51	0.658
448.71	0.656
448.91	0.659
449.12	0.658
449.32	0.658
449.52	0.657
449.73	0.661
449.93	0.660
450.14	0.660
450.34	0.659
450.54	0.662
450.75	0.659
450.95	0.658
451.15	0.658
451.36	0.660
451.56	0.657
451.76	0.656
451.97	0.653
452.17	0.654
452.37	0.653
452.58	0.650
452.78	0.650
452.98	0.653
453.19	0.652
453.39	0.653
453.59	0.651
453.79	0.652
454.00	0.653
454.20	0.651
454.40	0.651
454.61	0.653
454.81	0.654
455.01	0.652
455.22	0.652
455.42	0.654
455.62	0.652
455.83	0.652
456.03	0.656
456.23	0.656
456.44	0.657
456.64	0.656
456.84	0.656
457.04	0.656
457.25	0.656
457.45	0.653
457.65	0.651
457.86	0.652
458.06	0.651
458.26	0.646
458.47	0.646
458.67	0.647
458.87	0.647
459.07	0.645
459.28	0.647
459.48	0.649
459.68	0.649
459.89	0.649
460.09	0.647
460.29	0.648
460.49	0.650
460.70	0.648
460.90	0.648
461.10	0.649
461.31	0.649
461.51	0.647
461.71	0.648
461.91	0.650
462.12	0.650
462.32	0.650
462.52	0.650
462.72	0.653
462.93	0.654
463.13	0.652
463.33	0.653
463.53	0.654
463.74	0.653
463.94	0.648
464.14	0.648
464.35	0.650
464.55	0.650
464.75	0.647
464.95	0.645
465.16	0.647
465.36	0.646
465.56	0.645
465.76	0.644
465.97	0.645
466.17	0.646
466.37	0.644
466.57	0.645
466.78	0.646
466.98	0.646
467.18	0.644
467.38	0.643
467.59	0.644
467.79	0.646
467.99	0.645
468.19	0.646
468.39	0.649
468.60	0.649
468.80	0.647
469.00	0.648
469.20	0.649
469.41	0.649
469.61	0.649
469.81	0.649
470.01	0.649
470.22	0.649
470.42	0.647
470.62	0.645
470.82	0.646
471.02	0.646
471.23	0.643
471.43	0.644
471.63	0.646
471.83	0.646
472.04	0.645
472.24	0.643
472.44	0.649
472.64	0.649
472.84	0.646
473.05	0.646
473.25	0.649
473.45	0.648
473.65	0.646
473.85	0.647
474.06	0.648
474.26	0.647
474.46	0.648
474.66	0.645
474.86	0.646
475.07	0.646
475.27	0.645
475.47	0.642
475.67	0.643
475.87	0.645
476.08	0.641
476.28	0.643
476.48	0.643
476.68	0.641
476.88	0.640
477.09	0.640
477.29	0.642
477.49	0.642
477.69	0.641
477.89	0.641
478.09	0.641
478.30	0.643
478.50	0.640
478.70	0.640
478.90	0.641
479.10	0.643
479.31	0.644
479.51	0.643
479.71	0.644
479.91	0.644
480.11	0.643
480.31	0.643
480.52	0.642
480.72	0.642
480.92	0.641
481.12	0.640
481.32	0.638
481.52	0.635
481.72	0.636
481.93	0.638
482.13	0.639
482.33	0.638
482.53	0.636
482.73	0.637
482.93	0.638
483.14	0.638
483.34	0.637
483.54	0.638
483.74	0.638
483.94	0.637
484.14	0.633
484.34	0.633
484.55	0.634
484.75	0.633
484.95	0.632
485.15	0.631
485.35	0.631
485.55	0.631
485.75	0.629
485.96	0.629
486.16	0.630
486.36	0.630
486.56	0.629
486.76	0.629
486.96	0.630
487.16	0.629
487.36	0.627
487.57	0.627
487.77	0.628
487.97	0.629
488.17	0.627
488.37	0.626
488.57	0.627
488.77	0.627
488.97	0.626
489.18	0.625
489.38	0.628
489.58	0.628
489.78	0.627
489.98	0.627
490.18	0.626
490.38	0.628
490.58	0.626
490.78	0.626
490.98	0.628
491.19	0.628
491.39	0.628
491.59	0.626
491.79	0.629
491.99	0.630
492.19	0.629
492.39	0.632
492.59	0.632
492.79	0.634
492.99	0.634
493.20	0.634
493.40	0.634
493.60	0.635
493.80	0.633
494.00	0.631
494.20	0.631
494.40	0.631
494.60	0.629
494.80	0.633
495.00	0.632
495.20	0.631
495.40	0.630
495.61	0.631
495.81	0.631
496.01	0.635
496.21	0.636
496.41	0.635
496.61	0.635
496.81	0.634
497.01	0.629
497.21	0.628
497.41	0.629
497.61	0.629
497.81	0.626
498.01	0.627
498.21	0.625
498.41	0.622
498.61	0.623
498.82	0.624
499.02	0.626
499.22	0.627
499.42	0.626
499.62	0.628
499.82	0.628
500.02	0.629
500.22	0.628
500.42	0.630
500.62	0.631
500.82	0.632
501.02	0.630
501.22	0.629
501.42	0.629
501.62	0.631
501.82	0.631
502.02	0.631
502.22	0.631
502.42	0.632
502.62	0.629
502.82	0.630
503.02	0.630
503.22	0.631
503.42	0.629
503.63	0.629
503.83	0.627
504.03	0.626
504.23	0.623
504.43	0.624
504.63	0.626
504.83	0.626
505.03	0.625
505.23	0.626
505.43	0.628
505.63	0.629
505.83	0.628
506.03	0.630
506.23	0.632
506.43	0.633
506.63	0.631
506.83	0.630
507.03	0.631
507.23	0.631
507.43	0.628
507.63	0.629
507.83	0.630
508.03	0.631
508.23	0.630
508.43	0.629
508.63	0.630
508.83	0.631
509.03	0.633
509.23	0.632
509.43	0.633
509.63	0.633
509.83	0.632
510.03	0.634
510.23	0.636
510.43	0.636
510.63	0.636
510.83	0.636
511.03	0.637
511.23	0.635
511.43	0.634
511.63	0.635
511.83	0.637
512.03	0.637
512.22	0.634
512.42	0.633
512.62	0.634
512.82	0.634
513.02	0.634
513.22	0.633
513.42	0.635
513.62	0.638
513.82	0.635
514.02	0.635
514.22	0.636
514.42	0.637
514.62	0.636
514.82	0.636
515.02	0.639
515.22	0.642
515.42	0.641
515.62	0.643
515.82	0.642
516.02	0.644
516.22	0.644
516.42	0.645
516.62	0.646
516.82	0.648
517.01	0.646
517.21	0.645
517.41	0.649
517.61	0.649
517.81	0.645
518.01	0.644
518.21	0.644
518.41	0.643
518.61	0.642
518.81	0.643
519.01	0.643
519.21	0.643
519.41	0.642
519.61	0.637
519.81	0.639
520.00	0.639
520.20	0.640
520.40	0.642
520.60	0.644
520.80	0.642
521.00	0.643
521.20	0.644
521.40	0.649
521.60	0.649
521.80	0.648
522.00	0.649
522.20	0.651
522.39	0.651
522.59	0.647
522.79	0.649
522.99	0.652
523.19	0.650
523.39	0.648
523.59	0.645
523.79	0.649
523.99	0.651
524.19	0.650
524.38	0.649
524.58	0.651
524.78	0.651
524.98	0.649
525.18	0.651
525.38	0.652
525.58	0.653
525.78	0.650
525.98	0.648
526.18	0.648
526.37	0.648
526.57	0.650
526.77	0.649
526.97	0.650
527.17	0.649
527.37	0.646
527.57	0.648
527.77	0.649
527.96	0.650
528.16	0.648
528.36	0.649
528.56	0.651
528.76	0.649
528.96	0.648
529.16	0.649
529.36	0.652
529.55	0.652
529.75	0.649
529.95	0.650
530.15	0.651
530.35	0.653
530.55	0.650
530.75	0.651
530.94	0.652
531.14	0.653
531.34	0.651
531.54	0.649
531.74	0.653
531.94	0.656
532.13	0.654
532.33	0.656
532.53	0.655
532.73	0.655
532.93	0.653
533.13	0.655
533.33	0.654
533.52	0.655
533.72	0.658
533.92	0.656
534.12	0.654
534.32	0.654
534.52	0.652
534.71	0.653
534.91	0.656
535.11	0.657
535.31	0.655
535.51	0.657
535.71	0.660
535.90	0.657
536.10	0.658
536.30	0.660
536.50	0.661
536.70	0.661
536.89	0.659
537.09	0.658
537.29	0.660
537.49	0.661
537.69	0.659
537.89	0.659
538.08	0.658
538.28	0.656
538.48	0.657
538.68	0.659
538.88	0.661
539.07	0.660
539.27	0.659
539.47	0.658
539.67	0.658
539.87	0.659
540.06	0.657
540.26	0.658
540.46	0.660
540.66	0.657
540.86	0.655
541.05	0.654
541.25	0.656
541.45	0.656
541.65	0.655
541.84	0.656
542.04	0.657
542.24	0.658
542.44	0.657
542.64	0.659
542.83	0.662
543.03	0.663
543.23	0.660
543.43	0.661
543.62	0.662
543.82	0.662
544.02	0.662
544.22	0.662
544.42	0.665
544.61	0.665
544.81	0.662
545.01	0.661
545.21	0.662
545.40	0.663
545.60	0.661
545.80	0.665
546.00	0.665
546.19	0.664
546.39	0.663
546.59	0.660
546.79	0.661
546.98	0.662
547.18	0.662
547.38	0.662
547.58	0.665
547.77	0.665
547.97	0.661
548.17	0.662
548.37	0.663
548.56	0.664
548.76	0.663
548.96	0.665
549.16	0.667
549.35	0.667
549.55	0.665
549.75	0.665
549.95	0.668
550.14	0.669
550.34	0.667
550.54	0.672
550.73	0.676
550.93	0.677
551.13	0.673
551.33	0.672
551.52	0.673
551.72	0.673
551.92	0.671
552.12	0.672
552.31	0.673
552.51	0.673
552.71	0.667
552.90	0.667
553.10	0.669
553.30	0.669
553.50	0.668
553.69	0.669
553.89	0.670
554.09	0.670
554.28	0.667
554.48	0.668
554.68	0.670
554.87	0.670
555.07	0.667
555.27	0.666
555.47	0.668
555.66	0.668
555.86	0.667
556.06	0.669
556.25	0.670
556.45	0.677
556.65	0.676
556.84	0.678
557.04	0.682
557.24	0.683
557.43	0.683
557.63	0.686
557.83	0.688
558.02	0.688
558.22	0.691
558.42	0.691
558.61	0.685
558.81	0.685
559.01	0.682
559.21	0.681
559.40	0.683
559.60	0.683
559.80	0.679
559.99	0.681
560.19	0.683
560.39	0.678
560.58	0.676
560.78	0.677
560.97	0.680
561.17	0.679
561.37	0.677
561.56	0.677
561.76	0.678
561.96	0.677
562.15	0.675
562.35	0.677
562.55	0.678
562.74	0.678
562.94	0.676
563.14	0.674
563.33	0.675
563.53	0.674
563.73	0.672
563.92	0.674
564.12	0.677
564.31	0.680
564.51	0.678
564.71	0.679
564.90	0.683
565.10	0.683
565.30	0.686
565.49	0.686
565.69	0.690
565.89	0.690
566.08	0.686
566.28	0.687
566.47	0.689
566.67	0.687
566.87	0.684
567.06	0.687
567.26	0.693
567.46	0.689
567.65	0.688
567.85	0.689
568.04	0.692
568.24	0.691
568.44	0.689
568.63	0.687
568.83	0.689
569.02	0.687
569.22	0.682
569.42	0.678
569.61	0.681
569.81	0.679
570.00	0.677
570.20	0.678
570.40	0.680
570.59	0.679
570.79	0.677
570.98	0.675
571.18	0.676
571.38	0.676
571.57	0.674
571.77	0.671
571.96	0.675
572.16	0.673
572.35	0.668
572.55	0.668
572.75	0.667
572.94	0.666
573.14	0.665
573.33	0.665
573.53	0.666
573.73	0.665
573.92	0.663
574.12	0.661
574.31	0.664
574.51	0.666
574.70	0.663
574.90	0.664
575.09	0.667
575.29	0.667
575.49	0.664
575.68	0.665
575.88	0.667
576.07	0.668
576.27	0.665
576.46	0.664
576.66	0.663
576.86	0.662
577.05	0.660
577.25	0.658
577.44	0.659
577.64	0.659
577.83	0.657
578.03	0.658
578.22	0.657
578.42	0.657
578.61	0.656
578.81	0.657
579.00	0.657
579.20	0.657
579.40	0.655
579.59	0.654
579.79	0.655
579.98	0.654
580.18	0.654
580.37	0.654
580.57	0.656
580.76	0.661
580.96	0.659
581.15	0.660
581.35	0.662
581.54	0.662
581.74	0.661
581.93	0.663
582.13	0.664
582.32	0.661
582.52	0.659
582.71	0.659
582.91	0.655
583.10	0.655
583.30	0.653
583.49	0.653
583.69	0.657
583.88	0.657
584.08	0.656
584.27	0.658
584.47	0.662
584.66	0.663
584.86	0.662
585.05	0.664
585.25	0.666
585.44	0.666
585.64	0.664
585.83	0.661
586.03	0.662
586.22	0.660
586.42	0.656
586.61	0.658
586.81	0.659
587.00	0.659
587.20	0.657
587.39	0.657
587.59	0.659
587.78	0.661
587.98	0.661
588.17	0.662
588.37	0.665
588.56	0.667
588.76	0.663
588.95	0.663
589.15	0.667
589.34	0.670
589.54	0.668
589.73	0.668
589.92	0.671
590.12	0.671
590.31	0.669
590.51	0.673
590.70	0.675
590.90	0.676
591.09	0.673
591.29	0.672
591.48	0.672
591.68	0.673
591.87	0.671
592.06	0.670
592.26	0.674
592.45	0.673
592.65	0.667
592.84	0.666
593.04	0.669
593.23	0.671
593.43	0.669
593.62	0.668
593.81	0.668
594.01	0.669
594.20	0.666
594.40	0.664
594.59	0.667
594.79	0.668
594.98	0.666
595.17	0.665
595.37	0.666
595.56	0.668
595.76	0.666
595.95	0.668
596.14	0.671
596.34	0.672
596.53	0.670
596.73	0.672
596.92	0.674
597.12	0.676
597.31	0.676
597.50	0.675
597.70	0.677
597.89	0.677
598.09	0.673
598.28	0.675
598.47	0.677
598.67	0.676
598.86	0.672
599.06	0.673
599.25	0.674
599.44	0.672
599.64	0.670
599.83	0.668
600.03	0.671
600.22	0.672
600.41	0.671
600.61	0.669
600.80	0.671
601.00	0.672
601.19	0.668
601.38	0.666
601.58	0.669
601.77	0.670
601.96	0.671
602.16	0.671
602.35	0.680
602.55	0.678
602.74	0.678
602.93	0.680
603.13	0.685
603.32	0.686
603.51	0.686
603.71	0.688
603.90	0.690
604.09	0.691
604.29	0.688
604.48	0.682
604.68	0.684
604.87	0.682
605.06	0.679
605.26	0.676
605.45	0.677
605.64	0.676
605.84	0.671
606.03	0.670
606.22	0.669
606.42	0.668
606.61	0.664
606.80	0.664
607.00	0.666
607.19	0.666
607.38	0.664
607.58	0.665
607.77	0.668
607.96	0.668
608.16	0.668
608.35	0.673
608.54	0.676
608.74	0.680
608.93	0.685
609.12	0.687
609.32	0.690
609.51	0.694
609.70	0.693
609.90	0.694
610.09	0.699
610.28	0.703
610.48	0.696
610.67	0.698
610.86	0.698
611.06	0.693
611.25	0.690
611.44	0.691
611.64	0.691
611.83	0.694
612.02	0.690
612.21	0.689
612.41	0.688
612.60	0.687
612.79	0.683
612.99	0.683
613.18	0.685
613.37	0.683
613.57	0.681
613.76	0.682
613.95	0.680
614.14	0.680
614.34	0.677
614.53	0.678
614.72	0.681
614.92	0.682
615.11	0.679
615.30	0.676
615.49	0.677
615.69	0.679
615.88	0.676
616.07	0.677
616.26	0.679
616.46	0.680
616.65	0.677
616.84	0.675
617.04	0.677
617.23	0.680
617.42	0.680
617.61	0.684
617.81	0.685
618.00	0.687
618.19	0.685
618.38	0.689
618.58	0.693
618.77	0.693
618.96	0.692
619.15	0.694
619.35	0.696
619.54	0.697
619.73	0.692
619.92	0.694
620.12	0.698
620.31	0.698
620.50	0.693
620.69	0.693
620.89	0.696
621.08	0.696
621.27	0.696
621.46	0.695
621.66	0.699
621.85	0.699
622.04	0.696
622.23	0.697
622.43	0.698
622.62	0.698
622.81	0.697
623.00	0.696
623.19	0.700
623.39	0.699
623.58	0.696
623.77	0.695
623.96	0.697
624.16	0.697
624.35	0.691
624.54	0.695
624.73	0.699
624.92	0.697
625.12	0.695
625.31	0.695
625.50	0.698
625.69	0.699
625.88	0.695
626.08	0.695
626.27	0.697
626.46	0.697
626.65	0.693
626.84	0.693
627.04	0.699
627.23	0.699
627.42	0.694
627.61	0.696
627.80	0.699
628.00	0.699
628.19	0.697
628.38	0.700
628.57	0.703
628.76	0.702
628.96	0.697
629.15	0.698
629.34	0.700
629.53	0.701
629.72	0.694
629.91	0.695
630.11	0.700
630.30	0.701
630.49	0.704
630.68	0.705
630.87	0.710
631.06	0.714
631.26	0.709
631.45	0.710
631.64	0.719
631.83	0.722
632.02	0.719
632.21	0.717
632.41	0.724
632.60	0.718
632.79	0.717
632.98	0.716
633.17	0.716
633.36	0.718
633.55	0.714
633.75	0.709
633.94	0.711
634.13	0.711
634.32	0.708
634.51	0.701
634.70	0.704
634.89	0.703
635.09	0.699
635.28	0.700
635.47	0.701
635.66	0.704
635.85	0.700
636.04	0.703
636.23	0.707
636.43	0.709
636.62	0.709
636.81	0.707
637.00	0.710
637.19	0.714
637.38	0.711
637.57	0.712
637.76	0.714
637.95	0.715
638.15	0.710
638.34	0.707
638.53	0.710
638.72	0.711
638.91	0.709
639.10	0.707
639.29	0.707
639.48	0.707
639.67	0.707
639.87	0.706
640.06	0.711
640.25	0.710
640.44	0.710
640.63	0.710
640.82	0.713
641.01	0.712
641.20	0.712
641.39	0.714
641.58	0.716
641.78	0.715
641.97	0.710
642.16	0.724
642.35	0.726
642.54	0.725
642.73	0.720
642.92	0.718
643.11	0.722
643.30	0.721
643.49	0.716
643.68	0.719
643.87	0.720
644.06	0.720
644.25	0.699
644.45	0.702
644.64	0.704
644.83	0.705
645.02	0.702
645.21	0.701
645.40	0.703
645.59	0.703
645.78	0.696
645.97	0.698
646.16	0.700
646.35	0.699
646.54	0.697
646.73	0.698
646.92	0.700
647.11	0.700
647.30	0.695
647.49	0.697
647.68	0.697
647.88	0.696
648.07	0.690
648.26	0.693
648.45	0.695
648.64	0.691
648.83	0.689
649.02	0.691
649.21	0.701
649.40	0.700
649.59	0.695
649.78	0.696
649.97	0.710
650.16	0.709
650.35	0.704
650.54	0.707
650.73	0.715
650.92	0.711
651.11	0.704
651.30	0.703
651.49	0.707
651.68	0.707
651.87	0.704
652.06	0.694
652.25	0.697
652.44	0.699
652.63	0.696
652.82	0.696
653.01	0.696
653.20	0.693
653.39	0.681
653.58	0.679
653.77	0.678
653.96	0.673
654.15	0.665
654.34	0.664
654.53	0.660
654.72	0.654
654.91	0.645
655.10	0.641
655.29	0.640
655.48	0.638
655.67	0.632
655.86	0.629
656.05	0.628
656.24	0.628
656.43	0.622
656.62	0.621
656.81	0.622
657.00	0.620
657.19	0.617
657.38	0.617
657.57	0.617
657.76	0.620
657.95	0.618
658.14	0.621
658.33	0.624
658.51	0.629
658.70	0.629
658.89	0.630
659.08	0.639
659.27	0.647
659.46	0.647
659.65	0.653
659.84	0.656
660.03	0.660
660.22	0.660
660.41	0.664
660.60	0.664
660.79	0.666
660.98	0.672
661.17	0.671
661.36	0.670
661.55	0.671
661.74	0.669
661.92	0.672
662.11	0.673
662.30	0.672
662.49	0.666
662.68	0.665
662.87	0.669
663.06	0.663
663.25	0.663
663.44	0.664
663.63	0.664
663.82	0.662
664.01	0.657
664.20	0.656
664.38	0.658
664.57	0.658
664.76	0.658
664.95	0.657
665.14	0.663
665.33	0.658
665.52	0.665
665.71	0.669
665.90	0.669
666.09	0.670
666.28	0.668
666.46	0.667
666.65	0.668
666.84	0.666
667.03	0.660
667.22	0.658
667.41	0.661
667.60	0.651
667.79	0.644
667.98	0.646
668.16	0.648
668.35	0.648
668.54	0.644
668.73	0.645
668.92	0.645
669.11	0.644
669.30	0.637
669.49	0.634
669.67	0.636
669.86	0.638
670.05	0.636
670.24	0.633
670.43	0.631
670.62	0.630
670.81	0.625
671.00	0.627
671.18	0.627
671.37	0.627
671.56	0.625
671.75	0.624
671.94	0.621
672.13	0.619
672.32	0.614
672.50	0.613
672.69	0.613
672.88	0.613
673.07	0.608
673.26	0.610
673.45	0.611
673.63	0.610
673.82	0.606
674.01	0.607
674.20	0.607
674.39	0.606
674.58	0.606
674.76	0.606
674.95	0.605
675.14	0.606
675.33	0.601
675.52	0.600
675.71	0.600
675.89	0.600
676.08	0.595
676.27	0.596
676.46	0.596
676.65	0.595
676.84	0.595
677.02	0.597
677.21	0.599
677.40	0.598
677.59	0.596
677.78	0.596
677.96	0.599
678.15	0.598
678.34	0.597
678.53	0.598
678.72	0.598
678.90	0.595
679.09	0.590
679.28	0.587
679.47	0.587
679.66	0.586
679.84	0.583
680.03	0.580
680.22	0.579
680.41	0.580
680.60	0.577
680.78	0.576
680.97	0.579
681.16	0.579
681.35	0.578
681.53	0.577
681.72	0.579
681.91	0.581
682.10	0.580
682.29	0.583
682.47	0.580
682.66	0.579
682.85	0.578
683.04	0.575
683.22	0.576
683.41	0.577
683.60	0.576
683.79	0.576
683.97	0.575
684.16	0.574
684.35	0.570
684.54	0.571
684.72	0.572
684.91	0.573
685.10	0.571
685.29	0.572
685.47	0.569
685.66	0.568
685.85	0.565
686.04	0.564
686.22	0.567
686.41	0.570
686.60	0.567
686.79	0.570
686.97	0.571
687.16	0.573
687.35	0.570
687.54	0.574
687.72	0.578
687.91	0.578
688.10	0.579
688.29	0.578
688.47	0.576
688.66	0.576
688.85	0.571
689.03	0.569
689.22	0.573
689.41	0.574
689.60	0.569
689.78	0.567
689.97	0.567
690.16	0.564
690.34	0.560
690.53	0.560
690.72	0.561
690.91	0.559
691.09	0.557
691.28	0.551
691.47	0.549
691.65	0.548
691.84	0.545
692.03	0.544
692.21	0.542
692.40	0.541
692.59	0.539
692.77	0.538
692.96	0.539
693.15	0.541
693.34	0.539
693.52	0.539
693.71	0.539
693.90	0.540
694.08	0.541
694.27	0.543
694.46	0.553
694.64	0.554
694.83	0.553
695.02	0.552
695.20	0.551
695.39	0.551
695.58	0.550
695.76	0.551
695.95	0.550
696.14	0.549
696.32	0.547
696.51	0.537
696.70	0.537
696.88	0.538
697.07	0.536
697.26	0.538
697.44	0.539
697.63	0.538
697.81	0.536
698.00	0.535
698.19	0.535
698.37	0.536
698.56	0.535
698.75	0.535
698.93	0.534
699.12	0.534
699.31	0.533
699.49	0.532
699.68	0.533
699.87	0.535
700.05	0.535
700.24	0.534
700.42	0.536
700.61	0.535
700.80	0.532
700.98	0.533
701.17	0.535
701.36	0.534
701.54	0.533
701.73	0.535
701.91	0.532
702.10	0.532
702.29	0.530
702.47	0.528
702.66	0.529
702.84	0.531
703.03	0.529
703.22	0.530
703.40	0.530
703.59	0.531
703.77	0.531
703.96	0.531
704.15	0.532
704.33	0.533
704.52	0.533
704.70	0.532
704.89	0.532
705.08	0.531
705.26	0.527
705.45	0.528
705.63	0.527
705.82	0.524
706.00	0.522
706.19	0.522
706.38	0.522
706.56	0.521
706.75	0.519
706.93	0.517
707.12	0.518
707.30	0.519
707.49	0.516
707.68	0.514
707.86	0.514
708.05	0.514
708.23	0.511
708.42	0.511
708.60	0.513
708.79	0.514
708.98	0.513
709.16	0.512
709.35	0.514
709.53	0.518
709.72	0.517
709.90	0.519
710.09	0.520
710.27	0.522
710.46	0.525
710.64	0.524
710.83	0.526
711.02	0.527
711.20	0.526
711.39	0.525
711.57	0.523
711.76	0.523
711.94	0.522
712.13	0.523
712.31	0.522
712.50	0.518
712.68	0.515
712.87	0.516
713.05	0.516
713.24	0.516
713.42	0.515
713.61	0.515
713.79	0.516
713.98	0.516
714.16	0.517
714.35	0.517
714.54	0.519
714.72	0.519
714.91	0.516
715.09	0.523
715.28	0.526
715.46	0.526
715.65	0.524
715.83	0.523
716.02	0.526
716.20	0.522
716.39	0.521
716.57	0.522
716.76	0.524
716.94	0.524
717.12	0.516
717.31	0.518
717.49	0.521
717.68	0.523
717.86	0.523
718.05	0.525
718.23	0.528
718.42	0.530
718.60	0.530
718.79	0.539
718.97	0.542
719.16	0.542
719.34	0.539
719.53	0.539
719.71	0.538
719.90	0.540
720.08	0.537
720.27	0.537
720.45	0.538
720.63	0.537
720.82	0.531
721.00	0.533
721.19	0.536
721.37	0.536
721.56	0.536
721.74	0.539
721.93	0.548
722.11	0.555
722.30	0.554
722.48	0.558
722.66	0.559
722.85	0.558
723.03	0.558
723.22	0.557
723.40	0.559
723.59	0.560
723.77	0.563
723.95	0.556
724.14	0.557
724.32	0.558
724.51	0.558
724.69	0.560
724.88	0.560
725.06	0.559
725.24	0.559
725.43	0.560
725.61	0.562
725.80	0.556
725.98	0.554
726.16	0.550
726.35	0.557
726.53	0.556
726.72	0.555
726.90	0.565
727.09	0.565
727.27	0.571
727.45	0.568
727.64	0.578
727.82	0.586
728.01	0.590
728.19	0.588
728.37	0.592
728.56	0.596
728.74	0.601
728.92	0.588
729.11	0.591
729.29	0.590
729.48	0.592
729.66	0.581
729.84	0.581
730.03	0.584
730.21	0.586
730.40	0.576
730.58	0.577
730.76	0.579
730.95	0.581
731.13	0.579
731.31	0.592
731.50	0.602
731.68	0.606
731.86	0.602
732.05	0.617
732.23	0.619
732.42	0.623
732.60	0.626
732.78	0.630
732.97	0.649
733.15	0.657
733.33	0.646
733.52	0.651
733.70	0.661
733.88	0.670
734.07	0.655
734.25	0.682
734.43	0.689
734.62	0.692
734.80	0.687
734.98	0.676
735.17	0.682
735.35	0.687
735.53	0.675
735.72	0.678
735.90	0.700
736.08	0.719
736.27	0.695
736.45	0.704
736.63	0.713
736.82	0.723
737.00	0.724
737.18	0.732
737.37	0.763
737.55	0.784
737.73	0.777
737.92	0.778
738.10	0.773
738.28	0.793
738.46	0.781
738.65	0.795
738.83	0.813
739.01	0.864
739.20	0.854
739.38	0.839
739.56	0.833
739.75	0.838
739.93	0.805
740.11	0.829
740.29	0.828
740.48	0.837
740.66	0.819
740.84	0.816
741.03	0.782
741.21	0.796
741.39	0.774
741.57	0.786
741.76	0.803
741.94	0.814
742.12	0.779
742.31	0.785
742.49	0.804
742.67	0.827
742.85	0.841
743.04	0.841
743.22	0.852
743.40	0.903
743.58	0.882
743.77	0.894
743.95	0.927
744.13	0.976
744.31	0.953
744.50	0.947
744.68	0.946
744.86	0.919
745.04	0.931
745.23	0.985
745.41	0.969
745.59	0.975
745.77	0.947
745.96	0.935
746.14	0.943
746.32	0.944
746.50	0.930
746.69	0.913
746.87	0.927
747.05	0.914
747.23	0.846
747.42	0.835
747.60	0.865
747.78	0.865
747.96	0.888
748.14	0.846
748.33	0.872
748.51	0.872
748.69	0.862
748.87	0.883
749.06	0.881
749.24	0.882
749.42	0.864
749.60	0.845
749.78	0.859
749.97	0.817
750.15	0.809
750.33	0.812
750.51	0.836
750.69	0.842
750.88	0.848
751.06	0.858
751.24	0.877
751.42	0.872
751.60	0.863
751.79	0.930
751.97	0.979
752.15	0.979
752.33	0.942
752.51	1.000
752.69	1.017
752.88	0.989
753.06	1.031
753.24	1.012
753.42	1.050
753.60	1.212
753.78	1.068
753.97	1.089
754.15	1.111
754.33	1.144
754.51	1.018
754.69	0.998
754.87	1.025
755.06	0.958
755.24	0.957
755.42	0.967
755.60	0.874
755.78	0.883
755.96	0.827
756.15	0.830
756.33	0.834
756.51	0.851
756.69	0.840
756.87	0.808
757.05	0.826
757.23	0.812
757.42	0.776
757.60	0.774
757.78	0.761
757.96	0.762
758.14	0.745
758.32	0.733
758.50	0.746
758.69	0.743
758.87	0.734
759.05	0.737
759.23	0.749
759.41	0.750
759.59	0.741
759.77	0.764
759.95	0.785
760.13	0.830
760.32	0.829
760.50	0.825
760.68	0.854
760.86	0.860
761.04	0.831
761.22	0.836
761.40	0.883
761.58	0.885
761.76	0.860
761.95	0.849
762.13	0.805
762.31	0.805
762.49	0.771
762.67	0.788
762.85	0.796
763.03	0.795
763.21	0.773
763.39	0.755
763.57	0.760
763.75	0.751
763.94	0.735
764.12	0.737
764.30	0.762
764.48	0.769
764.66	0.733
764.84	0.729
765.02	0.764
765.20	0.774
765.38	0.754
765.56	0.758
765.74	0.799
765.92	0.799
766.10	0.805
766.28	0.796
766.46	0.823
766.65	0.823
766.83	0.813
767.01	0.802
767.19	0.806
767.37	0.806
767.55	0.792
767.73	0.773
767.91	0.778
768.09	0.766
768.27	0.754
768.45	0.744
768.63	0.750
768.81	0.751
768.99	0.721
769.17	0.744
769.35	0.761
769.53	0.759
769.71	0.741
769.89	0.750
770.07	0.756
770.25	0.739
770.43	0.719
770.61	0.739
770.79	0.746
770.97	0.758
771.15	0.729
771.33	0.730
771.51	0.734
771.69	0.741
771.87	0.745
772.05	0.751
772.24	0.760
772.42	0.767
772.60	0.746
772.78	0.801
772.96	0.826
773.14	0.819
773.32	0.796
773.49	0.800
773.67	0.801
773.85	0.783
774.03	0.772
774.21	0.804
774.39	0.817
774.57	0.843
774.75	0.772
774.93	0.769
775.11	0.790
775.29	0.798
775.47	0.801
775.65	0.811
775.83	0.827
776.01	0.849
776.19	0.802
776.37	0.805
776.55	0.801
776.73	0.800
776.91	0.797
777.09	0.781
777.27	0.780
777.45	0.769
777.63	0.746
777.81	0.743
777.99	0.731
778.17	0.729
778.35	0.707
778.53	0.700
778.71	0.706
778.89	0.692
779.07	0.681
779.24	0.686
779.42	0.687
779.60	0.707
779.78	0.702
779.96	0.706
780.14	0.716
780.32	0.734
780.50	0.716
780.68	0.716
780.86	0.709
781.04	0.727
781.22	0.730
781.40	0.743
781.58	0.732
781.75	0.725
781.93	0.710
782.11	0.709
782.29	0.698
782.47	0.697
782.65	0.685
782.83	0.713
783.01	0.707
783.19	0.701
783.37	0.686
783.55	0.693
783.72	0.710
783.90	0.721
784.08	0.714
784.26	0.726
784.44	0.746
784.62	0.748
784.80	0.715
784.98	0.721
785.16	0.729
785.33	0.743
785.51	0.725
785.69	0.713
785.87	0.713
786.05	0.723
786.23	0.718
786.41	0.716
786.59	0.725
786.77	0.724
786.94	0.710
787.12	0.712
787.30	0.716
787.48	0.715
787.66	0.702
787.84	0.702
788.02	0.693
788.19	0.691
788.37	0.676
788.55	0.676
788.73	0.675
788.91	0.670
789.09	0.653
789.27	0.642
789.44	0.655
789.62	0.660
789.80	0.667
789.98	0.691
790.16	0.679
790.34	0.676
790.51	0.662
790.69	0.683
790.87	0.689
791.05	0.687
791.23	0.680
791.41	0.679
791.58	0.687
791.76	0.669
791.94	0.638
792.12	0.646
792.30	0.648
792.48	0.648
792.65	0.640
792.83	0.648
793.01	0.657
793.19	0.655
793.37	0.640
793.54	0.638
793.72	0.647
793.90	0.647
794.08	0.638
794.26	0.640
794.43	0.649
794.61	0.631
794.79	0.621
794.97	0.620
795.15	0.627
795.32	0.631
795.50	0.621
795.68	0.616
795.86	0.621
796.04	0.621
796.21	0.615
796.39	0.613
796.57	0.629
796.75	0.635
796.92	0.637
797.10	0.638
797.28	0.638
797.46	0.641
797.64	0.640
797.81	0.647
797.99	0.653
798.17	0.657
798.35	0.651
798.52	0.654
798.70	0.652
798.88	0.658
799.06	0.657
799.23	0.661
799.41	0.670
799.59	0.666
799.77	0.654
799.94	0.663
800.12	0.672
800.30	0.689
800.48	0.687
800.65	0.688
800.83	0.678
801.01	0.672
801.19	0.671
801.36	0.665
801.54	0.668
801.72	0.680
801.90	0.664
802.07	0.658
802.25	0.644
802.43	0.627
802.60	0.623
802.78	0.630
802.96	0.635
803.14	0.629
803.31	0.628
803.49	0.627
803.67	0.623
803.84	0.626
804.02	0.619
804.20	0.623
804.38	0.630
804.55	0.630
804.73	0.615
804.91	0.616
805.08	0.629
805.26	0.626
805.44	0.693
805.61	0.696
805.79	0.698
805.97	0.697
806.15	0.688
806.32	0.683
806.50	0.688
806.68	0.686
806.85	0.679
807.03	0.668
807.21	0.683
807.38	0.616
807.56	0.605
807.74	0.614
807.91	0.622
808.09	0.624
808.27	0.640
808.44	0.666
808.62	0.677
808.80	0.678
808.97	0.675
809.15	0.672
809.33	0.688
809.50	0.695
809.68	0.681
809.86	0.687
810.03	0.717
810.21	0.697
810.39	0.677
810.56	0.681
810.74	0.703
810.91	0.771
811.09	0.757
811.27	0.781
811.44	0.786
811.62	0.788
811.80	0.770
811.97	0.743
812.15	0.744
812.33	0.740
812.50	0.727
812.68	0.715
812.85	0.662
813.03	0.665
813.21	0.631
813.38	0.625
813.56	0.628
813.74	0.638
813.91	0.645
814.09	0.674
814.26	0.667
814.44	0.672
814.62	0.662
814.79	0.666
814.97	0.671
815.14	0.675
815.32	0.677
815.50	0.692
815.67	0.696
815.85	0.687
816.02	0.677
816.20	0.685
816.38	0.697
816.55	0.703
816.73	0.702
816.90	0.711
817.08	0.741
817.26	0.750
817.43	0.730
817.61	0.754
817.78	0.774
817.96	0.752
818.13	0.742
818.31	0.743
818.49	0.756
818.66	0.747
818.84	0.732
819.01	0.711
819.19	0.717
819.36	0.719
819.54	0.688
819.71	0.727
819.89	0.743
820.07	0.752
820.24	0.747
820.42	0.747
820.59	0.763
820.77	0.787
820.94	0.780
821.12	0.797
821.29	0.811
821.47	0.814
821.64	0.753
821.82	0.763
822.00	0.763
822.17	0.760
822.35	0.753
822.52	0.757
822.70	0.745
822.87	0.753
823.05	0.731
823.22	0.742
823.40	0.765
823.57	0.784
823.75	0.767
823.92	0.790
824.10	0.811
824.27	0.853
824.45	0.838
824.62	0.900
824.80	0.916
824.97	0.931
825.15	0.923
825.32	0.938
825.50	0.936
825.67	0.949
825.85	0.925
826.02	0.944
826.20	0.959
826.37	1.087
826.55	1.002
826.72	1.192
826.90	1.271
827.07	1.316
827.25	1.251
827.42	1.455
827.60	1.602
827.77	1.810
827.95	1.712
828.12	1.793
828.30	1.415
828.47	1.519
828.65	1.169
828.82	1.200
829.00	1.252
829.17	1.316
829.34	1.289
829.52	1.310
829.69	-0.000
829.87	-0.000
830.04	-0.000
830.22	-0.000
830.39	-0.000
830.57	-0.000
830.74	-0.000
830.92	-0.000
831.09	-0.000
831.26	-0.000
831.44	-0.000
831.61	-0.000
831.79	-0.000
831.96	-0.000
832.14	-0.000
832.31	-0.000
832.49	-0.000
832.66	-0.000
832.83	-0.000
833.01	-0.000
833.18	-0.000
833.36	-0.000
833.53	-0.000
833.70	-0.000
833.88	-0.000
834.05	-0.000
834.23	-0.000
834.40	-0.000
834.58	-0.000
834.75	-0.000
834.92	-0.000
835.10	-0.000
835.27	-0.000
835.45	-0.000
835.62	-0.000
835.79	-0.000
835.97	-0.000
836.14	-0.000
836.32	-0.000
836.49	-0.000
836.66	-0.000
836.84	-0.000
837.01	-0.000
837.18	-0.000
837.36	-0.000
837.53	-0.000
837.71	-0.000
837.88	-0.000
838.05	-0.000
838.23	-0.000
838.40	-0.000
838.58	-0.000
838.75	-0.000
838.92	-0.000
839.10	-0.000
839.27	-0.000
839.44	-0.000
839.62	-0.000
839.79	-0.000
839.96	-0.000
840.14	-0.000
840.31	-0.000
840.48	-0.000
840.66	-0.000
840.83	-0.000
841.01	-0.000
841.18	-0.000
841.35	-0.000
841.53	-0.000
841.70	-0.000
841.87	-0.000
842.05	-0.000
842.22	-0.000
842.39	-0.000
842.57	-0.000
842.74	-0.000
842.91	-0.000
843.09	-0.000
843.26	-0.000
843.43	-0.000
843.60	-0.000
843.78	-0.000
843.95	-0.000
844.12	-0.000
844.30	-0.000
844.47	-0.000
844.64	-0.000
844.82	-0.000
844.99	-0.000
845.16	-0.000
845.34	-0.000
845.51	-0.000
845.68	-0.000
845.85	-0.000
846.03	-0.000
846.20	-0.000
846.37	-0.000
846.55	-0.000
846.72	-0.000
846.89	-0.000
847.06	-0.000
847.24	-0.000
847.41	-0.000
847.58	-0.000
847.76	-0.000
847.93	-0.000
848.10	-0.000
848.27	-0.000
848.45	-0.000
848.62	-0.000
848.79	-0.000
848.97	-0.000
849.14	-0.000
849.31	-0.000
849.48	-0.000
849.66	-0.000
849.83	-0.000
850.00	-0.000
850.17	-0.000
850.35	-0.000
850.52	-0.000
850.69	-0.000
850.86	-0.000
851.04	-0.000
851.21	-0.000
851.38	-0.000
851.55	-0.000
851.72	-0.000
851.90	-0.000
852.07	-0.000
852.24	-0.000
852.41	-0.000
852.59	-0.000
852.76	-0.000
852.93	-0.000
853.10	-0.000
853.28	-0.000
853.45	-0.000
853.62	-0.000
853.79	-0.000
853.96	-0.000
854.14	-0.000
854.31	-0.000
854.48	-0.000
854.65	-0.000
854.82	-0.000
855.00	-0.000
855.17	-0.000
855.34	-0.000
855.51	-0.000
855.68	-0.000
855.86	-0.000
856.03	-0.000
856.20	-0.000
856.37	-0.000
856.54	-0.000
856.72	-0.000
856.89	-0.000
857.06	-0.000
857.23	-0.000
857.40	-0.000
857.57	-0.000
857.75	-0.000
857.92	-0.000
858.09	-0.000
858.26	-0.000
858.43	-0.000
858.60	-0.000
858.78	-0.000
858.95	-0.000
859.12	-0.000
859.29	-0.000
859.46	-0.000
859.63	-0.000
859.81	-0.000
859.98	-0.000
860.15	-0.000
860.32	-0.000
860.49	-0.000
860.66	-0.000
860.83	-0.000
861.01	-0.000
861.18	-0.000
861.35	-0.000
861.52	-0.000
861.69	-0.000
861.86	-0.000
862.03	-0.000
862.21	-0.000
862.38	-0.000
862.55	-0.000
862.72	-0.000
862.89	-0.000
863.06	-0.000
863.23	-0.000
863.40	-0.000
863.58	-0.000
863.75	-0.000
863.92	-0.000
864.09	-0.000
864.26	-0.000
864.43	-0.000
864.60	-0.000
864.77	-0.000
864.94	-0.000
865.11	-0.000
865.29	-0.000
865.46	-0.000
865.63	-0.000
865.80	-0.000
865.97	-0.000
866.14	-0.000
866.31	-0.000
866.48	-0.000
866.65	-0.000
866.82	-0.000
866.99	-0.000
867.16	-0.000
867.34	-0.000
867.51	-0.000
867.68	-0.000
867.85	-0.000
868.02	-0.000
868.19	-0.000
868.36	-0.000
868.53	-0.000
868.70	-0.000
868.87	-0.000
869.04	-0.000
869.21	-0.000
869.38	-0.000
869.55	-0.000
869.72	-0.000
869.89	-0.000
870.06	-0.000
870.24	-0.000
870.41	-0.000
870.58	-0.000
870.75	-0.000
870.92	-0.000
871.09	-0.000
871.26	-0.000
871.43	-0.000
871.60	-0.000
871.77	-0.000
871.94	-0.000
872.11	-0.000
872.28	-0.000
872.45	-0.000
872.62	-0.000
872.79	-0.000
872.96	-0.000
873.13	-0.000
873.30	-0.000
873.47	-0.000
873.64	-0.000
873.81	-0.000
873.98	-0.000
874.15	-0.000
874.32	-0.000
874.49	-0.000
874.66	-0.000
874.83	-0.000
875.00	-0.000
875.17	-0.000
875.34	-0.000
875.51	-0.000
875.68	-0.000
875.85	-0.000
876.02	-0.000
876.19	-0.000
876.36	-0.000
876.53	-0.000
876.70	-0.000
876.87	-0.000
877.04	-0.000
877.21	-0.000
877.38	-0.000
877.55	-0.000
877.72	-0.000
877.89	-0.000
878.06	-0.000
878.23	-0.000
878.39	-0.000
878.56	-0.000
878.73	-0.000
878.90	-0.000
879.07	-0.000
879.24	-0.000
879.41	-0.000
879.58	-0.000
879.75	-0.000
879.92	-0.000
880.09	-0.000
880.26	-0.000
880.43	-0.000
880.60	-0.000
880.77	-0.000
880.94	-0.000
881.11	-0.000
881.27	-0.000
881.44	-0.000
881.61	-0.000
881.78	-0.000
881.95	-0.000
882.12	-0.000
882.29	-0.000
882.46	-0.000
882.63	-0.000
882.80	-0.000
882.97	-0.000
883.14	-0.000
883.30	-0.000
883.47	-0.000
883.64	-0.000
883.81	-0.000
883.98	-0.000
884.15	-0.000
884.32	-0.000
884.49	-0.000
884.66	-0.000
884.82	-0.000
884.99	-0.000
885.16	-0.000
885.33	-0.000
885.50	-0.000
885.67	-0.000
885.84	-0.000
886.01	-0.000
886.17	-0.000
886.34	-0.000
886.51	-0.000
886.68	-0.000
886.85	-0.000
887.02	-0.000
887.19	-0.000
887.36	-0.000
887.52	-0.000
887.69	-0.000
887.86	-0.000
888.03	-0.000
888.20	-0.000
888.37	-0.000
888.54	-0.000
888.70	-0.000
888.87	-0.000
889.04	-0.000
889.21	-0.000
889.38	-0.000
889.55	-0.000
889.71	-0.000
889.88	-0.000
890.05	-0.000
890.22	-0.000
890.39	-0.000
>>>>>End Processed Spectral Data<<<<<
