SpectraSuite Data File
++++++++++++++++++++++++++++++++++++
Date: Fri Jun 19 15:51:22 CEST 2015
User: introlabs
Dark Spectrum Present: Yes
Reference Spectrum Present: Yes
Number of Sampled Component Spectra: 1
Spectrometers: USB4H08886
Integration Time (usec): 745692 (USB4H08886)
Spectra Averaged: 5 (USB4H08886)
Boxcar Smoothing: 5 (USB4H08886)
Correct for Electrical Dark: Yes (USB4H08886)
Strobe/Lamp Enabled: No (USB4H08886)
Correct for Detector Non-linearity: Yes (USB4H08886)
Correct for Stray Light: Yes (USB4H08886)
Number of Pixels in Processed Spectrum: 3648
>>>>>Begin Processed Spectral Data<<<<<
178.14	-0.000
178.36	-0.000
178.57	-0.000
178.79	-0.000
179.01	-0.000
179.22	-0.000
179.44	-0.000
179.65	-0.000
179.87	-0.000
180.08	-0.000
180.30	-0.000
180.52	-0.000
180.73	-0.000
180.95	-0.000
181.16	-0.000
181.38	-0.000
181.59	-0.000
181.81	-0.000
182.03	-0.000
182.24	-0.000
182.46	-0.000
182.67	-0.000
182.89	-0.000
183.10	-0.000
183.32	-0.000
183.54	-0.000
183.75	-0.000
183.97	-0.000
184.18	-0.000
184.40	-0.000
184.61	-0.000
184.83	-0.000
185.04	-0.000
185.26	-0.000
185.48	-0.000
185.69	-0.000
185.91	-0.000
186.12	-0.000
186.34	-0.000
186.55	-0.000
186.77	-0.000
186.98	-0.000
187.20	-0.000
187.42	-0.000
187.63	-0.000
187.85	-0.000
188.06	-0.000
188.28	-0.000
188.49	-0.000
188.71	-0.000
188.92	-0.000
189.14	-0.000
189.36	-0.000
189.57	-0.000
189.79	-0.000
190.00	-0.000
190.22	-0.000
190.43	-0.000
190.65	-0.000
190.86	-0.000
191.08	-0.000
191.29	-0.000
191.51	-0.000
191.72	-0.000
191.94	-0.000
192.16	-0.000
192.37	-0.000
192.59	-0.000
192.80	-0.000
193.02	-0.000
193.23	-0.000
193.45	-0.000
193.66	-0.000
193.88	-0.000
194.09	-0.000
194.31	-0.000
194.52	-0.000
194.74	-0.000
194.95	-0.000
195.17	-0.000
195.38	-0.000
195.60	-0.000
195.81	-0.000
196.03	-0.000
196.25	-0.000
196.46	-0.000
196.68	-0.000
196.89	-0.000
197.11	-0.000
197.32	-0.000
197.54	-0.000
197.75	-0.000
197.97	-0.000
198.18	-0.000
198.40	-0.000
198.61	-0.000
198.83	-0.000
199.04	-0.000
199.26	-0.000
199.47	-0.000
199.69	-0.000
199.90	-0.000
200.12	-0.000
200.33	-0.000
200.55	-0.000
200.76	-0.000
200.98	-0.000
201.19	-0.000
201.41	-0.000
201.62	-0.000
201.84	-0.000
202.05	-0.000
202.27	-0.000
202.48	-0.000
202.70	-0.000
202.91	-0.000
203.13	-0.000
203.34	-0.000
203.56	-0.000
203.77	-0.000
203.99	-0.000
204.20	-0.000
204.42	-0.000
204.63	-0.000
204.85	-0.000
205.06	-0.000
205.28	-0.000
205.49	-0.000
205.71	-0.000
205.92	-0.000
206.14	-0.000
206.35	-0.000
206.56	-0.000
206.78	-0.000
206.99	-0.000
207.21	-0.000
207.42	-0.000
207.64	-0.000
207.85	-0.000
208.07	-0.000
208.28	-0.000
208.50	-0.000
208.71	-0.000
208.93	-0.000
209.14	-0.000
209.36	-0.000
209.57	-0.000
209.79	-0.000
210.00	-0.000
210.22	-0.000
210.43	-0.000
210.64	-0.000
210.86	-0.000
211.07	-0.000
211.29	-0.000
211.50	-0.000
211.72	-0.000
211.93	-0.000
212.15	-0.000
212.36	-0.000
212.58	-0.000
212.79	-0.000
213.01	-0.000
213.22	-0.000
213.43	-0.000
213.65	-0.000
213.86	-0.000
214.08	-0.000
214.29	-0.000
214.51	-0.000
214.72	-0.000
214.94	-0.000
215.15	-0.000
215.36	-0.000
215.58	-0.000
215.79	-0.000
216.01	-0.000
216.22	-0.000
216.44	-0.000
216.65	-0.000
216.87	-0.000
217.08	-0.000
217.29	-0.000
217.51	-0.000
217.72	-0.000
217.94	-0.000
218.15	-0.000
218.37	-0.000
218.58	-0.000
218.80	-0.000
219.01	-0.000
219.22	-0.000
219.44	-0.000
219.65	-0.000
219.87	-0.000
220.08	-0.000
220.30	-0.000
220.51	-0.000
220.72	-0.000
220.94	-0.000
221.15	-0.000
221.37	-0.000
221.58	-0.000
221.79	-0.000
222.01	-0.000
222.22	-0.000
222.44	-0.000
222.65	-0.000
222.87	-0.000
223.08	-0.000
223.29	-0.000
223.51	-0.000
223.72	-0.000
223.94	-0.000
224.15	-0.000
224.36	-0.000
224.58	-0.000
224.79	-0.000
225.01	-0.000
225.22	-0.000
225.44	-0.000
225.65	-0.000
225.86	-0.000
226.08	-0.000
226.29	-0.000
226.51	-0.000
226.72	-0.000
226.93	-0.000
227.15	-0.000
227.36	-0.000
227.58	-0.000
227.79	-0.000
228.00	-0.000
228.22	-0.000
228.43	-0.000
228.65	-0.000
228.86	-0.000
229.07	-0.000
229.29	-0.000
229.50	-0.000
229.72	-0.000
229.93	-0.000
230.14	-0.000
230.36	-0.000
230.57	-0.000
230.78	-0.000
231.00	-0.000
231.21	-0.000
231.43	-0.000
231.64	-0.000
231.85	-0.000
232.07	-0.000
232.28	-0.000
232.50	-0.000
232.71	-0.000
232.92	-0.000
233.14	-0.000
233.35	-0.000
233.56	-0.000
233.78	-0.000
233.99	-0.000
234.21	-0.000
234.42	-0.000
234.63	-0.000
234.85	-0.000
235.06	-0.000
235.27	-0.000
235.49	-0.000
235.70	-0.000
235.91	-0.000
236.13	-0.000
236.34	-0.000
236.56	-0.000
236.77	-0.000
236.98	-0.000
237.20	-0.000
237.41	-0.000
237.62	-0.000
237.84	-0.000
238.05	-0.000
238.26	-0.000
238.48	-0.000
238.69	-0.000
238.91	-0.000
239.12	-0.000
239.33	-0.000
239.55	-0.000
239.76	-0.000
239.97	-0.000
240.19	-0.000
240.40	-0.000
240.61	-0.000
240.83	-0.000
241.04	-0.000
241.25	-0.000
241.47	-0.000
241.68	-0.000
241.89	-0.000
242.11	-0.000
242.32	-0.000
242.53	-0.000
242.75	-0.000
242.96	-0.000
243.17	-0.000
243.39	-0.000
243.60	-0.000
243.81	-0.000
244.03	-0.000
244.24	-0.000
244.45	-0.000
244.67	-0.000
244.88	-0.000
245.09	-0.000
245.31	-0.000
245.52	-0.000
245.73	-0.000
245.95	-0.000
246.16	-0.000
246.37	-0.000
246.59	-0.000
246.80	-0.000
247.01	-0.000
247.23	-0.000
247.44	-0.000
247.65	-0.000
247.87	-0.000
248.08	-0.000
248.29	-0.000
248.51	-0.000
248.72	-0.000
248.93	-0.000
249.15	-0.000
249.36	-0.000
249.57	-0.000
249.78	-0.000
250.00	-0.000
250.21	-0.000
250.42	-0.000
250.64	-0.000
250.85	-0.000
251.06	-0.000
251.28	-0.000
251.49	-0.000
251.70	-0.000
251.92	-0.000
252.13	-0.000
252.34	-0.000
252.55	-0.000
252.77	-0.000
252.98	-0.000
253.19	-0.000
253.41	-0.000
253.62	-0.000
253.83	-0.000
254.05	-0.000
254.26	-0.000
254.47	-0.000
254.68	-0.000
254.90	-0.000
255.11	-0.000
255.32	-0.000
255.54	-0.000
255.75	-0.000
255.96	-0.000
256.17	-0.000
256.39	-0.000
256.60	-0.000
256.81	-0.000
257.03	-0.000
257.24	-0.000
257.45	-0.000
257.66	-0.000
257.88	-0.000
258.09	-0.000
258.30	-0.000
258.51	-0.000
258.73	-0.000
258.94	-0.000
259.15	-0.000
259.37	-0.000
259.58	-0.000
259.79	-0.000
260.00	-0.000
260.22	-0.000
260.43	-0.000
260.64	-0.000
260.85	-0.000
261.07	-0.000
261.28	-0.000
261.49	-0.000
261.71	-0.000
261.92	-0.000
262.13	-0.000
262.34	-0.000
262.56	-0.000
262.77	-0.000
262.98	-0.000
263.19	-0.000
263.41	-0.000
263.62	-0.000
263.83	-0.000
264.04	-0.000
264.26	-0.000
264.47	-0.000
264.68	-0.000
264.89	-0.000
265.11	-0.000
265.32	-0.000
265.53	-0.000
265.74	-0.000
265.96	-0.000
266.17	-0.000
266.38	-0.000
266.59	-0.000
266.81	-0.000
267.02	-0.000
267.23	-0.000
267.44	-0.000
267.65	-0.000
267.87	-0.000
268.08	-0.000
268.29	-0.000
268.50	-0.000
268.72	-0.000
268.93	-0.000
269.14	-0.000
269.35	-0.000
269.57	-0.000
269.78	-0.000
269.99	-0.000
270.20	-0.000
270.41	-0.000
270.63	-0.000
270.84	-0.000
271.05	-0.000
271.26	-0.000
271.48	-0.000
271.69	-0.000
271.90	-0.000
272.11	-0.000
272.32	-0.000
272.54	-0.000
272.75	-0.000
272.96	-0.000
273.17	-0.000
273.39	-0.000
273.60	-0.000
273.81	-0.000
274.02	-0.000
274.23	-0.000
274.45	-0.000
274.66	-0.000
274.87	-0.000
275.08	-0.000
275.29	-0.000
275.51	-0.000
275.72	-0.000
275.93	-0.000
276.14	-0.000
276.35	-0.000
276.57	-0.000
276.78	-0.000
276.99	-0.000
277.20	-0.000
277.41	-0.000
277.63	-0.000
277.84	-0.000
278.05	-0.000
278.26	-0.000
278.47	-0.000
278.69	-0.000
278.90	-0.000
279.11	-0.000
279.32	-0.000
279.53	-0.000
279.74	-0.000
279.96	-0.000
280.17	-0.000
280.38	-0.000
280.59	-0.000
280.80	-0.000
281.02	-0.000
281.23	-0.000
281.44	-0.000
281.65	-0.000
281.86	-0.000
282.07	-0.000
282.29	-0.000
282.50	-0.000
282.71	-0.000
282.92	-0.000
283.13	-0.000
283.35	-0.000
283.56	-0.000
283.77	-0.000
283.98	-0.000
284.19	-0.000
284.40	-0.000
284.62	-0.000
284.83	-0.000
285.04	-0.000
285.25	-0.000
285.46	-0.000
285.67	-0.000
285.88	-0.000
286.10	-0.000
286.31	-0.000
286.52	-0.000
286.73	-0.000
286.94	-0.000
287.15	-0.000
287.37	-0.000
287.58	-0.000
287.79	-0.000
288.00	-0.000
288.21	-0.000
288.42	-0.000
288.63	-0.000
288.85	-0.000
289.06	-0.000
289.27	-0.000
289.48	-0.000
289.69	-0.000
289.90	-0.000
290.11	-0.000
290.33	-0.000
290.54	-0.000
290.75	-0.000
290.96	-0.000
291.17	-0.000
291.38	-0.000
291.59	-0.000
291.81	-0.000
292.02	-0.000
292.23	-0.000
292.44	-0.000
292.65	-0.000
292.86	-0.000
293.07	-0.000
293.28	2.829
293.50	-0.000
293.71	-0.000
293.92	-0.000
294.13	-0.000
294.34	-0.000
294.55	-0.000
294.76	-0.000
294.97	-0.000
295.19	-0.000
295.40	-0.000
295.61	-0.000
295.82	-0.000
296.03	2.668
296.24	2.773
296.45	1.930
296.66	1.709
296.87	1.719
297.09	1.758
297.30	1.901
297.51	1.648
297.72	1.632
297.93	1.685
298.14	1.645
298.35	1.620
298.56	1.601
298.77	1.689
298.99	1.657
299.20	1.655
299.41	1.638
299.62	1.590
299.83	1.581
300.04	1.537
300.25	1.533
300.46	1.557
300.67	1.527
300.88	1.487
301.10	1.496
301.31	1.551
301.52	1.499
301.73	1.463
301.94	1.464
302.15	1.473
302.36	1.430
302.57	1.381
302.78	1.390
302.99	1.422
303.20	1.446
303.41	1.367
303.63	1.352
303.84	1.352
304.05	1.345
304.26	1.297
304.47	1.299
304.68	1.291
304.89	1.283
305.10	1.251
305.31	1.241
305.52	1.276
305.73	1.271
305.94	1.240
306.15	1.231
306.37	1.247
306.58	1.255
306.79	1.234
307.00	1.262
307.21	1.296
307.42	1.289
307.63	1.262
307.84	1.229
308.05	1.259
308.26	1.261
308.47	1.248
308.68	1.243
308.89	1.238
309.10	1.234
309.31	1.201
309.52	1.195
309.73	1.206
309.95	1.201
310.16	1.177
310.37	1.169
310.58	1.180
310.79	1.178
311.00	1.177
311.21	1.182
311.42	1.181
311.63	1.175
311.84	1.158
312.05	1.155
312.26	1.173
312.47	1.185
312.68	1.165
312.89	1.149
313.10	1.151
313.31	1.128
313.52	1.130
313.73	1.130
313.94	1.129
314.15	1.113
314.36	1.097
314.57	1.090
314.78	1.076
314.99	1.071
315.21	1.062
315.42	1.069
315.63	1.079
315.84	1.060
316.05	1.049
316.26	1.057
316.47	1.070
316.68	1.068
316.89	1.050
317.10	1.071
317.31	1.073
317.52	1.076
317.73	1.055
317.94	1.054
318.15	1.090
318.36	1.089
318.57	1.073
318.78	1.064
318.99	1.093
319.20	1.091
319.41	1.060
319.62	1.064
319.83	1.075
320.04	1.071
320.25	1.060
320.46	1.030
320.67	1.030
320.88	1.028
321.09	1.016
321.30	1.004
321.51	1.018
321.72	1.016
321.93	1.000
322.14	0.993
322.35	1.019
322.56	1.021
322.77	1.013
322.98	1.025
323.19	1.030
323.40	1.037
323.61	1.018
323.82	1.012
324.03	1.015
324.24	1.014
324.45	1.004
324.66	0.985
324.87	0.979
325.08	0.977
325.29	0.960
325.50	0.958
325.71	0.960
325.92	0.967
326.13	0.955
326.34	0.956
326.55	0.962
326.76	0.960
326.97	0.951
327.18	0.947
327.39	0.971
327.60	0.972
327.80	0.970
328.01	0.971
328.22	0.971
328.43	0.974
328.64	0.963
328.85	0.967
329.06	0.967
329.27	0.967
329.48	0.963
329.69	0.945
329.90	0.954
330.11	0.947
330.32	0.941
330.53	0.934
330.74	0.933
330.95	0.932
331.16	0.919
331.37	0.927
331.58	0.926
331.79	0.926
332.00	0.919
332.21	0.911
332.42	0.914
332.63	0.906
332.83	0.903
333.04	0.905
333.25	0.916
333.46	0.916
333.67	0.903
333.88	0.905
334.09	0.916
334.30	0.912
334.51	0.905
334.72	0.900
334.93	0.901
335.14	0.899
335.35	0.892
335.56	0.889
335.77	0.895
335.98	0.893
336.18	0.888
336.39	0.880
336.60	0.882
336.81	0.881
337.02	0.883
337.23	0.887
337.44	0.889
337.65	0.891
337.86	0.881
338.07	0.876
338.28	0.880
338.49	0.877
338.70	0.872
338.91	0.879
339.11	0.885
339.32	0.880
339.53	0.870
339.74	0.869
339.95	0.865
340.16	0.863
340.37	0.858
340.58	0.856
340.79	0.858
341.00	0.857
341.21	0.847
341.41	0.847
341.62	0.847
341.83	0.848
342.04	0.843
342.25	0.855
342.46	0.858
342.67	0.857
342.88	0.851
343.09	0.850
343.30	0.855
343.50	0.859
343.71	0.851
343.92	0.850
344.13	0.854
344.34	0.853
344.55	0.837
344.76	0.836
344.97	0.840
345.18	0.839
345.38	0.838
345.59	0.833
345.80	0.831
346.01	0.830
346.22	0.826
346.43	0.820
346.64	0.828
346.85	0.828
347.06	0.822
347.26	0.821
347.47	0.824
347.68	0.820
347.89	0.817
348.10	0.812
348.31	0.817
348.52	0.817
348.73	0.814
348.93	0.811
349.14	0.812
349.35	0.812
349.56	0.807
349.77	0.803
349.98	0.808
350.19	0.805
350.39	0.801
350.60	0.797
350.81	0.812
351.02	0.811
351.23	0.808
351.44	0.810
351.65	0.813
351.86	0.811
352.06	0.810
352.27	0.809
352.48	0.809
352.69	0.809
352.90	0.804
353.11	0.791
353.31	0.797
353.52	0.793
353.73	0.786
353.94	0.787
354.15	0.792
354.36	0.791
354.57	0.784
354.77	0.787
354.98	0.786
355.19	0.786
355.40	0.786
355.61	0.792
355.82	0.796
356.02	0.795
356.23	0.788
356.44	0.790
356.65	0.792
356.86	0.793
357.07	0.787
357.27	0.789
357.48	0.790
357.69	0.785
357.90	0.771
358.11	0.768
358.32	0.771
358.52	0.775
358.73	0.767
358.94	0.770
359.15	0.774
359.36	0.773
359.56	0.770
359.77	0.768
359.98	0.775
360.19	0.775
360.40	0.772
360.61	0.773
360.81	0.771
361.02	0.770
361.23	0.762
361.44	0.760
361.65	0.760
361.85	0.759
362.06	0.758
362.27	0.759
362.48	0.759
362.69	0.760
362.89	0.755
363.10	0.757
363.31	0.761
363.52	0.765
363.73	0.761
363.93	0.762
364.14	0.764
364.35	0.766
364.56	0.757
364.77	0.758
364.97	0.759
365.18	0.760
365.39	0.754
365.60	0.752
365.81	0.752
366.01	0.752
366.22	0.749
366.43	0.748
366.64	0.749
366.84	0.755
367.05	0.752
367.26	0.751
367.47	0.752
367.68	0.753
367.88	0.750
368.09	0.747
368.30	0.749
368.51	0.748
368.71	0.748
368.92	0.752
369.13	0.749
369.34	0.748
369.55	0.749
369.75	0.748
369.96	0.754
370.17	0.754
370.38	0.751
370.58	0.751
370.79	0.756
371.00	0.754
371.21	0.747
371.41	0.752
371.62	0.755
371.83	0.751
372.04	0.749
372.24	0.743
372.45	0.743
372.66	0.744
372.87	0.741
373.07	0.738
373.28	0.739
373.49	0.742
373.70	0.734
373.90	0.733
374.11	0.742
374.32	0.742
374.53	0.741
374.73	0.742
374.94	0.744
375.15	0.744
375.36	0.741
375.56	0.749
375.77	0.748
375.98	0.747
376.19	0.745
376.39	0.739
376.60	0.742
376.81	0.743
377.02	0.741
377.22	0.740
377.43	0.740
377.64	0.741
377.84	0.733
378.05	0.738
378.26	0.744
378.47	0.743
378.67	0.741
378.88	0.738
379.09	0.738
379.30	0.738
379.50	0.736
379.71	0.739
379.92	0.740
380.12	0.740
380.33	0.732
380.54	0.729
380.75	0.735
380.95	0.735
381.16	0.733
381.37	0.734
381.57	0.735
381.78	0.735
381.99	0.735
382.20	0.734
382.40	0.736
382.61	0.736
382.82	0.734
383.02	0.728
383.23	0.730
383.44	0.730
383.64	0.730
383.85	0.732
384.06	0.735
384.27	0.733
384.47	0.732
384.68	0.733
384.89	0.739
385.09	0.738
385.30	0.738
385.51	0.736
385.71	0.739
385.92	0.739
386.13	0.738
386.33	0.740
386.54	0.740
386.75	0.739
386.95	0.735
387.16	0.730
387.37	0.732
387.58	0.732
387.78	0.731
387.99	0.730
388.20	0.731
388.40	0.729
388.61	0.725
388.82	0.729
389.02	0.731
389.23	0.731
389.44	0.730
389.64	0.731
389.85	0.742
390.06	0.741
390.26	0.742
390.47	0.741
390.68	0.744
390.88	0.743
391.09	0.738
391.30	0.738
391.50	0.738
391.71	0.738
391.92	0.736
392.12	0.728
392.33	0.729
392.53	0.729
392.74	0.730
392.95	0.728
393.15	0.731
393.36	0.732
393.57	0.731
393.77	0.734
393.98	0.735
394.19	0.734
394.39	0.734
394.60	0.734
394.81	0.736
395.01	0.735
395.22	0.734
395.43	0.735
395.63	0.740
395.84	0.741
396.04	0.739
396.25	0.741
396.46	0.743
396.66	0.740
396.87	0.739
397.08	0.736
397.28	0.738
397.49	0.739
397.69	0.735
397.90	0.730
398.11	0.731
398.31	0.731
398.52	0.728
398.73	0.730
398.93	0.729
399.14	0.729
399.34	0.727
399.55	0.729
399.76	0.729
399.96	0.730
400.17	0.729
400.37	0.728
400.58	0.734
400.79	0.735
400.99	0.732
401.20	0.738
401.41	0.740
401.61	0.741
401.82	0.747
402.02	0.746
402.23	0.747
402.44	0.747
402.64	0.747
402.85	0.742
403.05	0.741
403.26	0.741
403.47	0.734
403.67	0.733
403.88	0.733
404.08	0.727
404.29	0.726
404.50	0.726
404.70	0.726
404.91	0.724
405.11	0.722
405.32	0.722
405.52	0.723
405.73	0.722
405.94	0.722
406.14	0.725
406.35	0.726
406.55	0.726
406.76	0.725
406.97	0.726
407.17	0.729
407.38	0.729
407.58	0.728
407.79	0.730
407.99	0.733
408.20	0.733
408.41	0.730
408.61	0.728
408.82	0.729
409.02	0.729
409.23	0.726
409.43	0.725
409.64	0.726
409.84	0.726
410.05	0.722
410.26	0.720
410.46	0.719
410.67	0.719
410.87	0.721
411.08	0.723
411.28	0.724
411.49	0.726
411.69	0.723
411.90	0.725
412.11	0.726
412.31	0.727
412.52	0.726
412.72	0.727
412.93	0.727
413.13	0.727
413.34	0.723
413.54	0.725
413.75	0.727
413.95	0.727
414.16	0.724
414.37	0.727
414.57	0.727
414.78	0.729
414.98	0.727
415.19	0.728
415.39	0.724
415.60	0.726
415.80	0.726
416.01	0.723
416.21	0.725
416.42	0.725
416.62	0.719
416.83	0.719
417.03	0.719
417.24	0.719
417.44	0.718
417.65	0.717
417.86	0.717
418.06	0.715
418.27	0.713
418.47	0.715
418.68	0.715
418.88	0.716
419.09	0.715
419.29	0.716
419.50	0.716
419.70	0.715
419.91	0.715
420.11	0.712
420.32	0.714
420.52	0.714
420.73	0.713
420.93	0.714
421.14	0.715
421.34	0.714
421.55	0.710
421.75	0.710
421.96	0.711
422.16	0.711
422.37	0.710
422.57	0.707
422.78	0.708
422.98	0.705
423.19	0.704
423.39	0.702
423.60	0.706
423.80	0.706
424.01	0.705
424.21	0.708
424.42	0.708
424.62	0.708
424.83	0.708
425.03	0.708
425.23	0.709
425.44	0.709
425.64	0.709
425.85	0.707
426.05	0.708
426.26	0.709
426.46	0.705
426.67	0.705
426.87	0.709
427.08	0.710
427.28	0.708
427.49	0.709
427.69	0.710
427.90	0.709
428.10	0.706
428.31	0.707
428.51	0.708
428.71	0.707
428.92	0.708
429.12	0.705
429.33	0.706
429.53	0.709
429.74	0.713
429.94	0.714
430.15	0.713
430.35	0.712
430.56	0.709
430.76	0.708
430.96	0.708
431.17	0.706
431.37	0.703
431.58	0.701
431.78	0.697
431.99	0.690
432.19	0.692
432.40	0.694
432.60	0.695
432.80	0.697
433.01	0.695
433.21	0.696
433.42	0.698
433.62	0.698
433.83	0.698
434.03	0.701
434.23	0.703
434.44	0.702
434.64	0.700
434.85	0.705
435.05	0.706
435.26	0.707
435.46	0.706
435.66	0.705
435.87	0.705
436.07	0.706
436.28	0.701
436.48	0.698
436.69	0.698
436.89	0.698
437.09	0.691
437.30	0.689
437.50	0.689
437.71	0.701
437.91	0.699
438.11	0.700
438.32	0.703
438.52	0.704
438.73	0.703
438.93	0.701
439.13	0.700
439.34	0.704
439.54	0.702
439.75	0.703
439.95	0.693
440.15	0.697
440.36	0.697
440.56	0.694
440.77	0.694
440.97	0.695
441.17	0.694
441.38	0.695
441.58	0.692
441.79	0.692
441.99	0.690
442.19	0.688
442.40	0.685
442.60	0.685
442.81	0.683
443.01	0.684
443.21	0.684
443.42	0.684
443.62	0.682
443.82	0.682
444.03	0.683
444.23	0.683
444.44	0.683
444.64	0.682
444.84	0.683
445.05	0.683
445.25	0.681
445.45	0.681
445.66	0.682
445.86	0.682
446.06	0.683
446.27	0.682
446.47	0.685
446.68	0.683
446.88	0.682
447.08	0.681
447.29	0.682
447.49	0.683
447.69	0.682
447.90	0.680
448.10	0.683
448.30	0.681
448.51	0.682
448.71	0.680
448.91	0.682
449.12	0.681
449.32	0.682
449.52	0.681
449.73	0.684
449.93	0.683
450.14	0.685
450.34	0.684
450.54	0.686
450.75	0.683
450.95	0.682
451.15	0.681
451.36	0.683
451.56	0.681
451.76	0.680
451.97	0.678
452.17	0.678
452.37	0.676
452.58	0.674
452.78	0.673
452.98	0.675
453.19	0.675
453.39	0.676
453.59	0.674
453.79	0.674
454.00	0.674
454.20	0.673
454.40	0.673
454.61	0.675
454.81	0.675
455.01	0.674
455.22	0.675
455.42	0.675
455.62	0.674
455.83	0.674
456.03	0.677
456.23	0.678
456.44	0.678
456.64	0.678
456.84	0.678
457.04	0.678
457.25	0.677
457.45	0.674
457.65	0.673
457.86	0.674
458.06	0.674
458.26	0.670
458.47	0.668
458.67	0.670
458.87	0.670
459.07	0.668
459.28	0.670
459.48	0.671
459.68	0.672
459.89	0.671
460.09	0.670
460.29	0.670
460.49	0.671
460.70	0.671
460.90	0.670
461.10	0.670
461.31	0.670
461.51	0.667
461.71	0.669
461.91	0.670
462.12	0.669
462.32	0.668
462.52	0.669
462.72	0.671
462.93	0.672
463.13	0.671
463.33	0.672
463.53	0.673
463.74	0.673
463.94	0.668
464.14	0.669
464.35	0.670
464.55	0.670
464.75	0.669
464.95	0.667
465.16	0.668
465.36	0.667
465.56	0.666
465.76	0.665
465.97	0.665
466.17	0.666
466.37	0.664
466.57	0.665
466.78	0.665
466.98	0.665
467.18	0.663
467.38	0.662
467.59	0.663
467.79	0.664
467.99	0.663
468.19	0.664
468.39	0.667
468.60	0.667
468.80	0.665
469.00	0.666
469.20	0.667
469.41	0.667
469.61	0.667
469.81	0.667
470.01	0.667
470.22	0.668
470.42	0.666
470.62	0.664
470.82	0.665
471.02	0.665
471.23	0.663
471.43	0.664
471.63	0.667
471.83	0.666
472.04	0.664
472.24	0.664
472.44	0.668
472.64	0.669
472.84	0.668
473.05	0.667
473.25	0.669
473.45	0.668
473.65	0.668
473.85	0.667
474.06	0.669
474.26	0.669
474.46	0.670
474.66	0.666
474.86	0.666
475.07	0.666
475.27	0.664
475.47	0.662
475.67	0.662
475.87	0.663
476.08	0.661
476.28	0.662
476.48	0.662
476.68	0.661
476.88	0.659
477.09	0.661
477.29	0.662
477.49	0.662
477.69	0.661
477.89	0.662
478.09	0.661
478.30	0.663
478.50	0.660
478.70	0.660
478.90	0.660
479.10	0.664
479.31	0.665
479.51	0.663
479.71	0.663
479.91	0.663
480.11	0.662
480.31	0.663
480.52	0.662
480.72	0.661
480.92	0.660
481.12	0.658
481.32	0.655
481.52	0.653
481.72	0.653
481.93	0.656
482.13	0.657
482.33	0.657
482.53	0.655
482.73	0.655
482.93	0.657
483.14	0.656
483.34	0.656
483.54	0.657
483.74	0.656
483.94	0.655
484.14	0.651
484.34	0.651
484.55	0.652
484.75	0.651
484.95	0.650
485.15	0.648
485.35	0.648
485.55	0.648
485.75	0.646
485.96	0.646
486.16	0.648
486.36	0.647
486.56	0.645
486.76	0.645
486.96	0.645
487.16	0.644
487.36	0.644
487.57	0.644
487.77	0.644
487.97	0.644
488.17	0.642
488.37	0.641
488.57	0.641
488.77	0.642
488.97	0.640
489.18	0.640
489.38	0.642
489.58	0.643
489.78	0.642
489.98	0.641
490.18	0.642
490.38	0.642
490.58	0.642
490.78	0.643
490.98	0.644
491.19	0.645
491.39	0.644
491.59	0.643
491.79	0.646
491.99	0.646
492.19	0.646
492.39	0.649
492.59	0.649
492.79	0.650
492.99	0.651
493.20	0.651
493.40	0.651
493.60	0.653
493.80	0.651
494.00	0.649
494.20	0.649
494.40	0.649
494.60	0.646
494.80	0.650
495.00	0.649
495.20	0.648
495.40	0.647
495.61	0.648
495.81	0.648
496.01	0.651
496.21	0.652
496.41	0.651
496.61	0.651
496.81	0.651
497.01	0.646
497.21	0.644
497.41	0.645
497.61	0.644
497.81	0.642
498.01	0.642
498.21	0.639
498.41	0.637
498.61	0.638
498.82	0.639
499.02	0.641
499.22	0.642
499.42	0.642
499.62	0.643
499.82	0.644
500.02	0.646
500.22	0.645
500.42	0.647
500.62	0.647
500.82	0.647
501.02	0.645
501.22	0.645
501.42	0.644
501.62	0.646
501.82	0.646
502.02	0.646
502.22	0.645
502.42	0.646
502.62	0.643
502.82	0.644
503.02	0.645
503.22	0.644
503.42	0.642
503.63	0.643
503.83	0.640
504.03	0.639
504.23	0.638
504.43	0.639
504.63	0.640
504.83	0.640
505.03	0.640
505.23	0.641
505.43	0.643
505.63	0.643
505.83	0.643
506.03	0.644
506.23	0.645
506.43	0.645
506.63	0.645
506.83	0.643
507.03	0.645
507.23	0.645
507.43	0.643
507.63	0.644
507.83	0.644
508.03	0.644
508.23	0.644
508.43	0.643
508.63	0.644
508.83	0.645
509.03	0.646
509.23	0.645
509.43	0.646
509.63	0.646
509.83	0.645
510.03	0.648
510.23	0.649
510.43	0.649
510.63	0.649
510.83	0.649
511.03	0.651
511.23	0.648
511.43	0.648
511.63	0.649
511.83	0.651
512.03	0.650
512.22	0.647
512.42	0.647
512.62	0.648
512.82	0.648
513.02	0.647
513.22	0.646
513.42	0.648
513.62	0.651
513.82	0.650
514.02	0.649
514.22	0.650
514.42	0.651
514.62	0.651
514.82	0.651
515.02	0.653
515.22	0.657
515.42	0.656
515.62	0.658
515.82	0.657
516.02	0.658
516.22	0.658
516.42	0.659
516.62	0.661
516.82	0.662
517.01	0.661
517.21	0.660
517.41	0.663
517.61	0.663
517.81	0.660
518.01	0.659
518.21	0.659
518.41	0.657
518.61	0.656
518.81	0.656
519.01	0.656
519.21	0.656
519.41	0.656
519.61	0.651
519.81	0.653
520.00	0.653
520.20	0.654
520.40	0.656
520.60	0.657
520.80	0.656
521.00	0.657
521.20	0.657
521.40	0.661
521.60	0.662
521.80	0.661
522.00	0.661
522.20	0.663
522.39	0.662
522.59	0.659
522.79	0.661
522.99	0.663
523.19	0.662
523.39	0.660
523.59	0.659
523.79	0.661
523.99	0.663
524.19	0.662
524.38	0.661
524.58	0.663
524.78	0.663
524.98	0.662
525.18	0.664
525.38	0.664
525.58	0.664
525.78	0.662
525.98	0.661
526.18	0.661
526.37	0.661
526.57	0.663
526.77	0.663
526.97	0.663
527.17	0.664
527.37	0.660
527.57	0.662
527.77	0.663
527.96	0.663
528.16	0.662
528.36	0.663
528.56	0.665
528.76	0.662
528.96	0.661
529.16	0.663
529.36	0.664
529.55	0.665
529.75	0.662
529.95	0.663
530.15	0.664
530.35	0.666
530.55	0.664
530.75	0.664
530.94	0.665
531.14	0.666
531.34	0.665
531.54	0.664
531.74	0.666
531.94	0.669
532.13	0.667
532.33	0.669
532.53	0.667
532.73	0.667
532.93	0.666
533.13	0.667
533.33	0.667
533.52	0.667
533.72	0.670
533.92	0.669
534.12	0.667
534.32	0.667
534.52	0.665
534.71	0.667
534.91	0.669
535.11	0.670
535.31	0.669
535.51	0.670
535.71	0.672
535.90	0.669
536.10	0.670
536.30	0.672
536.50	0.673
536.70	0.673
536.89	0.672
537.09	0.671
537.29	0.673
537.49	0.674
537.69	0.672
537.89	0.673
538.08	0.672
538.28	0.670
538.48	0.670
538.68	0.672
538.88	0.673
539.07	0.673
539.27	0.672
539.47	0.671
539.67	0.671
539.87	0.672
540.06	0.670
540.26	0.671
540.46	0.673
540.66	0.670
540.86	0.669
541.05	0.669
541.25	0.670
541.45	0.670
541.65	0.669
541.84	0.671
542.04	0.672
542.24	0.672
542.44	0.671
542.64	0.673
542.83	0.675
543.03	0.675
543.23	0.673
543.43	0.674
543.62	0.675
543.82	0.675
544.02	0.674
544.22	0.674
544.42	0.677
544.61	0.678
544.81	0.675
545.01	0.674
545.21	0.676
545.40	0.676
545.60	0.674
545.80	0.677
546.00	0.678
546.19	0.676
546.39	0.675
546.59	0.672
546.79	0.674
546.98	0.674
547.18	0.673
547.38	0.673
547.58	0.676
547.77	0.676
547.97	0.673
548.17	0.674
548.37	0.676
548.56	0.676
548.76	0.676
548.96	0.677
549.16	0.678
549.35	0.678
549.55	0.677
549.75	0.676
549.95	0.679
550.14	0.680
550.34	0.679
550.54	0.683
550.73	0.686
550.93	0.687
551.13	0.685
551.33	0.684
551.52	0.685
551.72	0.685
551.92	0.684
552.12	0.684
552.31	0.684
552.51	0.684
552.71	0.680
552.90	0.681
553.10	0.681
553.30	0.681
553.50	0.680
553.69	0.682
553.89	0.681
554.09	0.682
554.28	0.679
554.48	0.680
554.68	0.682
554.87	0.681
555.07	0.677
555.27	0.677
555.47	0.678
555.66	0.679
555.86	0.678
556.06	0.680
556.25	0.681
556.45	0.689
556.65	0.687
556.84	0.689
557.04	0.693
557.24	0.695
557.43	0.695
557.63	0.698
557.83	0.700
558.02	0.701
558.22	0.706
558.42	0.706
558.61	0.699
558.81	0.700
559.01	0.697
559.21	0.696
559.40	0.696
559.60	0.697
559.80	0.693
559.99	0.694
560.19	0.695
560.39	0.689
560.58	0.687
560.78	0.687
560.97	0.690
561.17	0.689
561.37	0.688
561.56	0.688
561.76	0.688
561.96	0.688
562.15	0.686
562.35	0.687
562.55	0.688
562.74	0.688
562.94	0.687
563.14	0.685
563.33	0.684
563.53	0.684
563.73	0.682
563.92	0.684
564.12	0.686
564.31	0.689
564.51	0.687
564.71	0.689
564.90	0.692
565.10	0.693
565.30	0.696
565.49	0.696
565.69	0.698
565.89	0.699
566.08	0.696
566.28	0.698
566.47	0.699
566.67	0.698
566.87	0.696
567.06	0.698
567.26	0.704
567.46	0.701
567.65	0.701
567.85	0.703
568.04	0.706
568.24	0.706
568.44	0.703
568.63	0.701
568.83	0.701
569.02	0.700
569.22	0.696
569.42	0.692
569.61	0.693
569.81	0.692
570.00	0.690
570.20	0.692
570.40	0.692
570.59	0.692
570.79	0.690
570.98	0.689
571.18	0.690
571.38	0.690
571.57	0.688
571.77	0.686
571.96	0.689
572.16	0.687
572.35	0.682
572.55	0.683
572.75	0.681
572.94	0.680
573.14	0.679
573.33	0.679
573.53	0.678
573.73	0.677
573.92	0.675
574.12	0.673
574.31	0.676
574.51	0.676
574.70	0.674
574.90	0.676
575.09	0.678
575.29	0.678
575.49	0.676
575.68	0.677
575.88	0.678
576.07	0.679
576.27	0.677
576.46	0.675
576.66	0.674
576.86	0.673
577.05	0.670
577.25	0.668
577.44	0.670
577.64	0.669
577.83	0.667
578.03	0.669
578.22	0.669
578.42	0.669
578.61	0.668
578.81	0.669
579.00	0.669
579.20	0.669
579.40	0.668
579.59	0.666
579.79	0.667
579.98	0.667
580.18	0.666
580.37	0.666
580.57	0.667
580.76	0.671
580.96	0.670
581.15	0.671
581.35	0.672
581.54	0.672
581.74	0.672
581.93	0.674
582.13	0.674
582.32	0.671
582.52	0.669
582.71	0.668
582.91	0.664
583.10	0.663
583.30	0.662
583.49	0.661
583.69	0.664
583.88	0.665
584.08	0.665
584.27	0.667
584.47	0.670
584.66	0.672
584.86	0.671
585.05	0.673
585.25	0.676
585.44	0.676
585.64	0.675
585.83	0.671
586.03	0.671
586.22	0.669
586.42	0.666
586.61	0.667
586.81	0.668
587.00	0.668
587.20	0.665
587.39	0.665
587.59	0.666
587.78	0.667
587.98	0.669
588.17	0.669
588.37	0.671
588.56	0.673
588.76	0.670
588.95	0.670
589.15	0.674
589.34	0.676
589.54	0.675
589.73	0.676
589.92	0.679
590.12	0.680
590.31	0.678
590.51	0.684
590.70	0.685
590.90	0.686
591.09	0.685
591.29	0.682
591.48	0.682
591.68	0.683
591.87	0.682
592.06	0.681
592.26	0.683
592.45	0.683
592.65	0.677
592.84	0.676
593.04	0.678
593.23	0.680
593.43	0.678
593.62	0.677
593.81	0.677
594.01	0.676
594.20	0.674
594.40	0.672
594.59	0.673
594.79	0.674
594.98	0.672
595.17	0.672
595.37	0.673
595.56	0.675
595.76	0.676
595.95	0.678
596.14	0.680
596.34	0.682
596.53	0.682
596.73	0.684
596.92	0.686
597.12	0.689
597.31	0.690
597.50	0.689
597.70	0.690
597.89	0.690
598.09	0.686
598.28	0.688
598.47	0.690
598.67	0.688
598.86	0.684
599.06	0.686
599.25	0.685
599.44	0.683
599.64	0.681
599.83	0.678
600.03	0.680
600.22	0.680
600.41	0.680
600.61	0.678
600.80	0.679
601.00	0.680
601.19	0.676
601.38	0.674
601.58	0.676
601.77	0.677
601.96	0.680
602.16	0.680
602.35	0.689
602.55	0.687
602.74	0.687
602.93	0.690
603.13	0.695
603.32	0.697
603.51	0.698
603.71	0.702
603.90	0.703
604.09	0.704
604.29	0.701
604.48	0.696
604.68	0.697
604.87	0.695
605.06	0.692
605.26	0.688
605.45	0.688
605.64	0.687
605.84	0.682
606.03	0.681
606.22	0.679
606.42	0.678
606.61	0.675
606.80	0.675
607.00	0.676
607.19	0.676
607.38	0.674
607.58	0.675
607.77	0.677
607.96	0.676
608.16	0.674
608.35	0.679
608.54	0.681
608.74	0.683
608.93	0.688
609.12	0.691
609.32	0.693
609.51	0.697
609.70	0.696
609.90	0.698
610.09	0.702
610.28	0.708
610.48	0.702
610.67	0.704
610.86	0.705
611.06	0.700
611.25	0.698
611.44	0.699
611.64	0.699
611.83	0.702
612.02	0.700
612.21	0.699
612.41	0.697
612.60	0.697
612.79	0.693
612.99	0.693
613.18	0.696
613.37	0.693
613.57	0.691
613.76	0.692
613.95	0.689
614.14	0.687
614.34	0.685
614.53	0.685
614.72	0.688
614.92	0.688
615.11	0.685
615.30	0.682
615.49	0.683
615.69	0.685
615.88	0.682
616.07	0.683
616.26	0.685
616.46	0.686
616.65	0.683
616.84	0.682
617.04	0.683
617.23	0.686
617.42	0.687
617.61	0.690
617.81	0.691
618.00	0.692
618.19	0.692
618.38	0.696
618.58	0.699
618.77	0.702
618.96	0.701
619.15	0.703
619.35	0.704
619.54	0.705
619.73	0.701
619.92	0.703
620.12	0.707
620.31	0.707
620.50	0.702
620.69	0.702
620.89	0.704
621.08	0.705
621.27	0.706
621.46	0.706
621.66	0.709
621.85	0.708
622.04	0.706
622.23	0.707
622.43	0.708
622.62	0.708
622.81	0.708
623.00	0.707
623.19	0.709
623.39	0.707
623.58	0.704
623.77	0.703
623.96	0.705
624.16	0.705
624.35	0.700
624.54	0.702
624.73	0.704
624.92	0.702
625.12	0.700
625.31	0.701
625.50	0.703
625.69	0.704
625.88	0.701
626.08	0.700
626.27	0.701
626.46	0.702
626.65	0.699
626.84	0.699
627.04	0.703
627.23	0.704
627.42	0.701
627.61	0.703
627.80	0.705
628.00	0.705
628.19	0.704
628.38	0.708
628.57	0.709
628.76	0.709
628.96	0.707
629.15	0.708
629.34	0.710
629.53	0.709
629.72	0.705
629.91	0.705
630.11	0.707
630.30	0.707
630.49	0.709
630.68	0.710
630.87	0.713
631.06	0.715
631.26	0.710
631.45	0.711
631.64	0.718
631.83	0.720
632.02	0.718
632.21	0.718
632.41	0.724
632.60	0.719
632.79	0.718
632.98	0.719
633.17	0.719
633.36	0.721
633.55	0.718
633.75	0.715
633.94	0.716
634.13	0.717
634.32	0.716
634.51	0.711
634.70	0.712
634.89	0.711
635.09	0.708
635.28	0.709
635.47	0.709
635.66	0.712
635.85	0.709
636.04	0.710
636.23	0.714
636.43	0.714
636.62	0.713
636.81	0.711
637.00	0.714
637.19	0.717
637.38	0.714
637.57	0.713
637.76	0.714
637.95	0.716
638.15	0.712
638.34	0.709
638.53	0.711
638.72	0.713
638.91	0.712
639.10	0.711
639.29	0.710
639.48	0.710
639.67	0.711
639.87	0.711
640.06	0.715
640.25	0.715
640.44	0.716
640.63	0.717
640.82	0.718
641.01	0.718
641.20	0.717
641.39	0.720
641.58	0.721
641.78	0.721
641.97	0.717
642.16	0.731
642.35	0.731
642.54	0.730
642.73	0.725
642.92	0.724
643.11	0.726
643.30	0.726
643.49	0.722
643.68	0.724
643.87	0.724
644.06	0.725
644.25	0.706
644.45	0.709
644.64	0.709
644.83	0.711
645.02	0.709
645.21	0.709
645.40	0.709
645.59	0.710
645.78	0.705
645.97	0.707
646.16	0.707
646.35	0.707
646.54	0.705
646.73	0.706
646.92	0.707
647.11	0.706
647.30	0.702
647.49	0.704
647.68	0.702
647.88	0.700
648.07	0.695
648.26	0.699
648.45	0.700
648.64	0.696
648.83	0.694
649.02	0.697
649.21	0.706
649.40	0.705
649.59	0.700
649.78	0.702
649.97	0.715
650.16	0.713
650.35	0.707
650.54	0.709
650.73	0.717
650.92	0.714
651.11	0.708
651.30	0.706
651.49	0.710
651.68	0.711
651.87	0.708
652.06	0.699
652.25	0.702
652.44	0.707
652.63	0.708
652.82	0.711
653.01	0.712
653.20	0.710
653.39	0.699
653.58	0.697
653.77	0.695
653.96	0.691
654.15	0.683
654.34	0.681
654.53	0.675
654.72	0.668
654.91	0.658
655.10	0.653
655.29	0.650
655.48	0.647
655.67	0.642
655.86	0.639
656.05	0.638
656.24	0.637
656.43	0.632
656.62	0.630
656.81	0.629
657.00	0.624
657.19	0.620
657.38	0.619
657.57	0.617
657.76	0.618
657.95	0.615
658.14	0.617
658.33	0.619
658.51	0.623
658.70	0.624
658.89	0.626
659.08	0.637
659.27	0.646
659.46	0.648
659.65	0.654
659.84	0.658
660.03	0.662
660.22	0.663
660.41	0.667
660.60	0.667
660.79	0.668
660.98	0.674
661.17	0.673
661.36	0.672
661.55	0.673
661.74	0.671
661.92	0.674
662.11	0.677
662.30	0.676
662.49	0.671
662.68	0.671
662.87	0.673
663.06	0.667
663.25	0.668
663.44	0.668
663.63	0.669
663.82	0.669
664.01	0.665
664.20	0.663
664.38	0.664
664.57	0.664
664.76	0.664
664.95	0.665
665.14	0.669
665.33	0.665
665.52	0.672
665.71	0.676
665.90	0.674
666.09	0.676
666.28	0.674
666.46	0.672
666.65	0.673
666.84	0.670
667.03	0.665
667.22	0.663
667.41	0.665
667.60	0.656
667.79	0.649
667.98	0.651
668.16	0.651
668.35	0.650
668.54	0.648
668.73	0.648
668.92	0.649
669.11	0.648
669.30	0.642
669.49	0.639
669.67	0.640
669.86	0.643
670.05	0.640
670.24	0.639
670.43	0.637
670.62	0.635
670.81	0.631
671.00	0.631
671.18	0.630
671.37	0.629
671.56	0.628
671.75	0.626
671.94	0.623
672.13	0.621
672.32	0.616
672.50	0.615
672.69	0.615
672.88	0.616
673.07	0.612
673.26	0.613
673.45	0.615
673.63	0.615
673.82	0.611
674.01	0.613
674.20	0.613
674.39	0.612
674.58	0.612
674.76	0.612
674.95	0.611
675.14	0.611
675.33	0.608
675.52	0.607
675.71	0.607
675.89	0.607
676.08	0.604
676.27	0.604
676.46	0.604
676.65	0.603
676.84	0.603
677.02	0.604
677.21	0.605
677.40	0.603
677.59	0.601
677.78	0.600
677.96	0.602
678.15	0.601
678.34	0.600
678.53	0.600
678.72	0.600
678.90	0.597
679.09	0.593
679.28	0.590
679.47	0.591
679.66	0.590
679.84	0.588
680.03	0.584
680.22	0.584
680.41	0.585
680.60	0.582
680.78	0.581
680.97	0.583
681.16	0.583
681.35	0.582
681.53	0.581
681.72	0.582
681.91	0.583
682.10	0.583
682.29	0.585
682.47	0.582
682.66	0.580
682.85	0.578
683.04	0.577
683.22	0.576
683.41	0.579
683.60	0.577
683.79	0.578
683.97	0.578
684.16	0.577
684.35	0.573
684.54	0.575
684.72	0.575
684.91	0.576
685.10	0.574
685.29	0.576
685.47	0.573
685.66	0.572
685.85	0.569
686.04	0.567
686.22	0.569
686.41	0.572
686.60	0.569
686.79	0.572
686.97	0.573
687.16	0.574
687.35	0.572
687.54	0.575
687.72	0.579
687.91	0.579
688.10	0.581
688.29	0.580
688.47	0.578
688.66	0.578
688.85	0.575
689.03	0.573
689.22	0.577
689.41	0.577
689.60	0.573
689.78	0.570
689.97	0.570
690.16	0.568
690.34	0.564
690.53	0.564
690.72	0.565
690.91	0.562
691.09	0.561
691.28	0.555
691.47	0.553
691.65	0.552
691.84	0.550
692.03	0.549
692.21	0.546
692.40	0.546
692.59	0.543
692.77	0.542
692.96	0.543
693.15	0.543
693.34	0.541
693.52	0.540
693.71	0.541
693.90	0.542
694.08	0.543
694.27	0.544
694.46	0.552
694.64	0.553
694.83	0.553
695.02	0.553
695.20	0.552
695.39	0.553
695.58	0.553
695.76	0.553
695.95	0.552
696.14	0.551
696.32	0.549
696.51	0.540
696.70	0.539
696.88	0.540
697.07	0.539
697.26	0.540
697.44	0.540
697.63	0.539
697.81	0.537
698.00	0.537
698.19	0.536
698.37	0.536
698.56	0.535
698.75	0.535
698.93	0.534
699.12	0.534
699.31	0.533
699.49	0.533
699.68	0.534
699.87	0.536
700.05	0.537
700.24	0.536
700.42	0.538
700.61	0.538
700.80	0.536
700.98	0.537
701.17	0.538
701.36	0.537
701.54	0.538
701.73	0.539
701.91	0.536
702.10	0.535
702.29	0.534
702.47	0.533
702.66	0.534
702.84	0.535
703.03	0.533
703.22	0.534
703.40	0.534
703.59	0.534
703.77	0.534
703.96	0.534
704.15	0.535
704.33	0.535
704.52	0.534
704.70	0.533
704.89	0.533
705.08	0.532
705.26	0.528
705.45	0.528
705.63	0.527
705.82	0.524
706.00	0.523
706.19	0.523
706.38	0.523
706.56	0.522
706.75	0.520
706.93	0.519
707.12	0.520
707.30	0.520
707.49	0.518
707.68	0.516
707.86	0.515
708.05	0.515
708.23	0.513
708.42	0.513
708.60	0.515
708.79	0.515
708.98	0.513
709.16	0.512
709.35	0.514
709.53	0.518
709.72	0.516
709.90	0.519
710.09	0.520
710.27	0.522
710.46	0.525
710.64	0.524
710.83	0.526
711.02	0.528
711.20	0.527
711.39	0.526
711.57	0.523
711.76	0.524
711.94	0.523
712.13	0.523
712.31	0.523
712.50	0.519
712.68	0.517
712.87	0.518
713.05	0.518
713.24	0.519
713.42	0.519
713.61	0.520
713.79	0.520
713.98	0.521
714.16	0.522
714.35	0.522
714.54	0.523
714.72	0.523
714.91	0.520
715.09	0.526
715.28	0.529
715.46	0.529
715.65	0.526
715.83	0.526
716.02	0.528
716.20	0.525
716.39	0.525
716.57	0.525
716.76	0.527
716.94	0.527
717.12	0.520
717.31	0.521
717.49	0.523
717.68	0.526
717.86	0.525
718.05	0.527
718.23	0.528
718.42	0.530
718.60	0.532
718.79	0.540
718.97	0.542
719.16	0.542
719.34	0.540
719.53	0.540
719.71	0.539
719.90	0.540
720.08	0.537
720.27	0.537
720.45	0.537
720.63	0.535
720.82	0.529
721.00	0.532
721.19	0.534
721.37	0.534
721.56	0.534
721.74	0.537
721.93	0.545
722.11	0.551
722.30	0.551
722.48	0.556
722.66	0.557
722.85	0.555
723.03	0.556
723.22	0.555
723.40	0.558
723.59	0.558
723.77	0.563
723.95	0.557
724.14	0.559
724.32	0.561
724.51	0.561
724.69	0.563
724.88	0.563
725.06	0.562
725.24	0.563
725.43	0.564
725.61	0.566
725.80	0.560
725.98	0.559
726.16	0.556
726.35	0.560
726.53	0.559
726.72	0.559
726.90	0.568
727.09	0.568
727.27	0.573
727.45	0.571
727.64	0.579
727.82	0.585
728.01	0.589
728.19	0.587
728.37	0.591
728.56	0.595
728.74	0.602
728.92	0.593
729.11	0.595
729.29	0.593
729.48	0.595
729.66	0.587
729.84	0.588
730.03	0.591
730.21	0.592
730.40	0.584
730.58	0.585
730.76	0.583
730.95	0.586
731.13	0.586
731.31	0.598
731.50	0.608
731.68	0.611
731.86	0.608
732.05	0.620
732.23	0.623
732.42	0.626
732.60	0.629
732.78	0.634
732.97	0.650
733.15	0.656
733.33	0.648
733.52	0.653
733.70	0.662
733.88	0.671
734.07	0.660
734.25	0.684
734.43	0.691
734.62	0.693
734.80	0.692
734.98	0.683
735.17	0.689
735.35	0.692
735.53	0.683
735.72	0.688
735.90	0.706
736.08	0.724
736.27	0.701
736.45	0.711
736.63	0.722
736.82	0.730
737.00	0.729
737.18	0.737
737.37	0.764
737.55	0.786
737.73	0.781
737.92	0.781
738.10	0.778
738.28	0.798
738.46	0.786
738.65	0.798
738.83	0.815
739.01	0.864
739.20	0.858
739.38	0.845
739.56	0.833
739.75	0.838
739.93	0.812
740.11	0.832
740.29	0.828
740.48	0.837
740.66	0.819
740.84	0.814
741.03	0.778
741.21	0.791
741.39	0.776
741.57	0.788
741.76	0.797
741.94	0.802
742.12	0.773
742.31	0.778
742.49	0.794
742.67	0.817
742.85	0.836
743.04	0.842
743.22	0.846
743.40	0.896
743.58	0.882
743.77	0.905
743.95	0.931
744.13	0.978
744.31	0.972
744.50	0.967
744.68	0.961
744.86	0.933
745.04	0.945
745.23	1.009
745.41	0.985
745.59	0.990
745.77	0.958
745.96	0.943
746.14	0.950
746.32	0.943
746.50	0.935
746.69	0.917
746.87	0.920
747.05	0.911
747.23	0.843
747.42	0.829
747.60	0.847
747.78	0.847
747.96	0.881
748.14	0.841
748.33	0.864
748.51	0.858
748.69	0.857
748.87	0.880
749.06	0.875
749.24	0.871
749.42	0.860
749.60	0.842
749.78	0.849
749.97	0.805
750.15	0.801
750.33	0.800
750.51	0.819
750.69	0.822
750.88	0.833
751.06	0.838
751.24	0.858
751.42	0.852
751.60	0.851
751.79	0.911
751.97	0.955
752.15	0.956
752.33	0.932
752.51	0.985
752.69	0.995
752.88	0.966
753.06	1.011
753.24	0.996
753.42	1.019
753.60	1.167
753.78	1.055
753.97	1.065
754.15	1.074
754.33	1.101
754.51	1.001
754.69	0.989
754.87	1.014
755.06	0.948
755.24	0.952
755.42	0.957
755.60	0.862
755.78	0.870
755.96	0.824
756.15	0.822
756.33	0.821
756.51	0.837
756.69	0.827
756.87	0.795
757.05	0.811
757.23	0.798
757.42	0.773
757.60	0.772
757.78	0.761
757.96	0.761
758.14	0.749
758.32	0.738
758.50	0.749
758.69	0.747
758.87	0.739
759.05	0.741
759.23	0.743
759.41	0.744
759.59	0.739
759.77	0.754
759.95	0.776
760.13	0.819
760.32	0.819
760.50	0.810
760.68	0.829
760.86	0.832
761.04	0.812
761.22	0.820
761.40	0.859
761.58	0.863
761.76	0.840
761.95	0.823
762.13	0.782
762.31	0.784
762.49	0.760
762.67	0.777
762.85	0.785
763.03	0.781
763.21	0.766
763.39	0.749
763.57	0.747
763.75	0.745
763.94	0.733
764.12	0.734
764.30	0.754
764.48	0.756
764.66	0.725
764.84	0.727
765.02	0.757
765.20	0.766
765.38	0.751
765.56	0.755
765.74	0.791
765.92	0.793
766.10	0.799
766.28	0.792
766.46	0.819
766.65	0.819
766.83	0.807
767.01	0.794
767.19	0.798
767.37	0.796
767.55	0.785
767.73	0.762
767.91	0.762
768.09	0.751
768.27	0.741
768.45	0.731
768.63	0.734
768.81	0.736
768.99	0.714
769.17	0.734
769.35	0.744
769.53	0.746
769.71	0.735
769.89	0.741
770.07	0.745
770.25	0.732
770.43	0.715
770.61	0.733
770.79	0.736
770.97	0.743
771.15	0.717
771.33	0.718
771.51	0.716
771.69	0.725
771.87	0.732
772.05	0.737
772.24	0.740
772.42	0.747
772.60	0.729
772.78	0.779
772.96	0.803
773.14	0.799
773.32	0.785
773.49	0.792
773.67	0.787
773.85	0.773
774.03	0.767
774.21	0.796
774.39	0.807
774.57	0.830
774.75	0.772
774.93	0.765
775.11	0.785
775.29	0.790
775.47	0.793
775.65	0.802
775.83	0.815
776.01	0.833
776.19	0.791
776.37	0.791
776.55	0.790
776.73	0.781
776.91	0.778
777.09	0.761
777.27	0.755
777.45	0.744
777.63	0.725
777.81	0.722
777.99	0.706
778.17	0.706
778.35	0.690
778.53	0.676
778.71	0.679
778.89	0.669
779.07	0.661
779.24	0.666
779.42	0.665
779.60	0.684
779.78	0.679
779.96	0.682
780.14	0.687
780.32	0.704
780.50	0.693
780.68	0.691
780.86	0.685
781.04	0.699
781.22	0.704
781.40	0.713
781.58	0.700
781.75	0.696
781.93	0.685
782.11	0.685
782.29	0.671
782.47	0.669
782.65	0.661
782.83	0.685
783.01	0.677
783.19	0.672
783.37	0.662
783.55	0.664
783.72	0.679
783.90	0.688
784.08	0.683
784.26	0.694
784.44	0.711
784.62	0.714
784.80	0.687
784.98	0.693
785.16	0.698
785.33	0.711
785.51	0.702
785.69	0.689
785.87	0.686
786.05	0.696
786.23	0.694
786.41	0.692
786.59	0.697
786.77	0.697
786.94	0.686
787.12	0.688
787.30	0.688
787.48	0.685
787.66	0.678
787.84	0.683
788.02	0.674
788.19	0.671
788.37	0.659
788.55	0.661
788.73	0.661
788.91	0.658
789.09	0.643
789.27	0.634
789.44	0.644
789.62	0.649
789.80	0.656
789.98	0.676
790.16	0.666
790.34	0.662
790.51	0.652
790.69	0.669
790.87	0.673
791.05	0.672
791.23	0.666
791.41	0.666
791.58	0.671
791.76	0.653
791.94	0.627
792.12	0.633
792.30	0.636
792.48	0.634
792.65	0.628
792.83	0.632
793.01	0.637
793.19	0.636
793.37	0.623
793.54	0.619
793.72	0.627
793.90	0.626
794.08	0.616
794.26	0.615
794.43	0.622
794.61	0.607
794.79	0.598
794.97	0.598
795.15	0.602
795.32	0.607
795.50	0.599
795.68	0.593
795.86	0.596
796.04	0.598
796.21	0.595
796.39	0.592
796.57	0.603
796.75	0.611
796.92	0.613
797.10	0.617
797.28	0.616
797.46	0.620
797.64	0.623
797.81	0.632
797.99	0.636
798.17	0.639
798.35	0.636
798.52	0.639
798.70	0.633
798.88	0.640
799.06	0.640
799.23	0.642
799.41	0.648
799.59	0.640
799.77	0.630
799.94	0.638
800.12	0.644
800.30	0.660
800.48	0.661
800.65	0.661
800.83	0.651
801.01	0.643
801.19	0.645
801.36	0.643
801.54	0.645
801.72	0.654
801.90	0.643
802.07	0.640
802.25	0.625
802.43	0.610
802.60	0.608
802.78	0.614
802.96	0.616
803.14	0.610
803.31	0.611
803.49	0.612
803.67	0.606
803.84	0.608
804.02	0.601
804.20	0.604
804.38	0.609
804.55	0.608
804.73	0.598
804.91	0.601
805.08	0.610
805.26	0.606
805.44	0.668
805.61	0.671
805.79	0.673
805.97	0.674
806.15	0.668
806.32	0.663
806.50	0.669
806.68	0.667
806.85	0.659
807.03	0.650
807.21	0.662
807.38	0.598
807.56	0.589
807.74	0.598
807.91	0.601
808.09	0.602
808.27	0.620
808.44	0.643
808.62	0.649
808.80	0.649
808.97	0.645
809.15	0.642
809.33	0.656
809.50	0.663
809.68	0.652
809.86	0.659
810.03	0.688
810.21	0.669
810.39	0.654
810.56	0.661
810.74	0.683
810.91	0.749
811.09	0.741
811.27	0.760
811.44	0.763
811.62	0.761
811.80	0.749
811.97	0.723
812.15	0.723
812.33	0.718
812.50	0.705
812.68	0.694
812.85	0.641
813.03	0.644
813.21	0.616
813.38	0.612
813.56	0.615
813.74	0.623
813.91	0.629
814.09	0.653
814.26	0.645
814.44	0.647
814.62	0.640
814.79	0.642
814.97	0.641
815.14	0.646
815.32	0.647
815.50	0.660
815.67	0.662
815.85	0.654
816.02	0.646
816.20	0.653
816.38	0.666
816.55	0.672
816.73	0.675
816.90	0.687
817.08	0.711
817.26	0.723
817.43	0.707
817.61	0.730
817.78	0.745
817.96	0.729
818.13	0.723
818.31	0.723
818.49	0.730
818.66	0.720
818.84	0.709
819.01	0.690
819.19	0.692
819.36	0.693
819.54	0.667
819.71	0.705
819.89	0.714
820.07	0.725
820.24	0.721
820.42	0.722
820.59	0.738
820.77	0.759
820.94	0.757
821.12	0.773
821.29	0.783
821.47	0.785
821.64	0.733
821.82	0.743
822.00	0.740
822.17	0.740
822.35	0.736
822.52	0.740
822.70	0.728
822.87	0.736
823.05	0.720
823.22	0.732
823.40	0.754
823.57	0.774
823.75	0.760
823.92	0.782
824.10	0.795
824.27	0.829
824.45	0.825
824.62	0.878
824.80	0.886
824.97	0.893
825.15	0.887
825.32	0.901
825.50	0.900
825.67	0.908
825.85	0.888
826.02	0.898
826.20	0.912
826.37	1.017
826.55	0.953
826.72	1.111
826.90	1.152
827.07	1.186
827.25	1.144
827.42	1.250
827.60	1.336
827.77	1.448
827.95	1.438
828.12	1.519
828.30	1.263
828.47	1.338
828.65	1.095
828.82	1.137
829.00	1.170
829.17	1.237
829.34	1.241
829.52	1.267
829.69	-0.000
829.87	-0.000
830.04	-0.000
830.22	-0.000
830.39	-0.000
830.57	-0.000
830.74	-0.000
830.92	-0.000
831.09	-0.000
831.26	-0.000
831.44	-0.000
831.61	-0.000
831.79	-0.000
831.96	-0.000
832.14	-0.000
832.31	-0.000
832.49	-0.000
832.66	-0.000
832.83	-0.000
833.01	-0.000
833.18	-0.000
833.36	-0.000
833.53	-0.000
833.70	-0.000
833.88	-0.000
834.05	-0.000
834.23	-0.000
834.40	-0.000
834.58	-0.000
834.75	-0.000
834.92	-0.000
835.10	-0.000
835.27	-0.000
835.45	-0.000
835.62	-0.000
835.79	-0.000
835.97	-0.000
836.14	-0.000
836.32	-0.000
836.49	-0.000
836.66	-0.000
836.84	-0.000
837.01	-0.000
837.18	-0.000
837.36	-0.000
837.53	-0.000
837.71	-0.000
837.88	-0.000
838.05	-0.000
838.23	-0.000
838.40	-0.000
838.58	-0.000
838.75	-0.000
838.92	-0.000
839.10	-0.000
839.27	-0.000
839.44	-0.000
839.62	-0.000
839.79	-0.000
839.96	-0.000
840.14	-0.000
840.31	-0.000
840.48	-0.000
840.66	-0.000
840.83	-0.000
841.01	-0.000
841.18	-0.000
841.35	-0.000
841.53	-0.000
841.70	-0.000
841.87	-0.000
842.05	-0.000
842.22	-0.000
842.39	-0.000
842.57	-0.000
842.74	-0.000
842.91	-0.000
843.09	-0.000
843.26	-0.000
843.43	-0.000
843.60	-0.000
843.78	-0.000
843.95	-0.000
844.12	-0.000
844.30	-0.000
844.47	-0.000
844.64	-0.000
844.82	-0.000
844.99	-0.000
845.16	-0.000
845.34	-0.000
845.51	-0.000
845.68	-0.000
845.85	-0.000
846.03	-0.000
846.20	-0.000
846.37	-0.000
846.55	-0.000
846.72	-0.000
846.89	-0.000
847.06	-0.000
847.24	-0.000
847.41	-0.000
847.58	-0.000
847.76	-0.000
847.93	-0.000
848.10	-0.000
848.27	-0.000
848.45	-0.000
848.62	-0.000
848.79	-0.000
848.97	-0.000
849.14	-0.000
849.31	-0.000
849.48	-0.000
849.66	-0.000
849.83	-0.000
850.00	-0.000
850.17	-0.000
850.35	-0.000
850.52	-0.000
850.69	-0.000
850.86	-0.000
851.04	-0.000
851.21	-0.000
851.38	-0.000
851.55	-0.000
851.72	-0.000
851.90	-0.000
852.07	-0.000
852.24	-0.000
852.41	-0.000
852.59	-0.000
852.76	-0.000
852.93	-0.000
853.10	-0.000
853.28	-0.000
853.45	-0.000
853.62	-0.000
853.79	-0.000
853.96	-0.000
854.14	-0.000
854.31	-0.000
854.48	-0.000
854.65	-0.000
854.82	-0.000
855.00	-0.000
855.17	-0.000
855.34	-0.000
855.51	-0.000
855.68	-0.000
855.86	-0.000
856.03	-0.000
856.20	-0.000
856.37	-0.000
856.54	-0.000
856.72	-0.000
856.89	-0.000
857.06	-0.000
857.23	-0.000
857.40	-0.000
857.57	-0.000
857.75	-0.000
857.92	-0.000
858.09	-0.000
858.26	-0.000
858.43	-0.000
858.60	-0.000
858.78	-0.000
858.95	-0.000
859.12	-0.000
859.29	-0.000
859.46	-0.000
859.63	-0.000
859.81	-0.000
859.98	-0.000
860.15	-0.000
860.32	-0.000
860.49	-0.000
860.66	-0.000
860.83	-0.000
861.01	-0.000
861.18	-0.000
861.35	-0.000
861.52	-0.000
861.69	-0.000
861.86	-0.000
862.03	-0.000
862.21	-0.000
862.38	-0.000
862.55	-0.000
862.72	-0.000
862.89	-0.000
863.06	-0.000
863.23	-0.000
863.40	-0.000
863.58	-0.000
863.75	-0.000
863.92	-0.000
864.09	-0.000
864.26	-0.000
864.43	-0.000
864.60	-0.000
864.77	-0.000
864.94	-0.000
865.11	-0.000
865.29	-0.000
865.46	-0.000
865.63	-0.000
865.80	-0.000
865.97	-0.000
866.14	-0.000
866.31	-0.000
866.48	-0.000
866.65	-0.000
866.82	-0.000
866.99	-0.000
867.16	-0.000
867.34	-0.000
867.51	-0.000
867.68	-0.000
867.85	-0.000
868.02	-0.000
868.19	-0.000
868.36	-0.000
868.53	-0.000
868.70	-0.000
868.87	-0.000
869.04	-0.000
869.21	-0.000
869.38	-0.000
869.55	-0.000
869.72	-0.000
869.89	-0.000
870.06	-0.000
870.24	-0.000
870.41	-0.000
870.58	-0.000
870.75	-0.000
870.92	-0.000
871.09	-0.000
871.26	-0.000
871.43	-0.000
871.60	-0.000
871.77	-0.000
871.94	-0.000
872.11	-0.000
872.28	-0.000
872.45	-0.000
872.62	-0.000
872.79	-0.000
872.96	-0.000
873.13	-0.000
873.30	-0.000
873.47	-0.000
873.64	-0.000
873.81	-0.000
873.98	-0.000
874.15	-0.000
874.32	-0.000
874.49	-0.000
874.66	-0.000
874.83	-0.000
875.00	-0.000
875.17	-0.000
875.34	-0.000
875.51	-0.000
875.68	-0.000
875.85	-0.000
876.02	-0.000
876.19	-0.000
876.36	-0.000
876.53	-0.000
876.70	-0.000
876.87	-0.000
877.04	-0.000
877.21	-0.000
877.38	-0.000
877.55	-0.000
877.72	-0.000
877.89	-0.000
878.06	-0.000
878.23	-0.000
878.39	-0.000
878.56	-0.000
878.73	-0.000
878.90	-0.000
879.07	-0.000
879.24	-0.000
879.41	-0.000
879.58	-0.000
879.75	-0.000
879.92	-0.000
880.09	-0.000
880.26	-0.000
880.43	-0.000
880.60	-0.000
880.77	-0.000
880.94	-0.000
881.11	-0.000
881.27	-0.000
881.44	-0.000
881.61	-0.000
881.78	-0.000
881.95	-0.000
882.12	-0.000
882.29	-0.000
882.46	-0.000
882.63	-0.000
882.80	-0.000
882.97	-0.000
883.14	-0.000
883.30	-0.000
883.47	-0.000
883.64	-0.000
883.81	-0.000
883.98	-0.000
884.15	-0.000
884.32	-0.000
884.49	-0.000
884.66	-0.000
884.82	-0.000
884.99	-0.000
885.16	-0.000
885.33	-0.000
885.50	-0.000
885.67	-0.000
885.84	-0.000
886.01	-0.000
886.17	-0.000
886.34	-0.000
886.51	-0.000
886.68	-0.000
886.85	-0.000
887.02	-0.000
887.19	-0.000
887.36	-0.000
887.52	-0.000
887.69	-0.000
887.86	-0.000
888.03	-0.000
888.20	-0.000
888.37	-0.000
888.54	-0.000
888.70	-0.000
888.87	-0.000
889.04	-0.000
889.21	-0.000
889.38	-0.000
889.55	-0.000
889.71	-0.000
889.88	-0.000
890.05	-0.000
890.22	-0.000
890.39	-0.000
>>>>>End Processed Spectral Data<<<<<
