SpectraSuite Data File
++++++++++++++++++++++++++++++++++++
Date: Fri Jun 19 14:31:09 CEST 2015
User: introlabs
Dark Spectrum Present: Yes
Reference Spectrum Present: Yes
Number of Sampled Component Spectra: 1
Spectrometers: USB4H08886
Integration Time (usec): 745692 (USB4H08886)
Spectra Averaged: 5 (USB4H08886)
Boxcar Smoothing: 5 (USB4H08886)
Correct for Electrical Dark: Yes (USB4H08886)
Strobe/Lamp Enabled: No (USB4H08886)
Correct for Detector Non-linearity: Yes (USB4H08886)
Correct for Stray Light: Yes (USB4H08886)
Number of Pixels in Processed Spectrum: 3648
>>>>>Begin Processed Spectral Data<<<<<
178.14	-0.000
178.36	-0.000
178.57	-0.000
178.79	-0.000
179.01	-0.000
179.22	-0.000
179.44	-0.000
179.65	-0.000
179.87	-0.000
180.08	-0.000
180.30	-0.000
180.52	-0.000
180.73	-0.000
180.95	-0.000
181.16	-0.000
181.38	-0.000
181.59	-0.000
181.81	-0.000
182.03	-0.000
182.24	-0.000
182.46	-0.000
182.67	-0.000
182.89	-0.000
183.10	-0.000
183.32	-0.000
183.54	-0.000
183.75	-0.000
183.97	-0.000
184.18	-0.000
184.40	-0.000
184.61	-0.000
184.83	-0.000
185.04	-0.000
185.26	-0.000
185.48	-0.000
185.69	-0.000
185.91	-0.000
186.12	-0.000
186.34	-0.000
186.55	-0.000
186.77	-0.000
186.98	-0.000
187.20	-0.000
187.42	-0.000
187.63	-0.000
187.85	-0.000
188.06	-0.000
188.28	-0.000
188.49	-0.000
188.71	-0.000
188.92	-0.000
189.14	-0.000
189.36	-0.000
189.57	-0.000
189.79	-0.000
190.00	-0.000
190.22	-0.000
190.43	-0.000
190.65	-0.000
190.86	-0.000
191.08	-0.000
191.29	-0.000
191.51	-0.000
191.72	-0.000
191.94	-0.000
192.16	-0.000
192.37	-0.000
192.59	-0.000
192.80	-0.000
193.02	-0.000
193.23	-0.000
193.45	-0.000
193.66	-0.000
193.88	-0.000
194.09	-0.000
194.31	-0.000
194.52	-0.000
194.74	-0.000
194.95	-0.000
195.17	-0.000
195.38	-0.000
195.60	-0.000
195.81	-0.000
196.03	-0.000
196.25	-0.000
196.46	-0.000
196.68	-0.000
196.89	-0.000
197.11	-0.000
197.32	-0.000
197.54	-0.000
197.75	-0.000
197.97	-0.000
198.18	-0.000
198.40	-0.000
198.61	-0.000
198.83	-0.000
199.04	-0.000
199.26	-0.000
199.47	-0.000
199.69	-0.000
199.90	-0.000
200.12	-0.000
200.33	-0.000
200.55	-0.000
200.76	-0.000
200.98	-0.000
201.19	-0.000
201.41	-0.000
201.62	-0.000
201.84	-0.000
202.05	-0.000
202.27	-0.000
202.48	-0.000
202.70	-0.000
202.91	-0.000
203.13	-0.000
203.34	-0.000
203.56	-0.000
203.77	-0.000
203.99	-0.000
204.20	-0.000
204.42	-0.000
204.63	-0.000
204.85	-0.000
205.06	-0.000
205.28	-0.000
205.49	-0.000
205.71	-0.000
205.92	-0.000
206.14	-0.000
206.35	-0.000
206.56	-0.000
206.78	-0.000
206.99	-0.000
207.21	-0.000
207.42	-0.000
207.64	-0.000
207.85	-0.000
208.07	-0.000
208.28	-0.000
208.50	-0.000
208.71	-0.000
208.93	-0.000
209.14	-0.000
209.36	-0.000
209.57	-0.000
209.79	-0.000
210.00	-0.000
210.22	-0.000
210.43	-0.000
210.64	-0.000
210.86	-0.000
211.07	-0.000
211.29	-0.000
211.50	-0.000
211.72	-0.000
211.93	-0.000
212.15	-0.000
212.36	-0.000
212.58	-0.000
212.79	-0.000
213.01	-0.000
213.22	-0.000
213.43	-0.000
213.65	-0.000
213.86	-0.000
214.08	-0.000
214.29	-0.000
214.51	-0.000
214.72	-0.000
214.94	-0.000
215.15	-0.000
215.36	-0.000
215.58	-0.000
215.79	-0.000
216.01	-0.000
216.22	-0.000
216.44	-0.000
216.65	-0.000
216.87	-0.000
217.08	-0.000
217.29	-0.000
217.51	-0.000
217.72	-0.000
217.94	-0.000
218.15	-0.000
218.37	-0.000
218.58	-0.000
218.80	-0.000
219.01	-0.000
219.22	-0.000
219.44	-0.000
219.65	-0.000
219.87	-0.000
220.08	-0.000
220.30	-0.000
220.51	-0.000
220.72	-0.000
220.94	-0.000
221.15	-0.000
221.37	-0.000
221.58	-0.000
221.79	-0.000
222.01	-0.000
222.22	-0.000
222.44	-0.000
222.65	-0.000
222.87	-0.000
223.08	-0.000
223.29	-0.000
223.51	-0.000
223.72	-0.000
223.94	-0.000
224.15	-0.000
224.36	-0.000
224.58	-0.000
224.79	-0.000
225.01	-0.000
225.22	-0.000
225.44	-0.000
225.65	-0.000
225.86	-0.000
226.08	-0.000
226.29	-0.000
226.51	-0.000
226.72	-0.000
226.93	-0.000
227.15	-0.000
227.36	-0.000
227.58	-0.000
227.79	-0.000
228.00	-0.000
228.22	-0.000
228.43	-0.000
228.65	-0.000
228.86	-0.000
229.07	-0.000
229.29	-0.000
229.50	-0.000
229.72	-0.000
229.93	-0.000
230.14	-0.000
230.36	-0.000
230.57	-0.000
230.78	-0.000
231.00	-0.000
231.21	-0.000
231.43	-0.000
231.64	-0.000
231.85	-0.000
232.07	-0.000
232.28	-0.000
232.50	-0.000
232.71	-0.000
232.92	-0.000
233.14	-0.000
233.35	-0.000
233.56	-0.000
233.78	-0.000
233.99	-0.000
234.21	-0.000
234.42	-0.000
234.63	-0.000
234.85	-0.000
235.06	-0.000
235.27	-0.000
235.49	-0.000
235.70	-0.000
235.91	-0.000
236.13	-0.000
236.34	-0.000
236.56	-0.000
236.77	-0.000
236.98	-0.000
237.20	-0.000
237.41	-0.000
237.62	-0.000
237.84	-0.000
238.05	-0.000
238.26	-0.000
238.48	-0.000
238.69	-0.000
238.91	-0.000
239.12	-0.000
239.33	-0.000
239.55	-0.000
239.76	-0.000
239.97	-0.000
240.19	-0.000
240.40	-0.000
240.61	-0.000
240.83	-0.000
241.04	-0.000
241.25	-0.000
241.47	-0.000
241.68	-0.000
241.89	-0.000
242.11	-0.000
242.32	-0.000
242.53	-0.000
242.75	-0.000
242.96	-0.000
243.17	-0.000
243.39	-0.000
243.60	-0.000
243.81	-0.000
244.03	-0.000
244.24	-0.000
244.45	-0.000
244.67	-0.000
244.88	-0.000
245.09	-0.000
245.31	-0.000
245.52	-0.000
245.73	-0.000
245.95	-0.000
246.16	-0.000
246.37	-0.000
246.59	-0.000
246.80	-0.000
247.01	-0.000
247.23	-0.000
247.44	-0.000
247.65	-0.000
247.87	-0.000
248.08	-0.000
248.29	-0.000
248.51	-0.000
248.72	-0.000
248.93	-0.000
249.15	-0.000
249.36	-0.000
249.57	-0.000
249.78	-0.000
250.00	-0.000
250.21	-0.000
250.42	-0.000
250.64	-0.000
250.85	-0.000
251.06	-0.000
251.28	-0.000
251.49	-0.000
251.70	-0.000
251.92	-0.000
252.13	-0.000
252.34	-0.000
252.55	-0.000
252.77	-0.000
252.98	-0.000
253.19	-0.000
253.41	-0.000
253.62	-0.000
253.83	-0.000
254.05	-0.000
254.26	-0.000
254.47	-0.000
254.68	-0.000
254.90	-0.000
255.11	-0.000
255.32	-0.000
255.54	-0.000
255.75	-0.000
255.96	-0.000
256.17	-0.000
256.39	-0.000
256.60	-0.000
256.81	-0.000
257.03	-0.000
257.24	-0.000
257.45	-0.000
257.66	-0.000
257.88	-0.000
258.09	-0.000
258.30	-0.000
258.51	-0.000
258.73	-0.000
258.94	-0.000
259.15	-0.000
259.37	-0.000
259.58	-0.000
259.79	-0.000
260.00	-0.000
260.22	-0.000
260.43	-0.000
260.64	-0.000
260.85	-0.000
261.07	-0.000
261.28	-0.000
261.49	-0.000
261.71	-0.000
261.92	-0.000
262.13	-0.000
262.34	-0.000
262.56	-0.000
262.77	-0.000
262.98	-0.000
263.19	-0.000
263.41	-0.000
263.62	-0.000
263.83	-0.000
264.04	-0.000
264.26	-0.000
264.47	-0.000
264.68	-0.000
264.89	-0.000
265.11	-0.000
265.32	-0.000
265.53	-0.000
265.74	-0.000
265.96	-0.000
266.17	-0.000
266.38	-0.000
266.59	-0.000
266.81	-0.000
267.02	-0.000
267.23	-0.000
267.44	-0.000
267.65	-0.000
267.87	-0.000
268.08	-0.000
268.29	-0.000
268.50	-0.000
268.72	-0.000
268.93	-0.000
269.14	-0.000
269.35	-0.000
269.57	-0.000
269.78	-0.000
269.99	-0.000
270.20	-0.000
270.41	-0.000
270.63	-0.000
270.84	-0.000
271.05	-0.000
271.26	-0.000
271.48	-0.000
271.69	-0.000
271.90	-0.000
272.11	-0.000
272.32	-0.000
272.54	-0.000
272.75	-0.000
272.96	-0.000
273.17	-0.000
273.39	-0.000
273.60	-0.000
273.81	-0.000
274.02	-0.000
274.23	-0.000
274.45	-0.000
274.66	-0.000
274.87	-0.000
275.08	-0.000
275.29	-0.000
275.51	-0.000
275.72	-0.000
275.93	-0.000
276.14	-0.000
276.35	-0.000
276.57	-0.000
276.78	-0.000
276.99	-0.000
277.20	-0.000
277.41	-0.000
277.63	-0.000
277.84	-0.000
278.05	-0.000
278.26	-0.000
278.47	-0.000
278.69	-0.000
278.90	-0.000
279.11	-0.000
279.32	-0.000
279.53	-0.000
279.74	-0.000
279.96	-0.000
280.17	-0.000
280.38	-0.000
280.59	-0.000
280.80	-0.000
281.02	-0.000
281.23	-0.000
281.44	-0.000
281.65	-0.000
281.86	-0.000
282.07	-0.000
282.29	-0.000
282.50	-0.000
282.71	-0.000
282.92	-0.000
283.13	-0.000
283.35	-0.000
283.56	-0.000
283.77	-0.000
283.98	-0.000
284.19	-0.000
284.40	-0.000
284.62	-0.000
284.83	-0.000
285.04	-0.000
285.25	-0.000
285.46	-0.000
285.67	-0.000
285.88	-0.000
286.10	-0.000
286.31	-0.000
286.52	-0.000
286.73	-0.000
286.94	-0.000
287.15	-0.000
287.37	-0.000
287.58	-0.000
287.79	-0.000
288.00	-0.000
288.21	-0.000
288.42	-0.000
288.63	-0.000
288.85	-0.000
289.06	-0.000
289.27	-0.000
289.48	-0.000
289.69	-0.000
289.90	-0.000
290.11	-0.000
290.33	-0.000
290.54	-0.000
290.75	-0.000
290.96	-0.000
291.17	-0.000
291.38	-0.000
291.59	-0.000
291.81	-0.000
292.02	-0.000
292.23	-0.000
292.44	-0.000
292.65	-0.000
292.86	-0.000
293.07	-0.000
293.28	-0.000
293.50	-0.000
293.71	-0.000
293.92	-0.000
294.13	-0.000
294.34	-0.000
294.55	-0.000
294.76	-0.000
294.97	-0.000
295.19	-0.000
295.40	-0.000
295.61	-0.000
295.82	-0.000
296.03	-0.000
296.24	-0.000
296.45	2.427
296.66	1.859
296.87	1.892
297.09	1.979
297.30	2.300
297.51	1.782
297.72	1.724
297.93	1.835
298.14	1.790
298.35	1.738
298.56	1.711
298.77	1.866
298.99	1.836
299.20	1.805
299.41	1.790
299.62	1.729
299.83	1.716
300.04	1.649
300.25	1.640
300.46	1.684
300.67	1.653
300.88	1.593
301.10	1.595
301.31	1.686
301.52	1.616
301.73	1.550
301.94	1.557
302.15	1.581
302.36	1.529
302.57	1.455
302.78	1.466
302.99	1.516
303.20	1.535
303.41	1.432
303.63	1.413
303.84	1.419
304.05	1.415
304.26	1.348
304.47	1.354
304.68	1.356
304.89	1.346
305.10	1.305
305.31	1.289
305.52	1.335
305.73	1.331
305.94	1.288
306.15	1.279
306.37	1.301
306.58	1.310
306.79	1.278
307.00	1.299
307.21	1.341
307.42	1.332
307.63	1.296
307.84	1.259
308.05	1.294
308.26	1.293
308.47	1.271
308.68	1.269
308.89	1.272
309.10	1.268
309.31	1.227
309.52	1.217
309.73	1.229
309.95	1.221
310.16	1.193
310.37	1.184
310.58	1.202
310.79	1.203
311.00	1.198
311.21	1.198
311.42	1.201
311.63	1.199
311.84	1.179
312.05	1.179
312.26	1.206
312.47	1.220
312.68	1.195
312.89	1.179
313.10	1.182
313.31	1.152
313.52	1.153
313.73	1.154
313.94	1.155
314.15	1.139
314.36	1.118
314.57	1.110
314.78	1.095
314.99	1.089
315.21	1.077
315.42	1.082
315.63	1.097
315.84	1.075
316.05	1.061
316.26	1.070
316.47	1.087
316.68	1.085
316.89	1.065
317.10	1.087
317.31	1.093
317.52	1.095
317.73	1.072
317.94	1.071
318.15	1.115
318.36	1.111
318.57	1.093
318.78	1.083
318.99	1.116
319.20	1.114
319.41	1.078
319.62	1.082
319.83	1.095
320.04	1.092
320.25	1.079
320.46	1.044
320.67	1.048
320.88	1.044
321.09	1.029
321.30	1.015
321.51	1.031
321.72	1.028
321.93	1.010
322.14	1.002
322.35	1.029
322.56	1.031
322.77	1.017
322.98	1.027
323.19	1.036
323.40	1.042
323.61	1.020
323.82	1.014
324.03	1.020
324.24	1.018
324.45	1.005
324.66	0.984
324.87	0.980
325.08	0.981
325.29	0.963
325.50	0.955
325.71	0.959
325.92	0.968
326.13	0.955
326.34	0.957
326.55	0.966
326.76	0.965
326.97	0.956
327.18	0.950
327.39	0.976
327.60	0.978
327.80	0.979
328.01	0.979
328.22	0.979
328.43	0.981
328.64	0.968
328.85	0.970
329.06	0.972
329.27	0.969
329.48	0.964
329.69	0.944
329.90	0.954
330.11	0.947
330.32	0.939
330.53	0.932
330.74	0.932
330.95	0.931
331.16	0.917
331.37	0.927
331.58	0.928
331.79	0.928
332.00	0.920
332.21	0.913
332.42	0.919
332.63	0.910
332.83	0.905
333.04	0.907
333.25	0.918
333.46	0.917
333.67	0.901
333.88	0.903
334.09	0.913
334.30	0.910
334.51	0.901
334.72	0.895
334.93	0.898
335.14	0.897
335.35	0.891
335.56	0.888
335.77	0.897
335.98	0.895
336.18	0.889
336.39	0.882
336.60	0.886
336.81	0.884
337.02	0.883
337.23	0.889
337.44	0.892
337.65	0.893
337.86	0.882
338.07	0.877
338.28	0.881
338.49	0.880
338.70	0.873
338.91	0.879
339.11	0.885
339.32	0.881
339.53	0.869
339.74	0.866
339.95	0.862
340.16	0.861
340.37	0.852
340.58	0.851
340.79	0.855
341.00	0.854
341.21	0.843
341.41	0.844
341.62	0.846
341.83	0.847
342.04	0.842
342.25	0.852
342.46	0.855
342.67	0.854
342.88	0.847
343.09	0.846
343.30	0.854
343.50	0.856
343.71	0.846
343.92	0.844
344.13	0.848
344.34	0.848
344.55	0.833
344.76	0.832
344.97	0.837
345.18	0.837
345.38	0.834
345.59	0.827
345.80	0.827
346.01	0.827
346.22	0.822
346.43	0.816
346.64	0.824
346.85	0.824
347.06	0.817
347.26	0.816
347.47	0.820
347.68	0.815
347.89	0.812
348.10	0.807
348.31	0.812
348.52	0.812
348.73	0.811
348.93	0.808
349.14	0.810
349.35	0.809
349.56	0.803
349.77	0.798
349.98	0.804
350.19	0.802
350.39	0.797
350.60	0.793
350.81	0.809
351.02	0.808
351.23	0.802
351.44	0.804
351.65	0.808
351.86	0.806
352.06	0.805
352.27	0.805
352.48	0.805
352.69	0.804
352.90	0.799
353.11	0.784
353.31	0.791
353.52	0.787
353.73	0.780
353.94	0.781
354.15	0.788
354.36	0.787
354.57	0.779
354.77	0.782
354.98	0.781
355.19	0.781
355.40	0.781
355.61	0.786
355.82	0.791
356.02	0.790
356.23	0.782
356.44	0.784
356.65	0.787
356.86	0.787
357.07	0.781
357.27	0.784
357.48	0.787
357.69	0.782
357.90	0.767
358.11	0.763
358.32	0.767
358.52	0.770
358.73	0.760
358.94	0.763
359.15	0.767
359.36	0.768
359.56	0.763
359.77	0.760
359.98	0.767
360.19	0.766
360.40	0.763
360.61	0.763
360.81	0.762
361.02	0.763
361.23	0.755
361.44	0.753
361.65	0.754
361.85	0.754
362.06	0.752
362.27	0.753
362.48	0.754
362.69	0.756
362.89	0.750
363.10	0.751
363.31	0.755
363.52	0.758
363.73	0.753
363.93	0.753
364.14	0.755
364.35	0.756
364.56	0.746
364.77	0.747
364.97	0.750
365.18	0.751
365.39	0.746
365.60	0.743
365.81	0.745
366.01	0.744
366.22	0.742
366.43	0.740
366.64	0.743
366.84	0.748
367.05	0.745
367.26	0.744
367.47	0.745
367.68	0.745
367.88	0.742
368.09	0.739
368.30	0.741
368.51	0.740
368.71	0.739
368.92	0.743
369.13	0.742
369.34	0.741
369.55	0.740
369.75	0.741
369.96	0.748
370.17	0.748
370.38	0.744
370.58	0.744
370.79	0.750
371.00	0.748
371.21	0.740
371.41	0.746
371.62	0.749
371.83	0.745
372.04	0.742
372.24	0.736
372.45	0.736
372.66	0.737
372.87	0.734
373.07	0.731
373.28	0.732
373.49	0.736
373.70	0.726
373.90	0.725
374.11	0.734
374.32	0.733
374.53	0.732
374.73	0.732
374.94	0.735
375.15	0.735
375.36	0.732
375.56	0.741
375.77	0.740
375.98	0.741
376.19	0.738
376.39	0.732
376.60	0.736
376.81	0.736
377.02	0.735
377.22	0.734
377.43	0.734
377.64	0.733
377.84	0.724
378.05	0.729
378.26	0.735
378.47	0.735
378.67	0.732
378.88	0.729
379.09	0.730
379.30	0.730
379.50	0.727
379.71	0.729
379.92	0.733
380.12	0.732
380.33	0.724
380.54	0.719
380.75	0.726
380.95	0.726
381.16	0.724
381.37	0.724
381.57	0.726
381.78	0.727
381.99	0.727
382.20	0.725
382.40	0.728
382.61	0.729
382.82	0.726
383.02	0.719
383.23	0.722
383.44	0.722
383.64	0.720
383.85	0.722
384.06	0.724
384.27	0.722
384.47	0.720
384.68	0.721
384.89	0.726
385.09	0.726
385.30	0.725
385.51	0.724
385.71	0.727
385.92	0.728
386.13	0.726
386.33	0.727
386.54	0.728
386.75	0.726
386.95	0.722
387.16	0.717
387.37	0.720
387.58	0.720
387.78	0.718
387.99	0.716
388.20	0.718
388.40	0.716
388.61	0.712
388.82	0.715
389.02	0.718
389.23	0.719
389.44	0.717
389.64	0.717
389.85	0.729
390.06	0.729
390.26	0.729
390.47	0.728
390.68	0.730
390.88	0.729
391.09	0.725
391.30	0.724
391.50	0.724
391.71	0.725
391.92	0.722
392.12	0.714
392.33	0.714
392.53	0.714
392.74	0.715
392.95	0.715
393.15	0.717
393.36	0.719
393.57	0.717
393.77	0.720
393.98	0.722
394.19	0.722
394.39	0.720
394.60	0.723
394.81	0.725
395.01	0.723
395.22	0.721
395.43	0.722
395.63	0.727
395.84	0.728
396.04	0.724
396.25	0.725
396.46	0.727
396.66	0.726
396.87	0.723
397.08	0.720
397.28	0.722
397.49	0.723
397.69	0.719
397.90	0.714
398.11	0.715
398.31	0.715
398.52	0.711
398.73	0.712
398.93	0.711
399.14	0.710
399.34	0.709
399.55	0.711
399.76	0.710
399.96	0.711
400.17	0.709
400.37	0.708
400.58	0.714
400.79	0.716
400.99	0.714
401.20	0.720
401.41	0.722
401.61	0.723
401.82	0.728
402.02	0.729
402.23	0.730
402.44	0.730
402.64	0.729
402.85	0.723
403.05	0.722
403.26	0.722
403.47	0.716
403.67	0.715
403.88	0.716
404.08	0.709
404.29	0.707
404.50	0.707
404.70	0.707
404.91	0.707
405.11	0.704
405.32	0.704
405.52	0.704
405.73	0.704
405.94	0.702
406.14	0.704
406.35	0.707
406.55	0.707
406.76	0.704
406.97	0.705
407.17	0.708
407.38	0.708
407.58	0.707
407.79	0.709
407.99	0.712
408.20	0.713
408.41	0.708
408.61	0.706
408.82	0.707
409.02	0.708
409.23	0.706
409.43	0.704
409.64	0.705
409.84	0.705
410.05	0.701
410.26	0.700
410.46	0.700
410.67	0.699
410.87	0.701
411.08	0.702
411.28	0.704
411.49	0.705
411.69	0.702
411.90	0.704
412.11	0.706
412.31	0.707
412.52	0.705
412.72	0.706
412.93	0.707
413.13	0.706
413.34	0.702
413.54	0.703
413.75	0.705
413.95	0.704
414.16	0.701
414.37	0.703
414.57	0.703
414.78	0.706
414.98	0.704
415.19	0.705
415.39	0.703
415.60	0.705
415.80	0.705
416.01	0.703
416.21	0.705
416.42	0.706
416.62	0.701
416.83	0.701
417.03	0.701
417.24	0.700
417.44	0.698
417.65	0.697
417.86	0.698
418.06	0.695
418.27	0.694
418.47	0.695
418.68	0.695
418.88	0.696
419.09	0.694
419.29	0.694
419.50	0.695
419.70	0.695
419.91	0.694
420.11	0.691
420.32	0.693
420.52	0.693
420.73	0.692
420.93	0.693
421.14	0.694
421.34	0.693
421.55	0.690
421.75	0.689
421.96	0.690
422.16	0.691
422.37	0.689
422.57	0.687
422.78	0.688
422.98	0.685
423.19	0.682
423.39	0.681
423.60	0.684
423.80	0.685
424.01	0.684
424.21	0.687
424.42	0.688
424.62	0.688
424.83	0.687
425.03	0.687
425.23	0.690
425.44	0.690
425.64	0.690
425.85	0.689
426.05	0.690
426.26	0.690
426.46	0.687
426.67	0.686
426.87	0.691
427.08	0.691
427.28	0.688
427.49	0.689
427.69	0.690
427.90	0.689
428.10	0.686
428.31	0.686
428.51	0.688
428.71	0.687
428.92	0.688
429.12	0.685
429.33	0.686
429.53	0.691
429.74	0.695
429.94	0.695
430.15	0.695
430.35	0.695
430.56	0.692
430.76	0.690
430.96	0.691
431.17	0.688
431.37	0.685
431.58	0.683
431.78	0.679
431.99	0.672
432.19	0.674
432.40	0.676
432.60	0.676
432.80	0.679
433.01	0.677
433.21	0.677
433.42	0.679
433.62	0.679
433.83	0.679
434.03	0.682
434.23	0.685
434.44	0.684
434.64	0.682
434.85	0.687
435.05	0.687
435.26	0.688
435.46	0.686
435.66	0.686
435.87	0.686
436.07	0.686
436.28	0.682
436.48	0.678
436.69	0.678
436.89	0.678
437.09	0.671
437.30	0.671
437.50	0.671
437.71	0.683
437.91	0.682
438.11	0.683
438.32	0.688
438.52	0.688
438.73	0.687
438.93	0.686
439.13	0.685
439.34	0.689
439.54	0.686
439.75	0.686
439.95	0.676
440.15	0.681
440.36	0.679
440.56	0.676
440.77	0.677
440.97	0.678
441.17	0.677
441.38	0.678
441.58	0.675
441.79	0.675
441.99	0.673
442.19	0.672
442.40	0.669
442.60	0.669
442.81	0.667
443.01	0.667
443.21	0.667
443.42	0.666
443.62	0.664
443.82	0.665
444.03	0.667
444.23	0.667
444.44	0.667
444.64	0.666
444.84	0.668
445.05	0.667
445.25	0.665
445.45	0.665
445.66	0.668
445.86	0.667
446.06	0.668
446.27	0.667
446.47	0.669
446.68	0.668
446.88	0.667
447.08	0.666
447.29	0.669
447.49	0.669
447.69	0.669
447.90	0.668
448.10	0.671
448.30	0.668
448.51	0.669
448.71	0.667
448.91	0.670
449.12	0.668
449.32	0.670
449.52	0.668
449.73	0.671
449.93	0.670
450.14	0.671
450.34	0.670
450.54	0.673
450.75	0.670
450.95	0.670
451.15	0.669
451.36	0.671
451.56	0.668
451.76	0.667
451.97	0.665
452.17	0.665
452.37	0.664
452.58	0.660
452.78	0.660
452.98	0.662
453.19	0.662
453.39	0.663
453.59	0.661
453.79	0.662
454.00	0.662
454.20	0.661
454.40	0.661
454.61	0.664
454.81	0.664
455.01	0.662
455.22	0.663
455.42	0.665
455.62	0.662
455.83	0.662
456.03	0.665
456.23	0.666
456.44	0.667
456.64	0.666
456.84	0.665
457.04	0.666
457.25	0.665
457.45	0.662
457.65	0.661
457.86	0.662
458.06	0.661
458.26	0.657
458.47	0.656
458.67	0.657
458.87	0.657
459.07	0.655
459.28	0.657
459.48	0.659
459.68	0.659
459.89	0.657
460.09	0.656
460.29	0.657
460.49	0.658
460.70	0.657
460.90	0.656
461.10	0.658
461.31	0.657
461.51	0.655
461.71	0.657
461.91	0.658
462.12	0.658
462.32	0.657
462.52	0.658
462.72	0.661
462.93	0.662
463.13	0.660
463.33	0.661
463.53	0.663
463.74	0.662
463.94	0.658
464.14	0.658
464.35	0.660
464.55	0.660
464.75	0.657
464.95	0.655
465.16	0.657
465.36	0.656
465.56	0.655
465.76	0.654
465.97	0.654
466.17	0.654
466.37	0.653
466.57	0.654
466.78	0.655
466.98	0.654
467.18	0.652
467.38	0.651
467.59	0.652
467.79	0.654
467.99	0.653
468.19	0.654
468.39	0.657
468.60	0.657
468.80	0.655
469.00	0.656
469.20	0.657
469.41	0.658
469.61	0.657
469.81	0.657
470.01	0.656
470.22	0.657
470.42	0.655
470.62	0.653
470.82	0.655
471.02	0.654
471.23	0.652
471.43	0.652
471.63	0.654
471.83	0.654
472.04	0.652
472.24	0.651
472.44	0.657
472.64	0.657
472.84	0.655
473.05	0.654
473.25	0.657
473.45	0.656
473.65	0.654
473.85	0.656
474.06	0.657
474.26	0.657
474.46	0.658
474.66	0.654
474.86	0.655
475.07	0.655
475.27	0.653
475.47	0.651
475.67	0.652
475.87	0.654
476.08	0.650
476.28	0.650
476.48	0.652
476.68	0.650
476.88	0.648
477.09	0.649
477.29	0.651
477.49	0.651
477.69	0.650
477.89	0.650
478.09	0.650
478.30	0.652
478.50	0.650
478.70	0.649
478.90	0.649
479.10	0.652
479.31	0.653
479.51	0.651
479.71	0.652
479.91	0.652
480.11	0.651
480.31	0.651
480.52	0.650
480.72	0.650
480.92	0.648
481.12	0.648
481.32	0.645
481.52	0.643
481.72	0.644
481.93	0.647
482.13	0.647
482.33	0.647
482.53	0.645
482.73	0.645
482.93	0.646
483.14	0.645
483.34	0.645
483.54	0.645
483.74	0.645
483.94	0.644
484.14	0.640
484.34	0.640
484.55	0.640
484.75	0.640
484.95	0.639
485.15	0.638
485.35	0.639
485.55	0.638
485.75	0.637
485.96	0.637
486.16	0.638
486.36	0.638
486.56	0.636
486.76	0.637
486.96	0.637
487.16	0.636
487.36	0.634
487.57	0.634
487.77	0.635
487.97	0.635
488.17	0.633
488.37	0.632
488.57	0.633
488.77	0.633
488.97	0.631
489.18	0.631
489.38	0.634
489.58	0.634
489.78	0.634
489.98	0.633
490.18	0.634
490.38	0.634
490.58	0.633
490.78	0.634
490.98	0.635
491.19	0.636
491.39	0.635
491.59	0.634
491.79	0.637
491.99	0.637
492.19	0.637
492.39	0.640
492.59	0.640
492.79	0.642
492.99	0.642
493.20	0.642
493.40	0.643
493.60	0.644
493.80	0.643
494.00	0.640
494.20	0.641
494.40	0.640
494.60	0.637
494.80	0.641
495.00	0.640
495.20	0.638
495.40	0.637
495.61	0.639
495.81	0.638
496.01	0.641
496.21	0.642
496.41	0.642
496.61	0.642
496.81	0.641
497.01	0.636
497.21	0.635
497.41	0.636
497.61	0.636
497.81	0.633
498.01	0.634
498.21	0.632
498.41	0.630
498.61	0.630
498.82	0.632
499.02	0.634
499.22	0.635
499.42	0.634
499.62	0.635
499.82	0.637
500.02	0.637
500.22	0.636
500.42	0.638
500.62	0.638
500.82	0.639
501.02	0.636
501.22	0.637
501.42	0.637
501.62	0.639
501.82	0.638
502.02	0.638
502.22	0.638
502.42	0.640
502.62	0.637
502.82	0.637
503.02	0.638
503.22	0.638
503.42	0.636
503.63	0.636
503.83	0.634
504.03	0.633
504.23	0.632
504.43	0.632
504.63	0.633
504.83	0.633
505.03	0.632
505.23	0.633
505.43	0.635
505.63	0.635
505.83	0.634
506.03	0.636
506.23	0.637
506.43	0.638
506.63	0.637
506.83	0.636
507.03	0.638
507.23	0.638
507.43	0.635
507.63	0.636
507.83	0.636
508.03	0.637
508.23	0.636
508.43	0.635
508.63	0.637
508.83	0.637
509.03	0.638
509.23	0.637
509.43	0.638
509.63	0.639
509.83	0.638
510.03	0.641
510.23	0.642
510.43	0.643
510.63	0.644
510.83	0.644
511.03	0.645
511.23	0.643
511.43	0.642
511.63	0.644
511.83	0.646
512.03	0.646
512.22	0.642
512.42	0.641
512.62	0.642
512.82	0.642
513.02	0.641
513.22	0.640
513.42	0.642
513.62	0.645
513.82	0.643
514.02	0.642
514.22	0.644
514.42	0.644
514.62	0.644
514.82	0.644
515.02	0.646
515.22	0.649
515.42	0.647
515.62	0.650
515.82	0.648
516.02	0.650
516.22	0.650
516.42	0.651
516.62	0.653
516.82	0.654
517.01	0.652
517.21	0.652
517.41	0.655
517.61	0.656
517.81	0.652
518.01	0.651
518.21	0.651
518.41	0.649
518.61	0.648
518.81	0.648
519.01	0.649
519.21	0.649
519.41	0.648
519.61	0.642
519.81	0.645
520.00	0.645
520.20	0.646
520.40	0.648
520.60	0.650
520.80	0.648
521.00	0.649
521.20	0.649
521.40	0.655
521.60	0.655
521.80	0.654
522.00	0.655
522.20	0.657
522.39	0.657
522.59	0.653
522.79	0.654
522.99	0.657
523.19	0.655
523.39	0.653
523.59	0.651
523.79	0.654
523.99	0.656
524.19	0.654
524.38	0.652
524.58	0.653
524.78	0.654
524.98	0.653
525.18	0.655
525.38	0.656
525.58	0.657
525.78	0.655
525.98	0.653
526.18	0.653
526.37	0.653
526.57	0.655
526.77	0.655
526.97	0.656
527.17	0.656
527.37	0.652
527.57	0.655
527.77	0.656
527.96	0.657
528.16	0.655
528.36	0.656
528.56	0.658
528.76	0.656
528.96	0.656
529.16	0.657
529.36	0.660
529.55	0.660
529.75	0.657
529.95	0.657
530.15	0.658
530.35	0.661
530.55	0.659
530.75	0.659
530.94	0.660
531.14	0.660
531.34	0.658
531.54	0.656
531.74	0.659
531.94	0.662
532.13	0.660
532.33	0.663
532.53	0.662
532.73	0.661
532.93	0.659
533.13	0.661
533.33	0.661
533.52	0.661
533.72	0.664
533.92	0.662
534.12	0.661
534.32	0.661
534.52	0.659
534.71	0.660
534.91	0.663
535.11	0.665
535.31	0.662
535.51	0.665
535.71	0.667
535.90	0.664
536.10	0.665
536.30	0.667
536.50	0.668
536.70	0.668
536.89	0.666
537.09	0.665
537.29	0.667
537.49	0.668
537.69	0.665
537.89	0.666
538.08	0.666
538.28	0.664
538.48	0.664
538.68	0.666
538.88	0.668
539.07	0.668
539.27	0.666
539.47	0.665
539.67	0.665
539.87	0.667
540.06	0.664
540.26	0.665
540.46	0.667
540.66	0.664
540.86	0.662
541.05	0.661
541.25	0.663
541.45	0.663
541.65	0.661
541.84	0.662
542.04	0.663
542.24	0.664
542.44	0.663
542.64	0.665
542.83	0.668
543.03	0.668
543.23	0.666
543.43	0.666
543.62	0.668
543.82	0.669
544.02	0.668
544.22	0.668
544.42	0.671
544.61	0.671
544.81	0.668
545.01	0.666
545.21	0.669
545.40	0.670
545.60	0.668
545.80	0.671
546.00	0.672
546.19	0.671
546.39	0.669
546.59	0.666
546.79	0.668
546.98	0.667
547.18	0.667
547.38	0.667
547.58	0.670
547.77	0.671
547.97	0.667
548.17	0.668
548.37	0.669
548.56	0.669
548.76	0.668
548.96	0.670
549.16	0.673
549.35	0.673
549.55	0.670
549.75	0.671
549.95	0.674
550.14	0.674
550.34	0.672
550.54	0.678
550.73	0.681
550.93	0.682
551.13	0.678
551.33	0.677
551.52	0.678
551.72	0.679
551.92	0.677
552.12	0.678
552.31	0.678
552.51	0.678
552.71	0.673
552.90	0.673
553.10	0.675
553.30	0.675
553.50	0.674
553.69	0.675
553.89	0.675
554.09	0.676
554.28	0.672
554.48	0.674
554.68	0.676
554.87	0.675
555.07	0.672
555.27	0.672
555.47	0.674
555.66	0.674
555.86	0.673
556.06	0.675
556.25	0.676
556.45	0.684
556.65	0.682
556.84	0.685
557.04	0.689
557.24	0.691
557.43	0.690
557.63	0.693
557.83	0.695
558.02	0.695
558.22	0.699
558.42	0.699
558.61	0.692
558.81	0.692
559.01	0.688
559.21	0.688
559.40	0.690
559.60	0.690
559.80	0.686
559.99	0.687
560.19	0.690
560.39	0.684
560.58	0.681
560.78	0.682
560.97	0.686
561.17	0.684
561.37	0.682
561.56	0.682
561.76	0.684
561.96	0.683
562.15	0.681
562.35	0.682
562.55	0.684
562.74	0.684
562.94	0.683
563.14	0.681
563.33	0.682
563.53	0.682
563.73	0.680
563.92	0.681
564.12	0.684
564.31	0.686
564.51	0.684
564.71	0.686
564.90	0.689
565.10	0.689
565.30	0.692
565.49	0.693
565.69	0.695
565.89	0.696
566.08	0.693
566.28	0.695
566.47	0.698
566.67	0.696
566.87	0.693
567.06	0.695
567.26	0.701
567.46	0.697
567.65	0.696
567.85	0.697
568.04	0.700
568.24	0.699
568.44	0.695
568.63	0.693
568.83	0.694
569.02	0.692
569.22	0.688
569.42	0.684
569.61	0.686
569.81	0.685
570.00	0.683
570.20	0.684
570.40	0.686
570.59	0.686
570.79	0.684
570.98	0.683
571.18	0.685
571.38	0.685
571.57	0.682
571.77	0.680
571.96	0.684
572.16	0.681
572.35	0.675
572.55	0.676
572.75	0.674
572.94	0.674
573.14	0.672
573.33	0.672
573.53	0.673
573.73	0.672
573.92	0.670
574.12	0.668
574.31	0.671
574.51	0.672
574.70	0.669
574.90	0.671
575.09	0.672
575.29	0.673
575.49	0.670
575.68	0.670
575.88	0.672
576.07	0.673
576.27	0.671
576.46	0.670
576.66	0.669
576.86	0.668
577.05	0.666
577.25	0.664
577.44	0.666
577.64	0.665
577.83	0.663
578.03	0.665
578.22	0.664
578.42	0.663
578.61	0.662
578.81	0.662
579.00	0.663
579.20	0.663
579.40	0.661
579.59	0.660
579.79	0.661
579.98	0.661
580.18	0.660
580.37	0.661
580.57	0.663
580.76	0.667
580.96	0.665
581.15	0.666
581.35	0.668
581.54	0.668
581.74	0.667
581.93	0.669
582.13	0.669
582.32	0.667
582.52	0.664
582.71	0.664
582.91	0.660
583.10	0.660
583.30	0.659
583.49	0.658
583.69	0.662
583.88	0.663
584.08	0.662
584.27	0.664
584.47	0.668
584.66	0.668
584.86	0.667
585.05	0.669
585.25	0.671
585.44	0.671
585.64	0.670
585.83	0.666
586.03	0.667
586.22	0.665
586.42	0.661
586.61	0.662
586.81	0.664
587.00	0.664
587.20	0.661
587.39	0.662
587.59	0.664
587.78	0.665
587.98	0.665
588.17	0.666
588.37	0.668
588.56	0.671
588.76	0.667
588.95	0.667
589.15	0.671
589.34	0.673
589.54	0.672
589.73	0.673
589.92	0.676
590.12	0.676
590.31	0.674
590.51	0.679
590.70	0.680
590.90	0.681
591.09	0.678
591.29	0.677
591.48	0.677
591.68	0.678
591.87	0.676
592.06	0.675
592.26	0.678
592.45	0.678
592.65	0.671
592.84	0.671
593.04	0.674
593.23	0.676
593.43	0.674
593.62	0.673
593.81	0.674
594.01	0.673
594.20	0.671
594.40	0.669
594.59	0.671
594.79	0.672
594.98	0.671
595.17	0.670
595.37	0.671
595.56	0.673
595.76	0.673
595.95	0.674
596.14	0.677
596.34	0.679
596.53	0.678
596.73	0.679
596.92	0.681
597.12	0.684
597.31	0.684
597.50	0.682
597.70	0.685
597.89	0.684
598.09	0.680
598.28	0.681
598.47	0.684
598.67	0.682
598.86	0.678
599.06	0.680
599.25	0.680
599.44	0.678
599.64	0.675
599.83	0.673
600.03	0.676
600.22	0.677
600.41	0.676
600.61	0.674
600.80	0.676
601.00	0.677
601.19	0.672
601.38	0.671
601.58	0.674
601.77	0.675
601.96	0.677
602.16	0.677
602.35	0.686
602.55	0.684
602.74	0.684
602.93	0.685
603.13	0.689
603.32	0.692
603.51	0.691
603.71	0.693
603.90	0.696
604.09	0.696
604.29	0.693
604.48	0.688
604.68	0.690
604.87	0.688
605.06	0.685
605.26	0.682
605.45	0.683
605.64	0.682
605.84	0.677
606.03	0.676
606.22	0.675
606.42	0.674
606.61	0.671
606.80	0.670
607.00	0.673
607.19	0.673
607.38	0.671
607.58	0.672
607.77	0.675
607.96	0.675
608.16	0.673
608.35	0.678
608.54	0.681
608.74	0.684
608.93	0.689
609.12	0.692
609.32	0.695
609.51	0.699
609.70	0.697
609.90	0.699
610.09	0.703
610.28	0.709
610.48	0.702
610.67	0.704
610.86	0.705
611.06	0.699
611.25	0.696
611.44	0.696
611.64	0.696
611.83	0.699
612.02	0.695
612.21	0.694
612.41	0.692
612.60	0.691
612.79	0.687
612.99	0.687
613.18	0.689
613.37	0.687
613.57	0.685
613.76	0.686
613.95	0.684
614.14	0.684
614.34	0.681
614.53	0.682
614.72	0.685
614.92	0.686
615.11	0.682
615.30	0.679
615.49	0.681
615.69	0.683
615.88	0.680
616.07	0.681
616.26	0.683
616.46	0.684
616.65	0.681
616.84	0.679
617.04	0.680
617.23	0.684
617.42	0.684
617.61	0.688
617.81	0.689
618.00	0.691
618.19	0.689
618.38	0.692
618.58	0.696
618.77	0.697
618.96	0.697
619.15	0.699
619.35	0.700
619.54	0.700
619.73	0.695
619.92	0.698
620.12	0.702
620.31	0.703
620.50	0.698
620.69	0.699
620.89	0.702
621.08	0.702
621.27	0.701
621.46	0.701
621.66	0.706
621.85	0.706
622.04	0.702
622.23	0.703
622.43	0.703
622.62	0.703
622.81	0.702
623.00	0.701
623.19	0.705
623.39	0.704
623.58	0.702
623.77	0.699
623.96	0.702
624.16	0.702
624.35	0.697
624.54	0.699
624.73	0.703
624.92	0.701
625.12	0.698
625.31	0.699
625.50	0.703
625.69	0.703
625.88	0.700
626.08	0.699
626.27	0.701
626.46	0.702
626.65	0.700
626.84	0.700
627.04	0.705
627.23	0.704
627.42	0.699
627.61	0.700
627.80	0.703
628.00	0.704
628.19	0.702
628.38	0.705
628.57	0.707
628.76	0.707
628.96	0.705
629.15	0.705
629.34	0.708
629.53	0.708
629.72	0.703
629.91	0.704
630.11	0.710
630.30	0.709
630.49	0.712
630.68	0.713
630.87	0.715
631.06	0.717
631.26	0.712
631.45	0.714
631.64	0.722
631.83	0.724
632.02	0.721
632.21	0.718
632.41	0.725
632.60	0.719
632.79	0.717
632.98	0.717
633.17	0.718
633.36	0.721
633.55	0.718
633.75	0.713
633.94	0.716
634.13	0.717
634.32	0.714
634.51	0.709
634.70	0.711
634.89	0.711
635.09	0.708
635.28	0.708
635.47	0.709
635.66	0.711
635.85	0.707
636.04	0.708
636.23	0.713
636.43	0.714
636.62	0.713
636.81	0.712
637.00	0.715
637.19	0.718
637.38	0.716
637.57	0.715
637.76	0.718
637.95	0.718
638.15	0.715
638.34	0.711
638.53	0.714
638.72	0.715
638.91	0.713
639.10	0.711
639.29	0.711
639.48	0.711
639.67	0.711
639.87	0.709
640.06	0.715
640.25	0.714
640.44	0.715
640.63	0.715
640.82	0.717
641.01	0.716
641.20	0.715
641.39	0.716
641.58	0.718
641.78	0.717
641.97	0.712
642.16	0.726
642.35	0.726
642.54	0.726
642.73	0.721
642.92	0.719
643.11	0.724
643.30	0.724
643.49	0.719
643.68	0.722
643.87	0.724
644.06	0.724
644.25	0.704
644.45	0.705
644.64	0.707
644.83	0.708
645.02	0.705
645.21	0.704
645.40	0.705
645.59	0.705
645.78	0.700
645.97	0.702
646.16	0.704
646.35	0.704
646.54	0.702
646.73	0.703
646.92	0.705
647.11	0.704
647.30	0.699
647.49	0.701
647.68	0.701
647.88	0.699
648.07	0.692
648.26	0.695
648.45	0.697
648.64	0.694
648.83	0.691
649.02	0.694
649.21	0.705
649.40	0.705
649.59	0.699
649.78	0.700
649.97	0.715
650.16	0.714
650.35	0.707
650.54	0.710
650.73	0.718
650.92	0.715
651.11	0.707
651.30	0.705
651.49	0.710
651.68	0.710
651.87	0.707
652.06	0.697
652.25	0.701
652.44	0.704
652.63	0.702
652.82	0.702
653.01	0.702
653.20	0.701
653.39	0.689
653.58	0.687
653.77	0.687
653.96	0.682
654.15	0.673
654.34	0.672
654.53	0.667
654.72	0.660
654.91	0.651
655.10	0.647
655.29	0.645
655.48	0.643
655.67	0.637
655.86	0.634
656.05	0.632
656.24	0.632
656.43	0.626
656.62	0.625
656.81	0.626
657.00	0.623
657.19	0.621
657.38	0.620
657.57	0.620
657.76	0.622
657.95	0.620
658.14	0.623
658.33	0.626
658.51	0.631
658.70	0.631
658.89	0.633
659.08	0.642
659.27	0.649
659.46	0.649
659.65	0.656
659.84	0.660
660.03	0.664
660.22	0.665
660.41	0.669
660.60	0.669
660.79	0.670
660.98	0.676
661.17	0.674
661.36	0.674
661.55	0.674
661.74	0.672
661.92	0.674
662.11	0.676
662.30	0.674
662.49	0.667
662.68	0.666
662.87	0.670
663.06	0.663
663.25	0.664
663.44	0.664
663.63	0.665
663.82	0.664
664.01	0.658
664.20	0.657
664.38	0.658
664.57	0.659
664.76	0.658
664.95	0.658
665.14	0.664
665.33	0.658
665.52	0.666
665.71	0.670
665.90	0.670
666.09	0.672
666.28	0.669
666.46	0.668
666.65	0.669
666.84	0.668
667.03	0.662
667.22	0.660
667.41	0.662
667.60	0.653
667.79	0.646
667.98	0.648
668.16	0.649
668.35	0.648
668.54	0.645
668.73	0.645
668.92	0.647
669.11	0.646
669.30	0.640
669.49	0.637
669.67	0.639
669.86	0.640
670.05	0.638
670.24	0.636
670.43	0.634
670.62	0.633
670.81	0.628
671.00	0.629
671.18	0.628
671.37	0.628
671.56	0.625
671.75	0.624
671.94	0.622
672.13	0.620
672.32	0.615
672.50	0.614
672.69	0.615
672.88	0.616
673.07	0.612
673.26	0.614
673.45	0.615
673.63	0.615
673.82	0.611
674.01	0.612
674.20	0.611
674.39	0.611
674.58	0.610
674.76	0.609
674.95	0.608
675.14	0.607
675.33	0.603
675.52	0.601
675.71	0.602
675.89	0.602
676.08	0.598
676.27	0.598
676.46	0.599
676.65	0.599
676.84	0.599
677.02	0.600
677.21	0.602
677.40	0.601
677.59	0.599
677.78	0.600
677.96	0.602
678.15	0.602
678.34	0.599
678.53	0.600
678.72	0.599
678.90	0.596
679.09	0.592
679.28	0.588
679.47	0.588
679.66	0.588
679.84	0.584
680.03	0.581
680.22	0.580
680.41	0.582
680.60	0.578
680.78	0.577
680.97	0.579
681.16	0.580
681.35	0.578
681.53	0.577
681.72	0.578
681.91	0.580
682.10	0.579
682.29	0.582
682.47	0.579
682.66	0.578
682.85	0.577
683.04	0.576
683.22	0.576
683.41	0.578
683.60	0.577
683.79	0.578
683.97	0.577
684.16	0.576
684.35	0.572
684.54	0.573
684.72	0.574
684.91	0.574
685.10	0.572
685.29	0.573
685.47	0.570
685.66	0.570
685.85	0.566
686.04	0.565
686.22	0.568
686.41	0.570
686.60	0.568
686.79	0.571
686.97	0.571
687.16	0.573
687.35	0.570
687.54	0.574
687.72	0.578
687.91	0.578
688.10	0.580
688.29	0.580
688.47	0.578
688.66	0.577
688.85	0.573
689.03	0.571
689.22	0.576
689.41	0.576
689.60	0.571
689.78	0.568
689.97	0.568
690.16	0.565
690.34	0.562
690.53	0.562
690.72	0.562
690.91	0.559
691.09	0.557
691.28	0.551
691.47	0.549
691.65	0.548
691.84	0.545
692.03	0.544
692.21	0.543
692.40	0.543
692.59	0.540
692.77	0.539
692.96	0.541
693.15	0.542
693.34	0.539
693.52	0.540
693.71	0.540
693.90	0.541
694.08	0.542
694.27	0.542
694.46	0.551
694.64	0.552
694.83	0.552
695.02	0.551
695.20	0.551
695.39	0.551
695.58	0.551
695.76	0.551
695.95	0.551
696.14	0.549
696.32	0.547
696.51	0.538
696.70	0.538
696.88	0.539
697.07	0.538
697.26	0.539
697.44	0.541
697.63	0.540
697.81	0.537
698.00	0.537
698.19	0.537
698.37	0.537
698.56	0.536
698.75	0.536
698.93	0.535
699.12	0.534
699.31	0.532
699.49	0.532
699.68	0.533
699.87	0.535
700.05	0.536
700.24	0.535
700.42	0.537
700.61	0.536
700.80	0.534
700.98	0.535
701.17	0.536
701.36	0.535
701.54	0.535
701.73	0.536
701.91	0.534
702.10	0.533
702.29	0.531
702.47	0.530
702.66	0.531
702.84	0.533
703.03	0.531
703.22	0.532
703.40	0.532
703.59	0.533
703.77	0.533
703.96	0.533
704.15	0.533
704.33	0.533
704.52	0.533
704.70	0.532
704.89	0.532
705.08	0.531
705.26	0.526
705.45	0.526
705.63	0.526
705.82	0.523
706.00	0.522
706.19	0.522
706.38	0.522
706.56	0.521
706.75	0.519
706.93	0.518
707.12	0.520
707.30	0.520
707.49	0.517
707.68	0.515
707.86	0.514
708.05	0.514
708.23	0.511
708.42	0.512
708.60	0.514
708.79	0.514
708.98	0.512
709.16	0.511
709.35	0.513
709.53	0.517
709.72	0.516
709.90	0.518
710.09	0.520
710.27	0.523
710.46	0.526
710.64	0.525
710.83	0.527
711.02	0.529
711.20	0.527
711.39	0.526
711.57	0.524
711.76	0.524
711.94	0.523
712.13	0.523
712.31	0.522
712.50	0.517
712.68	0.515
712.87	0.515
713.05	0.515
713.24	0.515
713.42	0.515
713.61	0.515
713.79	0.517
713.98	0.516
714.16	0.517
714.35	0.517
714.54	0.518
714.72	0.518
714.91	0.516
715.09	0.522
715.28	0.525
715.46	0.525
715.65	0.522
715.83	0.522
716.02	0.524
716.20	0.520
716.39	0.520
716.57	0.521
716.76	0.524
716.94	0.524
717.12	0.516
717.31	0.518
717.49	0.521
717.68	0.524
717.86	0.523
718.05	0.525
718.23	0.528
718.42	0.530
718.60	0.531
718.79	0.538
718.97	0.541
719.16	0.541
719.34	0.538
719.53	0.537
719.71	0.537
719.90	0.538
720.08	0.535
720.27	0.535
720.45	0.535
720.63	0.534
720.82	0.527
721.00	0.530
721.19	0.534
721.37	0.534
721.56	0.534
721.74	0.537
721.93	0.545
722.11	0.552
722.30	0.551
722.48	0.556
722.66	0.557
722.85	0.557
723.03	0.557
723.22	0.555
723.40	0.559
723.59	0.558
723.77	0.562
723.95	0.556
724.14	0.558
724.32	0.559
724.51	0.558
724.69	0.559
724.88	0.559
725.06	0.556
725.24	0.558
725.43	0.559
725.61	0.562
725.80	0.556
725.98	0.553
726.16	0.550
726.35	0.557
726.53	0.556
726.72	0.554
726.90	0.565
727.09	0.566
727.27	0.571
727.45	0.569
727.64	0.577
727.82	0.585
728.01	0.589
728.19	0.587
728.37	0.590
728.56	0.595
728.74	0.603
728.92	0.590
729.11	0.593
729.29	0.591
729.48	0.592
729.66	0.582
729.84	0.582
730.03	0.586
730.21	0.588
730.40	0.578
730.58	0.579
730.76	0.579
730.95	0.582
731.13	0.582
731.31	0.596
731.50	0.605
731.68	0.608
731.86	0.605
732.05	0.618
732.23	0.620
732.42	0.624
732.60	0.627
732.78	0.632
732.97	0.650
733.15	0.655
733.33	0.641
733.52	0.648
733.70	0.658
733.88	0.667
734.07	0.652
734.25	0.677
734.43	0.685
734.62	0.687
734.80	0.680
734.98	0.669
735.17	0.678
735.35	0.686
735.53	0.674
735.72	0.677
735.90	0.698
736.08	0.715
736.27	0.693
736.45	0.703
736.63	0.716
736.82	0.727
737.00	0.730
737.18	0.740
737.37	0.768
737.55	0.792
737.73	0.785
737.92	0.788
738.10	0.789
738.28	0.809
738.46	0.795
738.65	0.807
738.83	0.828
739.01	0.877
739.20	0.863
739.38	0.848
739.56	0.837
739.75	0.841
739.93	0.804
740.11	0.826
740.29	0.825
740.48	0.830
740.66	0.805
740.84	0.800
741.03	0.766
741.21	0.779
741.39	0.762
741.57	0.775
741.76	0.792
741.94	0.802
742.12	0.766
742.31	0.771
742.49	0.791
742.67	0.816
742.85	0.829
743.04	0.836
743.22	0.847
743.40	0.896
743.58	0.879
743.77	0.898
743.95	0.929
744.13	0.974
744.31	0.954
744.50	0.946
744.68	0.945
744.86	0.922
745.04	0.931
745.23	0.991
745.41	0.968
745.59	0.971
745.77	0.933
745.96	0.925
746.14	0.937
746.32	0.936
746.50	0.925
746.69	0.908
746.87	0.915
747.05	0.901
747.23	0.829
747.42	0.820
747.60	0.847
747.78	0.854
747.96	0.876
748.14	0.838
748.33	0.866
748.51	0.862
748.69	0.857
748.87	0.883
749.06	0.882
749.24	0.881
749.42	0.864
749.60	0.847
749.78	0.858
749.97	0.816
750.15	0.808
750.33	0.810
750.51	0.835
750.69	0.839
750.88	0.846
751.06	0.854
751.24	0.882
751.42	0.879
751.60	0.871
751.79	0.934
751.97	0.979
752.15	0.979
752.33	0.947
752.51	1.007
752.69	1.022
752.88	0.986
753.06	1.030
753.24	1.005
753.42	1.037
753.60	1.187
753.78	1.056
753.97	1.072
754.15	1.085
754.33	1.111
754.51	0.997
754.69	0.988
754.87	1.017
755.06	0.950
755.24	0.949
755.42	0.958
755.60	0.867
755.78	0.872
755.96	0.822
756.15	0.825
756.33	0.832
756.51	0.849
756.69	0.830
756.87	0.799
757.05	0.820
757.23	0.805
757.42	0.771
757.60	0.772
757.78	0.766
757.96	0.765
758.14	0.749
758.32	0.731
758.50	0.745
758.69	0.745
758.87	0.736
759.05	0.737
759.23	0.744
759.41	0.746
759.59	0.739
759.77	0.757
759.95	0.781
760.13	0.823
760.32	0.822
760.50	0.818
760.68	0.841
760.86	0.843
761.04	0.815
761.22	0.821
761.40	0.867
761.58	0.871
761.76	0.845
761.95	0.829
762.13	0.790
762.31	0.791
762.49	0.760
762.67	0.778
762.85	0.790
763.03	0.787
763.21	0.770
763.39	0.753
763.57	0.753
763.75	0.747
763.94	0.736
764.12	0.738
764.30	0.762
764.48	0.767
764.66	0.733
764.84	0.730
765.02	0.769
765.20	0.777
765.38	0.757
765.56	0.763
765.74	0.803
765.92	0.803
766.10	0.809
766.28	0.802
766.46	0.828
766.65	0.826
766.83	0.813
767.01	0.796
767.19	0.803
767.37	0.800
767.55	0.788
767.73	0.769
767.91	0.770
768.09	0.759
768.27	0.746
768.45	0.738
768.63	0.743
768.81	0.748
768.99	0.722
769.17	0.745
769.35	0.760
769.53	0.759
769.71	0.740
769.89	0.748
770.07	0.756
770.25	0.741
770.43	0.720
770.61	0.743
770.79	0.746
770.97	0.756
771.15	0.726
771.33	0.728
771.51	0.730
771.69	0.741
771.87	0.749
772.05	0.750
772.24	0.757
772.42	0.767
772.60	0.746
772.78	0.805
772.96	0.831
773.14	0.823
773.32	0.803
773.49	0.808
773.67	0.809
773.85	0.789
774.03	0.780
774.21	0.812
774.39	0.821
774.57	0.842
774.75	0.770
774.93	0.764
775.11	0.786
775.29	0.791
775.47	0.790
775.65	0.796
775.83	0.810
776.01	0.831
776.19	0.786
776.37	0.785
776.55	0.784
776.73	0.783
776.91	0.780
777.09	0.764
777.27	0.762
777.45	0.754
777.63	0.734
777.81	0.732
777.99	0.720
778.17	0.719
778.35	0.702
778.53	0.692
778.71	0.697
778.89	0.686
779.07	0.676
779.24	0.683
779.42	0.685
779.60	0.704
779.78	0.700
779.96	0.706
780.14	0.713
780.32	0.734
780.50	0.718
780.68	0.717
780.86	0.711
781.04	0.728
781.22	0.732
781.40	0.741
781.58	0.730
781.75	0.724
781.93	0.705
782.11	0.704
782.29	0.688
782.47	0.688
782.65	0.675
782.83	0.700
783.01	0.696
783.19	0.689
783.37	0.675
783.55	0.680
783.72	0.697
783.90	0.708
784.08	0.699
784.26	0.714
784.44	0.733
784.62	0.736
784.80	0.706
784.98	0.711
785.16	0.717
785.33	0.732
785.51	0.717
785.69	0.704
785.87	0.706
786.05	0.718
786.23	0.713
786.41	0.711
786.59	0.718
786.77	0.717
786.94	0.704
787.12	0.707
787.30	0.707
787.48	0.704
787.66	0.693
787.84	0.691
788.02	0.683
788.19	0.680
788.37	0.667
788.55	0.668
788.73	0.670
788.91	0.663
789.09	0.647
789.27	0.637
789.44	0.648
789.62	0.651
789.80	0.660
789.98	0.681
790.16	0.667
790.34	0.664
790.51	0.653
790.69	0.670
790.87	0.677
791.05	0.677
791.23	0.671
791.41	0.673
791.58	0.682
791.76	0.661
791.94	0.633
792.12	0.643
792.30	0.644
792.48	0.643
792.65	0.637
792.83	0.644
793.01	0.650
793.19	0.650
793.37	0.636
793.54	0.632
793.72	0.644
793.90	0.644
794.08	0.634
794.26	0.636
794.43	0.643
794.61	0.626
794.79	0.614
794.97	0.613
795.15	0.618
795.32	0.621
795.50	0.610
795.68	0.608
795.86	0.610
796.04	0.610
796.21	0.604
796.39	0.602
796.57	0.616
796.75	0.623
796.92	0.624
797.10	0.629
797.28	0.631
797.46	0.634
797.64	0.634
797.81	0.641
797.99	0.646
798.17	0.651
798.35	0.646
798.52	0.651
798.70	0.646
798.88	0.655
799.06	0.652
799.23	0.655
799.41	0.664
799.59	0.656
799.77	0.644
799.94	0.652
800.12	0.662
800.30	0.678
800.48	0.675
800.65	0.678
800.83	0.668
801.01	0.660
801.19	0.661
801.36	0.656
801.54	0.662
801.72	0.672
801.90	0.659
802.07	0.652
802.25	0.638
802.43	0.622
802.60	0.617
802.78	0.623
802.96	0.629
803.14	0.623
803.31	0.622
803.49	0.620
803.67	0.616
803.84	0.620
804.02	0.612
804.20	0.617
804.38	0.622
804.55	0.621
804.73	0.607
804.91	0.609
805.08	0.620
805.26	0.615
805.44	0.678
805.61	0.682
805.79	0.682
805.97	0.681
806.15	0.672
806.32	0.667
806.50	0.674
806.68	0.674
806.85	0.663
807.03	0.655
807.21	0.671
807.38	0.605
807.56	0.593
807.74	0.602
807.91	0.609
808.09	0.611
808.27	0.629
808.44	0.653
808.62	0.663
808.80	0.665
808.97	0.659
809.15	0.658
809.33	0.676
809.50	0.684
809.68	0.672
809.86	0.679
810.03	0.711
810.21	0.691
810.39	0.674
810.56	0.679
810.74	0.702
810.91	0.771
811.09	0.757
811.27	0.772
811.44	0.779
811.62	0.778
811.80	0.762
811.97	0.731
812.15	0.730
812.33	0.726
812.50	0.711
812.68	0.700
812.85	0.647
813.03	0.649
813.21	0.621
813.38	0.616
813.56	0.622
813.74	0.633
813.91	0.641
814.09	0.671
814.26	0.664
814.44	0.668
814.62	0.658
814.79	0.661
814.97	0.664
815.14	0.669
815.32	0.672
815.50	0.686
815.67	0.687
815.85	0.677
816.02	0.666
816.20	0.673
816.38	0.687
816.55	0.692
816.73	0.692
816.90	0.705
817.08	0.734
817.26	0.740
817.43	0.720
817.61	0.745
817.78	0.766
817.96	0.746
818.13	0.732
818.31	0.731
818.49	0.745
818.66	0.738
818.84	0.720
819.01	0.699
819.19	0.703
819.36	0.704
819.54	0.675
819.71	0.711
819.89	0.725
820.07	0.738
820.24	0.730
820.42	0.731
820.59	0.749
820.77	0.774
820.94	0.766
821.12	0.783
821.29	0.801
821.47	0.804
821.64	0.744
821.82	0.756
822.00	0.755
822.17	0.756
822.35	0.746
822.52	0.749
822.70	0.736
822.87	0.744
823.05	0.721
823.22	0.728
823.40	0.752
823.57	0.773
823.75	0.753
823.92	0.777
824.10	0.794
824.27	0.833
824.45	0.821
824.62	0.878
824.80	0.897
824.97	0.913
825.15	0.900
825.32	0.912
825.50	0.911
825.67	0.923
825.85	0.901
826.02	0.915
826.20	0.933
826.37	1.048
826.55	0.977
826.72	1.145
826.90	1.213
827.07	1.282
827.25	1.212
827.42	1.375
827.60	1.525
827.77	1.674
827.95	1.615
828.12	1.718
828.30	1.372
828.47	1.484
828.65	1.153
828.82	1.203
829.00	1.248
829.17	1.344
829.34	1.317
829.52	1.344
829.69	-0.000
829.87	-0.000
830.04	-0.000
830.22	-0.000
830.39	-0.000
830.57	-0.000
830.74	-0.000
830.92	-0.000
831.09	-0.000
831.26	-0.000
831.44	-0.000
831.61	-0.000
831.79	-0.000
831.96	-0.000
832.14	-0.000
832.31	-0.000
832.49	-0.000
832.66	-0.000
832.83	-0.000
833.01	-0.000
833.18	-0.000
833.36	-0.000
833.53	-0.000
833.70	-0.000
833.88	-0.000
834.05	-0.000
834.23	-0.000
834.40	-0.000
834.58	-0.000
834.75	-0.000
834.92	-0.000
835.10	-0.000
835.27	-0.000
835.45	-0.000
835.62	-0.000
835.79	-0.000
835.97	-0.000
836.14	-0.000
836.32	-0.000
836.49	-0.000
836.66	-0.000
836.84	-0.000
837.01	-0.000
837.18	-0.000
837.36	-0.000
837.53	-0.000
837.71	-0.000
837.88	-0.000
838.05	-0.000
838.23	-0.000
838.40	-0.000
838.58	-0.000
838.75	-0.000
838.92	-0.000
839.10	-0.000
839.27	-0.000
839.44	-0.000
839.62	-0.000
839.79	-0.000
839.96	-0.000
840.14	-0.000
840.31	-0.000
840.48	-0.000
840.66	-0.000
840.83	-0.000
841.01	-0.000
841.18	-0.000
841.35	-0.000
841.53	-0.000
841.70	-0.000
841.87	-0.000
842.05	-0.000
842.22	-0.000
842.39	-0.000
842.57	-0.000
842.74	-0.000
842.91	-0.000
843.09	-0.000
843.26	-0.000
843.43	-0.000
843.60	-0.000
843.78	-0.000
843.95	-0.000
844.12	-0.000
844.30	-0.000
844.47	-0.000
844.64	-0.000
844.82	-0.000
844.99	-0.000
845.16	-0.000
845.34	-0.000
845.51	-0.000
845.68	-0.000
845.85	-0.000
846.03	-0.000
846.20	-0.000
846.37	-0.000
846.55	-0.000
846.72	-0.000
846.89	-0.000
847.06	-0.000
847.24	-0.000
847.41	-0.000
847.58	-0.000
847.76	-0.000
847.93	-0.000
848.10	-0.000
848.27	-0.000
848.45	-0.000
848.62	-0.000
848.79	-0.000
848.97	-0.000
849.14	-0.000
849.31	-0.000
849.48	-0.000
849.66	-0.000
849.83	-0.000
850.00	-0.000
850.17	-0.000
850.35	-0.000
850.52	-0.000
850.69	-0.000
850.86	-0.000
851.04	-0.000
851.21	-0.000
851.38	-0.000
851.55	-0.000
851.72	-0.000
851.90	-0.000
852.07	-0.000
852.24	-0.000
852.41	-0.000
852.59	-0.000
852.76	-0.000
852.93	-0.000
853.10	-0.000
853.28	-0.000
853.45	-0.000
853.62	-0.000
853.79	-0.000
853.96	-0.000
854.14	-0.000
854.31	-0.000
854.48	-0.000
854.65	-0.000
854.82	-0.000
855.00	-0.000
855.17	-0.000
855.34	-0.000
855.51	-0.000
855.68	-0.000
855.86	-0.000
856.03	-0.000
856.20	-0.000
856.37	-0.000
856.54	-0.000
856.72	-0.000
856.89	-0.000
857.06	-0.000
857.23	-0.000
857.40	-0.000
857.57	-0.000
857.75	-0.000
857.92	-0.000
858.09	-0.000
858.26	-0.000
858.43	-0.000
858.60	-0.000
858.78	-0.000
858.95	-0.000
859.12	-0.000
859.29	-0.000
859.46	-0.000
859.63	-0.000
859.81	-0.000
859.98	-0.000
860.15	-0.000
860.32	-0.000
860.49	-0.000
860.66	-0.000
860.83	-0.000
861.01	-0.000
861.18	-0.000
861.35	-0.000
861.52	-0.000
861.69	-0.000
861.86	-0.000
862.03	-0.000
862.21	-0.000
862.38	-0.000
862.55	-0.000
862.72	-0.000
862.89	-0.000
863.06	-0.000
863.23	-0.000
863.40	-0.000
863.58	-0.000
863.75	-0.000
863.92	-0.000
864.09	-0.000
864.26	-0.000
864.43	-0.000
864.60	-0.000
864.77	-0.000
864.94	-0.000
865.11	-0.000
865.29	-0.000
865.46	-0.000
865.63	-0.000
865.80	-0.000
865.97	-0.000
866.14	-0.000
866.31	-0.000
866.48	-0.000
866.65	-0.000
866.82	-0.000
866.99	-0.000
867.16	-0.000
867.34	-0.000
867.51	-0.000
867.68	-0.000
867.85	-0.000
868.02	-0.000
868.19	-0.000
868.36	-0.000
868.53	-0.000
868.70	-0.000
868.87	-0.000
869.04	-0.000
869.21	-0.000
869.38	-0.000
869.55	-0.000
869.72	-0.000
869.89	-0.000
870.06	-0.000
870.24	-0.000
870.41	-0.000
870.58	-0.000
870.75	-0.000
870.92	-0.000
871.09	-0.000
871.26	-0.000
871.43	-0.000
871.60	-0.000
871.77	-0.000
871.94	-0.000
872.11	-0.000
872.28	-0.000
872.45	-0.000
872.62	-0.000
872.79	-0.000
872.96	-0.000
873.13	-0.000
873.30	-0.000
873.47	-0.000
873.64	-0.000
873.81	-0.000
873.98	-0.000
874.15	-0.000
874.32	-0.000
874.49	-0.000
874.66	-0.000
874.83	-0.000
875.00	-0.000
875.17	-0.000
875.34	-0.000
875.51	-0.000
875.68	-0.000
875.85	-0.000
876.02	-0.000
876.19	-0.000
876.36	-0.000
876.53	-0.000
876.70	-0.000
876.87	-0.000
877.04	-0.000
877.21	-0.000
877.38	-0.000
877.55	-0.000
877.72	-0.000
877.89	-0.000
878.06	-0.000
878.23	-0.000
878.39	-0.000
878.56	-0.000
878.73	-0.000
878.90	-0.000
879.07	-0.000
879.24	-0.000
879.41	-0.000
879.58	-0.000
879.75	-0.000
879.92	-0.000
880.09	-0.000
880.26	-0.000
880.43	-0.000
880.60	-0.000
880.77	-0.000
880.94	-0.000
881.11	-0.000
881.27	-0.000
881.44	-0.000
881.61	-0.000
881.78	-0.000
881.95	-0.000
882.12	-0.000
882.29	-0.000
882.46	-0.000
882.63	-0.000
882.80	-0.000
882.97	-0.000
883.14	-0.000
883.30	-0.000
883.47	-0.000
883.64	-0.000
883.81	-0.000
883.98	-0.000
884.15	-0.000
884.32	-0.000
884.49	-0.000
884.66	-0.000
884.82	-0.000
884.99	-0.000
885.16	-0.000
885.33	-0.000
885.50	-0.000
885.67	-0.000
885.84	-0.000
886.01	-0.000
886.17	-0.000
886.34	-0.000
886.51	-0.000
886.68	-0.000
886.85	-0.000
887.02	-0.000
887.19	-0.000
887.36	-0.000
887.52	-0.000
887.69	-0.000
887.86	-0.000
888.03	-0.000
888.20	-0.000
888.37	-0.000
888.54	-0.000
888.70	-0.000
888.87	-0.000
889.04	-0.000
889.21	-0.000
889.38	-0.000
889.55	-0.000
889.71	-0.000
889.88	-0.000
890.05	-0.000
890.22	-0.000
890.39	-0.000
>>>>>End Processed Spectral Data<<<<<
