SpectraSuite Data File
++++++++++++++++++++++++++++++++++++
Date: Fri Jun 19 15:15:49 CEST 2015
User: introlabs
Dark Spectrum Present: Yes
Reference Spectrum Present: Yes
Number of Sampled Component Spectra: 1
Spectrometers: USB4H08886
Integration Time (usec): 745692 (USB4H08886)
Spectra Averaged: 5 (USB4H08886)
Boxcar Smoothing: 5 (USB4H08886)
Correct for Electrical Dark: Yes (USB4H08886)
Strobe/Lamp Enabled: No (USB4H08886)
Correct for Detector Non-linearity: Yes (USB4H08886)
Correct for Stray Light: Yes (USB4H08886)
Number of Pixels in Processed Spectrum: 3648
>>>>>Begin Processed Spectral Data<<<<<
178.14	-0.000
178.36	-0.000
178.57	-0.000
178.79	-0.000
179.01	-0.000
179.22	-0.000
179.44	-0.000
179.65	-0.000
179.87	-0.000
180.08	-0.000
180.30	-0.000
180.52	-0.000
180.73	-0.000
180.95	-0.000
181.16	-0.000
181.38	-0.000
181.59	-0.000
181.81	-0.000
182.03	-0.000
182.24	-0.000
182.46	-0.000
182.67	-0.000
182.89	-0.000
183.10	-0.000
183.32	-0.000
183.54	-0.000
183.75	-0.000
183.97	-0.000
184.18	-0.000
184.40	-0.000
184.61	-0.000
184.83	-0.000
185.04	-0.000
185.26	-0.000
185.48	-0.000
185.69	-0.000
185.91	-0.000
186.12	-0.000
186.34	-0.000
186.55	-0.000
186.77	-0.000
186.98	-0.000
187.20	-0.000
187.42	-0.000
187.63	-0.000
187.85	-0.000
188.06	-0.000
188.28	-0.000
188.49	-0.000
188.71	-0.000
188.92	-0.000
189.14	-0.000
189.36	-0.000
189.57	-0.000
189.79	-0.000
190.00	-0.000
190.22	-0.000
190.43	-0.000
190.65	-0.000
190.86	-0.000
191.08	-0.000
191.29	-0.000
191.51	-0.000
191.72	-0.000
191.94	-0.000
192.16	-0.000
192.37	-0.000
192.59	-0.000
192.80	-0.000
193.02	-0.000
193.23	-0.000
193.45	-0.000
193.66	-0.000
193.88	-0.000
194.09	-0.000
194.31	-0.000
194.52	-0.000
194.74	-0.000
194.95	-0.000
195.17	-0.000
195.38	-0.000
195.60	-0.000
195.81	-0.000
196.03	-0.000
196.25	-0.000
196.46	-0.000
196.68	-0.000
196.89	-0.000
197.11	-0.000
197.32	-0.000
197.54	-0.000
197.75	-0.000
197.97	-0.000
198.18	-0.000
198.40	-0.000
198.61	-0.000
198.83	-0.000
199.04	-0.000
199.26	-0.000
199.47	-0.000
199.69	-0.000
199.90	-0.000
200.12	-0.000
200.33	-0.000
200.55	-0.000
200.76	-0.000
200.98	-0.000
201.19	-0.000
201.41	-0.000
201.62	-0.000
201.84	-0.000
202.05	-0.000
202.27	-0.000
202.48	-0.000
202.70	-0.000
202.91	-0.000
203.13	-0.000
203.34	-0.000
203.56	-0.000
203.77	-0.000
203.99	-0.000
204.20	-0.000
204.42	-0.000
204.63	-0.000
204.85	-0.000
205.06	-0.000
205.28	-0.000
205.49	-0.000
205.71	-0.000
205.92	-0.000
206.14	-0.000
206.35	-0.000
206.56	-0.000
206.78	-0.000
206.99	-0.000
207.21	-0.000
207.42	-0.000
207.64	-0.000
207.85	-0.000
208.07	-0.000
208.28	-0.000
208.50	-0.000
208.71	-0.000
208.93	-0.000
209.14	-0.000
209.36	-0.000
209.57	-0.000
209.79	-0.000
210.00	-0.000
210.22	-0.000
210.43	-0.000
210.64	-0.000
210.86	-0.000
211.07	-0.000
211.29	-0.000
211.50	-0.000
211.72	-0.000
211.93	-0.000
212.15	-0.000
212.36	-0.000
212.58	-0.000
212.79	-0.000
213.01	-0.000
213.22	-0.000
213.43	-0.000
213.65	-0.000
213.86	-0.000
214.08	-0.000
214.29	-0.000
214.51	-0.000
214.72	-0.000
214.94	-0.000
215.15	-0.000
215.36	-0.000
215.58	-0.000
215.79	-0.000
216.01	-0.000
216.22	-0.000
216.44	-0.000
216.65	-0.000
216.87	-0.000
217.08	-0.000
217.29	-0.000
217.51	-0.000
217.72	-0.000
217.94	-0.000
218.15	-0.000
218.37	-0.000
218.58	-0.000
218.80	-0.000
219.01	-0.000
219.22	-0.000
219.44	-0.000
219.65	-0.000
219.87	-0.000
220.08	-0.000
220.30	-0.000
220.51	-0.000
220.72	-0.000
220.94	-0.000
221.15	-0.000
221.37	-0.000
221.58	-0.000
221.79	-0.000
222.01	-0.000
222.22	-0.000
222.44	-0.000
222.65	-0.000
222.87	-0.000
223.08	-0.000
223.29	-0.000
223.51	-0.000
223.72	-0.000
223.94	-0.000
224.15	-0.000
224.36	-0.000
224.58	-0.000
224.79	-0.000
225.01	-0.000
225.22	-0.000
225.44	-0.000
225.65	-0.000
225.86	-0.000
226.08	-0.000
226.29	-0.000
226.51	-0.000
226.72	-0.000
226.93	-0.000
227.15	-0.000
227.36	-0.000
227.58	-0.000
227.79	-0.000
228.00	-0.000
228.22	-0.000
228.43	-0.000
228.65	-0.000
228.86	-0.000
229.07	-0.000
229.29	-0.000
229.50	-0.000
229.72	-0.000
229.93	-0.000
230.14	-0.000
230.36	-0.000
230.57	-0.000
230.78	-0.000
231.00	-0.000
231.21	-0.000
231.43	-0.000
231.64	-0.000
231.85	-0.000
232.07	-0.000
232.28	-0.000
232.50	-0.000
232.71	-0.000
232.92	-0.000
233.14	-0.000
233.35	-0.000
233.56	-0.000
233.78	-0.000
233.99	-0.000
234.21	-0.000
234.42	-0.000
234.63	-0.000
234.85	-0.000
235.06	-0.000
235.27	-0.000
235.49	-0.000
235.70	-0.000
235.91	-0.000
236.13	-0.000
236.34	-0.000
236.56	-0.000
236.77	-0.000
236.98	-0.000
237.20	-0.000
237.41	-0.000
237.62	-0.000
237.84	-0.000
238.05	-0.000
238.26	-0.000
238.48	-0.000
238.69	-0.000
238.91	-0.000
239.12	-0.000
239.33	-0.000
239.55	-0.000
239.76	-0.000
239.97	-0.000
240.19	-0.000
240.40	-0.000
240.61	-0.000
240.83	-0.000
241.04	-0.000
241.25	-0.000
241.47	-0.000
241.68	-0.000
241.89	-0.000
242.11	-0.000
242.32	-0.000
242.53	-0.000
242.75	-0.000
242.96	-0.000
243.17	-0.000
243.39	-0.000
243.60	-0.000
243.81	-0.000
244.03	-0.000
244.24	-0.000
244.45	-0.000
244.67	-0.000
244.88	-0.000
245.09	-0.000
245.31	-0.000
245.52	-0.000
245.73	-0.000
245.95	-0.000
246.16	-0.000
246.37	-0.000
246.59	-0.000
246.80	-0.000
247.01	-0.000
247.23	-0.000
247.44	-0.000
247.65	-0.000
247.87	-0.000
248.08	-0.000
248.29	-0.000
248.51	-0.000
248.72	-0.000
248.93	-0.000
249.15	-0.000
249.36	-0.000
249.57	-0.000
249.78	-0.000
250.00	-0.000
250.21	-0.000
250.42	-0.000
250.64	-0.000
250.85	-0.000
251.06	-0.000
251.28	-0.000
251.49	-0.000
251.70	-0.000
251.92	-0.000
252.13	-0.000
252.34	-0.000
252.55	-0.000
252.77	-0.000
252.98	-0.000
253.19	-0.000
253.41	-0.000
253.62	-0.000
253.83	-0.000
254.05	-0.000
254.26	-0.000
254.47	-0.000
254.68	-0.000
254.90	-0.000
255.11	-0.000
255.32	-0.000
255.54	-0.000
255.75	-0.000
255.96	-0.000
256.17	-0.000
256.39	-0.000
256.60	-0.000
256.81	-0.000
257.03	-0.000
257.24	-0.000
257.45	-0.000
257.66	-0.000
257.88	-0.000
258.09	-0.000
258.30	-0.000
258.51	-0.000
258.73	-0.000
258.94	-0.000
259.15	-0.000
259.37	-0.000
259.58	-0.000
259.79	-0.000
260.00	-0.000
260.22	-0.000
260.43	-0.000
260.64	-0.000
260.85	-0.000
261.07	-0.000
261.28	-0.000
261.49	-0.000
261.71	-0.000
261.92	-0.000
262.13	-0.000
262.34	-0.000
262.56	-0.000
262.77	-0.000
262.98	-0.000
263.19	-0.000
263.41	-0.000
263.62	-0.000
263.83	-0.000
264.04	-0.000
264.26	-0.000
264.47	-0.000
264.68	-0.000
264.89	-0.000
265.11	-0.000
265.32	-0.000
265.53	-0.000
265.74	-0.000
265.96	-0.000
266.17	-0.000
266.38	-0.000
266.59	-0.000
266.81	-0.000
267.02	-0.000
267.23	-0.000
267.44	-0.000
267.65	-0.000
267.87	-0.000
268.08	-0.000
268.29	-0.000
268.50	-0.000
268.72	-0.000
268.93	-0.000
269.14	-0.000
269.35	-0.000
269.57	-0.000
269.78	-0.000
269.99	-0.000
270.20	-0.000
270.41	-0.000
270.63	-0.000
270.84	-0.000
271.05	-0.000
271.26	-0.000
271.48	-0.000
271.69	-0.000
271.90	-0.000
272.11	-0.000
272.32	-0.000
272.54	-0.000
272.75	-0.000
272.96	-0.000
273.17	-0.000
273.39	-0.000
273.60	-0.000
273.81	-0.000
274.02	-0.000
274.23	-0.000
274.45	-0.000
274.66	-0.000
274.87	-0.000
275.08	-0.000
275.29	-0.000
275.51	-0.000
275.72	-0.000
275.93	-0.000
276.14	-0.000
276.35	-0.000
276.57	-0.000
276.78	-0.000
276.99	-0.000
277.20	-0.000
277.41	-0.000
277.63	-0.000
277.84	-0.000
278.05	-0.000
278.26	-0.000
278.47	-0.000
278.69	-0.000
278.90	-0.000
279.11	-0.000
279.32	-0.000
279.53	-0.000
279.74	-0.000
279.96	-0.000
280.17	-0.000
280.38	-0.000
280.59	-0.000
280.80	-0.000
281.02	-0.000
281.23	-0.000
281.44	-0.000
281.65	-0.000
281.86	-0.000
282.07	-0.000
282.29	-0.000
282.50	-0.000
282.71	-0.000
282.92	-0.000
283.13	-0.000
283.35	-0.000
283.56	-0.000
283.77	-0.000
283.98	-0.000
284.19	-0.000
284.40	-0.000
284.62	-0.000
284.83	-0.000
285.04	-0.000
285.25	-0.000
285.46	-0.000
285.67	-0.000
285.88	-0.000
286.10	-0.000
286.31	-0.000
286.52	-0.000
286.73	-0.000
286.94	-0.000
287.15	-0.000
287.37	-0.000
287.58	-0.000
287.79	-0.000
288.00	-0.000
288.21	-0.000
288.42	-0.000
288.63	-0.000
288.85	-0.000
289.06	-0.000
289.27	-0.000
289.48	-0.000
289.69	-0.000
289.90	-0.000
290.11	-0.000
290.33	-0.000
290.54	-0.000
290.75	-0.000
290.96	-0.000
291.17	-0.000
291.38	-0.000
291.59	-0.000
291.81	-0.000
292.02	-0.000
292.23	-0.000
292.44	-0.000
292.65	-0.000
292.86	-0.000
293.07	-0.000
293.28	-0.000
293.50	-0.000
293.71	-0.000
293.92	-0.000
294.13	-0.000
294.34	-0.000
294.55	-0.000
294.76	-0.000
294.97	-0.000
295.19	-0.000
295.40	-0.000
295.61	-0.000
295.82	-0.000
296.03	-0.000
296.24	-0.000
296.45	2.244
296.66	1.837
296.87	1.878
297.09	1.963
297.30	2.246
297.51	1.777
297.72	1.740
297.93	1.820
298.14	1.787
298.35	1.749
298.56	1.721
298.77	1.839
298.99	1.813
299.20	1.784
299.41	1.747
299.62	1.687
299.83	1.679
300.04	1.618
300.25	1.618
300.46	1.655
300.67	1.624
300.88	1.576
301.10	1.576
301.31	1.650
301.52	1.589
301.73	1.539
301.94	1.540
302.15	1.551
302.36	1.500
302.57	1.438
302.78	1.445
302.99	1.487
303.20	1.506
303.41	1.419
303.63	1.395
303.84	1.399
304.05	1.390
304.26	1.334
304.47	1.346
304.68	1.343
304.89	1.336
305.10	1.298
305.31	1.282
305.52	1.324
305.73	1.322
305.94	1.286
306.15	1.280
306.37	1.304
306.58	1.315
306.79	1.279
307.00	1.307
307.21	1.342
307.42	1.333
307.63	1.300
307.84	1.268
308.05	1.300
308.26	1.299
308.47	1.276
308.68	1.271
308.89	1.267
309.10	1.269
309.31	1.229
309.52	1.222
309.73	1.236
309.95	1.230
310.16	1.201
310.37	1.191
310.58	1.206
310.79	1.205
311.00	1.203
311.21	1.203
311.42	1.203
311.63	1.202
311.84	1.184
312.05	1.181
312.26	1.202
312.47	1.213
312.68	1.188
312.89	1.171
313.10	1.175
313.31	1.148
313.52	1.153
313.73	1.152
313.94	1.151
314.15	1.132
314.36	1.113
314.57	1.108
314.78	1.096
314.99	1.091
315.21	1.081
315.42	1.088
315.63	1.100
315.84	1.076
316.05	1.063
316.26	1.070
316.47	1.085
316.68	1.085
316.89	1.066
317.10	1.086
317.31	1.089
317.52	1.091
317.73	1.070
317.94	1.068
318.15	1.111
318.36	1.109
318.57	1.093
318.78	1.083
318.99	1.114
319.20	1.111
319.41	1.079
319.62	1.085
319.83	1.098
320.04	1.092
320.25	1.080
320.46	1.047
320.67	1.050
320.88	1.048
321.09	1.035
321.30	1.019
321.51	1.033
321.72	1.028
321.93	1.011
322.14	1.003
322.35	1.030
322.56	1.032
322.77	1.021
322.98	1.031
323.19	1.037
323.40	1.045
323.61	1.024
323.82	1.019
324.03	1.025
324.24	1.023
324.45	1.010
324.66	0.991
324.87	0.986
325.08	0.984
325.29	0.966
325.50	0.960
325.71	0.964
325.92	0.971
326.13	0.960
326.34	0.961
326.55	0.969
326.76	0.968
326.97	0.957
327.18	0.953
327.39	0.977
327.60	0.977
327.80	0.980
328.01	0.978
328.22	0.979
328.43	0.981
328.64	0.969
328.85	0.971
329.06	0.974
329.27	0.973
329.48	0.969
329.69	0.951
329.90	0.961
330.11	0.954
330.32	0.948
330.53	0.940
330.74	0.938
330.95	0.937
331.16	0.924
331.37	0.931
331.58	0.931
331.79	0.930
332.00	0.922
332.21	0.916
332.42	0.918
332.63	0.909
332.83	0.906
333.04	0.909
333.25	0.921
333.46	0.919
333.67	0.906
333.88	0.909
334.09	0.919
334.30	0.915
334.51	0.907
334.72	0.902
334.93	0.904
335.14	0.903
335.35	0.896
335.56	0.891
335.77	0.898
335.98	0.897
336.18	0.892
336.39	0.883
336.60	0.887
336.81	0.886
337.02	0.887
337.23	0.892
337.44	0.896
337.65	0.897
337.86	0.886
338.07	0.882
338.28	0.886
338.49	0.884
338.70	0.878
338.91	0.883
339.11	0.890
339.32	0.886
339.53	0.874
339.74	0.871
339.95	0.867
340.16	0.865
340.37	0.858
340.58	0.857
340.79	0.860
341.00	0.860
341.21	0.850
341.41	0.850
341.62	0.851
341.83	0.852
342.04	0.849
342.25	0.859
342.46	0.864
342.67	0.862
342.88	0.856
343.09	0.854
343.30	0.861
343.50	0.865
343.71	0.856
343.92	0.853
344.13	0.857
344.34	0.856
344.55	0.840
344.76	0.839
344.97	0.843
345.18	0.842
345.38	0.840
345.59	0.833
345.80	0.833
346.01	0.831
346.22	0.828
346.43	0.822
346.64	0.830
346.85	0.830
347.06	0.824
347.26	0.825
347.47	0.828
347.68	0.822
347.89	0.820
348.10	0.814
348.31	0.820
348.52	0.818
348.73	0.817
348.93	0.813
349.14	0.815
349.35	0.815
349.56	0.808
349.77	0.804
349.98	0.811
350.19	0.809
350.39	0.805
350.60	0.800
350.81	0.815
351.02	0.813
351.23	0.809
351.44	0.811
351.65	0.814
351.86	0.811
352.06	0.810
352.27	0.810
352.48	0.810
352.69	0.809
352.90	0.805
353.11	0.791
353.31	0.798
353.52	0.793
353.73	0.785
353.94	0.786
354.15	0.791
354.36	0.791
354.57	0.782
354.77	0.785
354.98	0.784
355.19	0.783
355.40	0.783
355.61	0.789
355.82	0.792
356.02	0.792
356.23	0.786
356.44	0.787
356.65	0.790
356.86	0.791
357.07	0.784
357.27	0.787
357.48	0.789
357.69	0.785
357.90	0.771
358.11	0.769
358.32	0.772
358.52	0.775
358.73	0.765
358.94	0.768
359.15	0.772
359.36	0.774
359.56	0.769
359.77	0.767
359.98	0.772
360.19	0.773
360.40	0.770
360.61	0.771
360.81	0.770
361.02	0.770
361.23	0.762
361.44	0.759
361.65	0.760
361.85	0.760
362.06	0.758
362.27	0.761
362.48	0.760
362.69	0.761
362.89	0.756
363.10	0.757
363.31	0.761
363.52	0.765
363.73	0.760
363.93	0.759
364.14	0.761
364.35	0.763
364.56	0.752
364.77	0.753
364.97	0.754
365.18	0.755
365.39	0.750
365.60	0.747
365.81	0.748
366.01	0.747
366.22	0.745
366.43	0.744
366.64	0.745
366.84	0.751
367.05	0.749
367.26	0.749
367.47	0.750
367.68	0.750
367.88	0.748
368.09	0.745
368.30	0.748
368.51	0.748
368.71	0.748
368.92	0.752
369.13	0.749
369.34	0.749
369.55	0.748
369.75	0.748
369.96	0.754
370.17	0.754
370.38	0.751
370.58	0.749
370.79	0.753
371.00	0.753
371.21	0.744
371.41	0.749
371.62	0.753
371.83	0.749
372.04	0.747
372.24	0.741
372.45	0.741
372.66	0.741
372.87	0.739
373.07	0.735
373.28	0.735
373.49	0.738
373.70	0.729
373.90	0.728
374.11	0.737
374.32	0.736
374.53	0.735
374.73	0.737
374.94	0.739
375.15	0.739
375.36	0.737
375.56	0.745
375.77	0.744
375.98	0.745
376.19	0.743
376.39	0.737
376.60	0.740
376.81	0.741
377.02	0.738
377.22	0.737
377.43	0.738
377.64	0.737
377.84	0.729
378.05	0.734
378.26	0.741
378.47	0.739
378.67	0.736
378.88	0.733
379.09	0.734
379.30	0.734
379.50	0.732
379.71	0.734
379.92	0.736
380.12	0.736
380.33	0.727
380.54	0.724
380.75	0.730
380.95	0.730
381.16	0.729
381.37	0.728
381.57	0.729
381.78	0.730
381.99	0.730
382.20	0.729
382.40	0.732
382.61	0.733
382.82	0.730
383.02	0.723
383.23	0.726
383.44	0.726
383.64	0.726
383.85	0.728
384.06	0.731
384.27	0.728
384.47	0.727
384.68	0.727
384.89	0.733
385.09	0.732
385.30	0.732
385.51	0.731
385.71	0.733
385.92	0.734
386.13	0.733
386.33	0.734
386.54	0.735
386.75	0.734
386.95	0.730
387.16	0.725
387.37	0.728
387.58	0.728
387.78	0.726
387.99	0.724
388.20	0.726
388.40	0.724
388.61	0.720
388.82	0.724
389.02	0.726
389.23	0.727
389.44	0.726
389.64	0.727
389.85	0.738
390.06	0.737
390.26	0.739
390.47	0.738
390.68	0.740
390.88	0.739
391.09	0.735
391.30	0.734
391.50	0.733
391.71	0.733
391.92	0.731
392.12	0.723
392.33	0.723
392.53	0.722
392.74	0.723
392.95	0.722
393.15	0.725
393.36	0.727
393.57	0.725
393.77	0.728
393.98	0.730
394.19	0.729
394.39	0.729
394.60	0.730
394.81	0.732
395.01	0.730
395.22	0.728
395.43	0.730
395.63	0.734
395.84	0.736
396.04	0.731
396.25	0.733
396.46	0.736
396.66	0.734
396.87	0.732
397.08	0.729
397.28	0.731
397.49	0.733
397.69	0.728
397.90	0.723
398.11	0.724
398.31	0.725
398.52	0.722
398.73	0.723
398.93	0.722
399.14	0.721
399.34	0.721
399.55	0.722
399.76	0.721
399.96	0.722
400.17	0.720
400.37	0.719
400.58	0.726
400.79	0.727
400.99	0.724
401.20	0.730
401.41	0.732
401.61	0.733
401.82	0.738
402.02	0.737
402.23	0.738
402.44	0.739
402.64	0.738
402.85	0.733
403.05	0.732
403.26	0.731
403.47	0.726
403.67	0.725
403.88	0.725
404.08	0.720
404.29	0.718
404.50	0.718
404.70	0.718
404.91	0.717
405.11	0.715
405.32	0.715
405.52	0.715
405.73	0.715
405.94	0.713
406.14	0.716
406.35	0.717
406.55	0.717
406.76	0.715
406.97	0.716
407.17	0.719
407.38	0.719
407.58	0.717
407.79	0.719
407.99	0.722
408.20	0.723
408.41	0.719
408.61	0.717
408.82	0.717
409.02	0.717
409.23	0.714
409.43	0.713
409.64	0.714
409.84	0.714
410.05	0.711
410.26	0.709
410.46	0.709
410.67	0.709
410.87	0.711
411.08	0.713
411.28	0.714
411.49	0.716
411.69	0.714
411.90	0.716
412.11	0.717
412.31	0.719
412.52	0.717
412.72	0.718
412.93	0.718
413.13	0.717
413.34	0.713
413.54	0.715
413.75	0.717
413.95	0.716
414.16	0.713
414.37	0.716
414.57	0.716
414.78	0.718
414.98	0.716
415.19	0.717
415.39	0.714
415.60	0.716
415.80	0.715
416.01	0.714
416.21	0.715
416.42	0.715
416.62	0.711
416.83	0.710
417.03	0.710
417.24	0.710
417.44	0.708
417.65	0.708
417.86	0.709
418.06	0.707
418.27	0.705
418.47	0.706
418.68	0.707
418.88	0.707
419.09	0.706
419.29	0.706
419.50	0.707
419.70	0.706
419.91	0.705
420.11	0.703
420.32	0.705
420.52	0.704
420.73	0.703
420.93	0.704
421.14	0.705
421.34	0.704
421.55	0.700
421.75	0.700
421.96	0.701
422.16	0.702
422.37	0.701
422.57	0.698
422.78	0.699
422.98	0.696
423.19	0.694
423.39	0.693
423.60	0.696
423.80	0.698
424.01	0.696
424.21	0.699
424.42	0.699
424.62	0.698
424.83	0.697
425.03	0.698
425.23	0.700
425.44	0.700
425.64	0.701
425.85	0.699
426.05	0.700
426.26	0.701
426.46	0.697
426.67	0.696
426.87	0.701
427.08	0.701
427.28	0.699
427.49	0.699
427.69	0.700
427.90	0.699
428.10	0.696
428.31	0.697
428.51	0.698
428.71	0.697
428.92	0.698
429.12	0.696
429.33	0.696
429.53	0.700
429.74	0.704
429.94	0.704
430.15	0.703
430.35	0.703
430.56	0.700
430.76	0.698
430.96	0.699
431.17	0.696
431.37	0.694
431.58	0.692
431.78	0.689
431.99	0.682
432.19	0.684
432.40	0.686
432.60	0.687
432.80	0.689
433.01	0.688
433.21	0.688
433.42	0.690
433.62	0.690
433.83	0.690
434.03	0.692
434.23	0.695
434.44	0.694
434.64	0.692
434.85	0.696
435.05	0.697
435.26	0.697
435.46	0.696
435.66	0.696
435.87	0.696
436.07	0.696
436.28	0.691
436.48	0.688
436.69	0.688
436.89	0.688
437.09	0.682
437.30	0.681
437.50	0.681
437.71	0.693
437.91	0.692
438.11	0.693
438.32	0.697
438.52	0.697
438.73	0.696
438.93	0.695
439.13	0.695
439.34	0.698
439.54	0.695
439.75	0.696
439.95	0.686
440.15	0.690
440.36	0.688
440.56	0.685
440.77	0.686
440.97	0.686
441.17	0.685
441.38	0.686
441.58	0.684
441.79	0.683
441.99	0.682
442.19	0.681
442.40	0.678
442.60	0.678
442.81	0.676
443.01	0.677
443.21	0.677
443.42	0.676
443.62	0.675
443.82	0.674
444.03	0.675
444.23	0.675
444.44	0.675
444.64	0.674
444.84	0.676
445.05	0.675
445.25	0.673
445.45	0.673
445.66	0.675
445.86	0.674
446.06	0.676
446.27	0.675
446.47	0.678
446.68	0.676
446.88	0.675
447.08	0.674
447.29	0.676
447.49	0.676
447.69	0.675
447.90	0.674
448.10	0.677
448.30	0.674
448.51	0.676
448.71	0.674
448.91	0.676
449.12	0.675
449.32	0.676
449.52	0.675
449.73	0.678
449.93	0.677
450.14	0.678
450.34	0.676
450.54	0.678
450.75	0.676
450.95	0.674
451.15	0.674
451.36	0.676
451.56	0.673
451.76	0.673
451.97	0.670
452.17	0.670
452.37	0.668
452.58	0.665
452.78	0.665
452.98	0.667
453.19	0.666
453.39	0.667
453.59	0.665
453.79	0.666
454.00	0.666
454.20	0.665
454.40	0.666
454.61	0.669
454.81	0.670
455.01	0.668
455.22	0.669
455.42	0.671
455.62	0.668
455.83	0.668
456.03	0.672
456.23	0.673
456.44	0.674
456.64	0.673
456.84	0.673
457.04	0.673
457.25	0.672
457.45	0.669
457.65	0.668
457.86	0.669
458.06	0.668
458.26	0.664
458.47	0.663
458.67	0.664
458.87	0.664
459.07	0.661
459.28	0.663
459.48	0.666
459.68	0.666
459.89	0.665
460.09	0.663
460.29	0.664
460.49	0.665
460.70	0.665
460.90	0.664
461.10	0.665
461.31	0.664
461.51	0.662
461.71	0.663
461.91	0.664
462.12	0.664
462.32	0.663
462.52	0.664
462.72	0.666
462.93	0.667
463.13	0.665
463.33	0.665
463.53	0.667
463.74	0.666
463.94	0.662
464.14	0.662
464.35	0.663
464.55	0.663
464.75	0.661
464.95	0.658
465.16	0.660
465.36	0.659
465.56	0.658
465.76	0.658
465.97	0.659
466.17	0.660
466.37	0.658
466.57	0.658
466.78	0.659
466.98	0.659
467.18	0.657
467.38	0.656
467.59	0.658
467.79	0.659
467.99	0.658
468.19	0.659
468.39	0.660
468.60	0.660
468.80	0.659
469.00	0.660
469.20	0.662
469.41	0.662
469.61	0.661
469.81	0.661
470.01	0.661
470.22	0.661
470.42	0.660
470.62	0.658
470.82	0.659
471.02	0.659
471.23	0.657
471.43	0.657
471.63	0.660
471.83	0.660
472.04	0.659
472.24	0.657
472.44	0.662
472.64	0.662
472.84	0.661
473.05	0.661
473.25	0.664
473.45	0.664
473.65	0.662
473.85	0.662
474.06	0.663
474.26	0.662
474.46	0.663
474.66	0.660
474.86	0.660
475.07	0.660
475.27	0.658
475.47	0.655
475.67	0.655
475.87	0.658
476.08	0.654
476.28	0.656
476.48	0.657
476.68	0.655
476.88	0.653
477.09	0.654
477.29	0.656
477.49	0.656
477.69	0.656
477.89	0.656
478.09	0.655
478.30	0.657
478.50	0.654
478.70	0.653
478.90	0.654
479.10	0.657
479.31	0.658
479.51	0.656
479.71	0.656
479.91	0.657
480.11	0.656
480.31	0.656
480.52	0.655
480.72	0.655
480.92	0.654
481.12	0.653
481.32	0.650
481.52	0.648
481.72	0.648
481.93	0.652
482.13	0.652
482.33	0.652
482.53	0.650
482.73	0.650
482.93	0.651
483.14	0.650
483.34	0.650
483.54	0.651
483.74	0.651
483.94	0.650
484.14	0.645
484.34	0.645
484.55	0.646
484.75	0.646
484.95	0.644
485.15	0.644
485.35	0.644
485.55	0.643
485.75	0.641
485.96	0.641
486.16	0.642
486.36	0.642
486.56	0.640
486.76	0.640
486.96	0.640
487.16	0.640
487.36	0.637
487.57	0.637
487.77	0.637
487.97	0.638
488.17	0.637
488.37	0.636
488.57	0.636
488.77	0.636
488.97	0.635
489.18	0.635
489.38	0.637
489.58	0.638
489.78	0.637
489.98	0.637
490.18	0.637
490.38	0.638
490.58	0.636
490.78	0.637
490.98	0.639
491.19	0.639
491.39	0.638
491.59	0.637
491.79	0.639
491.99	0.640
492.19	0.639
492.39	0.642
492.59	0.642
492.79	0.644
492.99	0.645
493.20	0.645
493.40	0.646
493.60	0.647
493.80	0.646
494.00	0.644
494.20	0.644
494.40	0.644
494.60	0.641
494.80	0.645
495.00	0.644
495.20	0.642
495.40	0.641
495.61	0.642
495.81	0.641
496.01	0.645
496.21	0.645
496.41	0.645
496.61	0.645
496.81	0.645
497.01	0.640
497.21	0.640
497.41	0.641
497.61	0.640
497.81	0.638
498.01	0.638
498.21	0.635
498.41	0.633
498.61	0.634
498.82	0.635
499.02	0.637
499.22	0.637
499.42	0.636
499.62	0.638
499.82	0.639
500.02	0.640
500.22	0.639
500.42	0.642
500.62	0.642
500.82	0.642
501.02	0.640
501.22	0.640
501.42	0.640
501.62	0.642
501.82	0.642
502.02	0.642
502.22	0.641
502.42	0.643
502.62	0.640
502.82	0.640
503.02	0.640
503.22	0.641
503.42	0.639
503.63	0.638
503.83	0.636
504.03	0.635
504.23	0.634
504.43	0.635
504.63	0.636
504.83	0.635
505.03	0.635
505.23	0.636
505.43	0.638
505.63	0.638
505.83	0.638
506.03	0.640
506.23	0.642
506.43	0.642
506.63	0.641
506.83	0.639
507.03	0.641
507.23	0.641
507.43	0.639
507.63	0.639
507.83	0.639
508.03	0.639
508.23	0.638
508.43	0.637
508.63	0.639
508.83	0.640
509.03	0.641
509.23	0.640
509.43	0.641
509.63	0.641
509.83	0.641
510.03	0.644
510.23	0.645
510.43	0.646
510.63	0.646
510.83	0.646
511.03	0.647
511.23	0.645
511.43	0.645
511.63	0.646
511.83	0.648
512.03	0.648
512.22	0.644
512.42	0.644
512.62	0.645
512.82	0.645
513.02	0.644
513.22	0.644
513.42	0.646
513.62	0.648
513.82	0.646
514.02	0.645
514.22	0.646
514.42	0.647
514.62	0.647
514.82	0.647
515.02	0.649
515.22	0.652
515.42	0.651
515.62	0.654
515.82	0.653
516.02	0.654
516.22	0.654
516.42	0.654
516.62	0.656
516.82	0.657
517.01	0.655
517.21	0.655
517.41	0.657
517.61	0.658
517.81	0.654
518.01	0.653
518.21	0.653
518.41	0.652
518.61	0.651
518.81	0.652
519.01	0.652
519.21	0.652
519.41	0.651
519.61	0.646
519.81	0.648
520.00	0.649
520.20	0.649
520.40	0.652
520.60	0.653
520.80	0.652
521.00	0.652
521.20	0.653
521.40	0.658
521.60	0.659
521.80	0.658
522.00	0.658
522.20	0.661
522.39	0.660
522.59	0.657
522.79	0.659
522.99	0.662
523.19	0.660
523.39	0.658
523.59	0.655
523.79	0.658
523.99	0.660
524.19	0.659
524.38	0.657
524.58	0.659
524.78	0.659
524.98	0.658
525.18	0.659
525.38	0.660
525.58	0.660
525.78	0.658
525.98	0.656
526.18	0.656
526.37	0.655
526.57	0.658
526.77	0.658
526.97	0.658
527.17	0.658
527.37	0.654
527.57	0.656
527.77	0.658
527.96	0.659
528.16	0.658
528.36	0.659
528.56	0.660
528.76	0.658
528.96	0.657
529.16	0.658
529.36	0.661
529.55	0.661
529.75	0.658
529.95	0.659
530.15	0.660
530.35	0.663
530.55	0.661
530.75	0.661
530.94	0.663
531.14	0.663
531.34	0.661
531.54	0.660
531.74	0.663
531.94	0.666
532.13	0.664
532.33	0.666
532.53	0.664
532.73	0.663
532.93	0.662
533.13	0.663
533.33	0.663
533.52	0.664
533.72	0.667
533.92	0.664
534.12	0.663
534.32	0.663
534.52	0.661
534.71	0.662
534.91	0.665
535.11	0.667
535.31	0.665
535.51	0.666
535.71	0.668
535.90	0.665
536.10	0.667
536.30	0.669
536.50	0.669
536.70	0.669
536.89	0.668
537.09	0.667
537.29	0.669
537.49	0.669
537.69	0.667
537.89	0.668
538.08	0.668
538.28	0.665
538.48	0.666
538.68	0.668
538.88	0.670
539.07	0.670
539.27	0.668
539.47	0.667
539.67	0.666
539.87	0.668
540.06	0.666
540.26	0.667
540.46	0.669
540.66	0.666
540.86	0.663
541.05	0.663
541.25	0.665
541.45	0.665
541.65	0.665
541.84	0.667
542.04	0.668
542.24	0.668
542.44	0.668
542.64	0.669
542.83	0.671
543.03	0.672
543.23	0.670
543.43	0.671
543.62	0.672
543.82	0.672
544.02	0.671
544.22	0.670
544.42	0.674
544.61	0.674
544.81	0.672
545.01	0.671
545.21	0.672
545.40	0.673
545.60	0.671
545.80	0.674
546.00	0.674
546.19	0.673
546.39	0.673
546.59	0.670
546.79	0.671
546.98	0.672
547.18	0.671
547.38	0.672
547.58	0.674
547.77	0.674
547.97	0.671
548.17	0.673
548.37	0.673
548.56	0.672
548.76	0.672
548.96	0.673
549.16	0.675
549.35	0.674
549.55	0.672
549.75	0.673
549.95	0.676
550.14	0.676
550.34	0.674
550.54	0.679
550.73	0.684
550.93	0.684
551.13	0.681
551.33	0.680
551.52	0.681
551.72	0.682
551.92	0.680
552.12	0.680
552.31	0.681
552.51	0.682
552.71	0.677
552.90	0.677
553.10	0.678
553.30	0.678
553.50	0.677
553.69	0.679
553.89	0.679
554.09	0.679
554.28	0.676
554.48	0.678
554.68	0.679
554.87	0.678
555.07	0.676
555.27	0.675
555.47	0.677
555.66	0.678
555.86	0.675
556.06	0.677
556.25	0.678
556.45	0.686
556.65	0.685
556.84	0.688
557.04	0.691
557.24	0.692
557.43	0.692
557.63	0.695
557.83	0.696
558.02	0.698
558.22	0.701
558.42	0.702
558.61	0.695
558.81	0.695
559.01	0.692
559.21	0.692
559.40	0.693
559.60	0.693
559.80	0.690
559.99	0.691
560.19	0.693
560.39	0.688
560.58	0.685
560.78	0.685
560.97	0.688
561.17	0.686
561.37	0.684
561.56	0.684
561.76	0.685
561.96	0.684
562.15	0.682
562.35	0.684
562.55	0.684
562.74	0.684
562.94	0.683
563.14	0.681
563.33	0.682
563.53	0.682
563.73	0.681
563.92	0.682
564.12	0.685
564.31	0.687
564.51	0.685
564.71	0.688
564.90	0.691
565.10	0.692
565.30	0.695
565.49	0.696
565.69	0.698
565.89	0.699
566.08	0.696
566.28	0.698
566.47	0.699
566.67	0.698
566.87	0.694
567.06	0.696
567.26	0.702
567.46	0.698
567.65	0.698
567.85	0.699
568.04	0.701
568.24	0.700
568.44	0.697
568.63	0.696
568.83	0.697
569.02	0.696
569.22	0.692
569.42	0.688
569.61	0.689
569.81	0.688
570.00	0.687
570.20	0.688
570.40	0.689
570.59	0.689
570.79	0.687
570.98	0.685
571.18	0.687
571.38	0.686
571.57	0.683
571.77	0.681
571.96	0.684
572.16	0.682
572.35	0.676
572.55	0.677
572.75	0.675
572.94	0.675
573.14	0.673
573.33	0.673
573.53	0.674
573.73	0.673
573.92	0.672
574.12	0.670
574.31	0.673
574.51	0.674
574.70	0.672
574.90	0.674
575.09	0.676
575.29	0.676
575.49	0.673
575.68	0.674
575.88	0.675
576.07	0.676
576.27	0.674
576.46	0.672
576.66	0.671
576.86	0.670
577.05	0.668
577.25	0.666
577.44	0.668
577.64	0.667
577.83	0.665
578.03	0.666
578.22	0.666
578.42	0.665
578.61	0.663
578.81	0.665
579.00	0.665
579.20	0.664
579.40	0.664
579.59	0.663
579.79	0.663
579.98	0.663
580.18	0.662
580.37	0.662
580.57	0.664
580.76	0.669
580.96	0.667
581.15	0.667
581.35	0.669
581.54	0.669
581.74	0.668
581.93	0.670
582.13	0.671
582.32	0.668
582.52	0.666
582.71	0.666
582.91	0.662
583.10	0.661
583.30	0.660
583.49	0.659
583.69	0.663
583.88	0.664
584.08	0.662
584.27	0.665
584.47	0.668
584.66	0.668
584.86	0.667
585.05	0.670
585.25	0.673
585.44	0.672
585.64	0.671
585.83	0.668
586.03	0.668
586.22	0.667
586.42	0.663
586.61	0.665
586.81	0.667
587.00	0.666
587.20	0.663
587.39	0.663
587.59	0.665
587.78	0.666
587.98	0.667
588.17	0.668
588.37	0.670
588.56	0.672
588.76	0.668
588.95	0.668
589.15	0.672
589.34	0.674
589.54	0.673
589.73	0.674
589.92	0.677
590.12	0.677
590.31	0.675
590.51	0.681
590.70	0.683
590.90	0.683
591.09	0.682
591.29	0.681
591.48	0.681
591.68	0.682
591.87	0.680
592.06	0.680
592.26	0.682
592.45	0.681
592.65	0.675
592.84	0.674
593.04	0.676
593.23	0.678
593.43	0.676
593.62	0.675
593.81	0.675
594.01	0.674
594.20	0.672
594.40	0.670
594.59	0.672
594.79	0.672
594.98	0.671
595.17	0.670
595.37	0.671
595.56	0.673
595.76	0.673
595.95	0.675
596.14	0.678
596.34	0.679
596.53	0.678
596.73	0.681
596.92	0.682
597.12	0.685
597.31	0.685
597.50	0.684
597.70	0.686
597.89	0.685
598.09	0.682
598.28	0.683
598.47	0.685
598.67	0.683
598.86	0.679
599.06	0.681
599.25	0.680
599.44	0.678
599.64	0.676
599.83	0.672
600.03	0.675
600.22	0.676
600.41	0.676
600.61	0.673
600.80	0.675
601.00	0.676
601.19	0.672
601.38	0.671
601.58	0.673
601.77	0.675
601.96	0.677
602.16	0.677
602.35	0.686
602.55	0.683
602.74	0.685
602.93	0.687
603.13	0.692
603.32	0.694
603.51	0.694
603.71	0.698
603.90	0.699
604.09	0.700
604.29	0.697
604.48	0.691
604.68	0.693
604.87	0.691
605.06	0.687
605.26	0.684
605.45	0.685
605.64	0.684
605.84	0.679
606.03	0.678
606.22	0.676
606.42	0.676
606.61	0.672
606.80	0.672
607.00	0.673
607.19	0.674
607.38	0.672
607.58	0.673
607.77	0.675
607.96	0.675
608.16	0.673
608.35	0.677
608.54	0.680
608.74	0.683
608.93	0.688
609.12	0.691
609.32	0.694
609.51	0.698
609.70	0.697
609.90	0.699
610.09	0.704
610.28	0.709
610.48	0.703
610.67	0.705
610.86	0.706
611.06	0.701
611.25	0.698
611.44	0.698
611.64	0.698
611.83	0.701
612.02	0.697
612.21	0.696
612.41	0.695
612.60	0.694
612.79	0.690
612.99	0.690
613.18	0.692
613.37	0.689
613.57	0.687
613.76	0.688
613.95	0.685
614.14	0.685
614.34	0.682
614.53	0.683
614.72	0.685
614.92	0.685
615.11	0.682
615.30	0.680
615.49	0.681
615.69	0.684
615.88	0.680
616.07	0.682
616.26	0.684
616.46	0.685
616.65	0.682
616.84	0.681
617.04	0.682
617.23	0.685
617.42	0.686
617.61	0.689
617.81	0.690
618.00	0.691
618.19	0.691
618.38	0.694
618.58	0.698
618.77	0.699
618.96	0.699
619.15	0.701
619.35	0.703
619.54	0.704
619.73	0.699
619.92	0.701
620.12	0.705
620.31	0.705
620.50	0.700
620.69	0.700
620.89	0.703
621.08	0.703
621.27	0.703
621.46	0.702
621.66	0.705
621.85	0.705
622.04	0.702
622.23	0.703
622.43	0.703
622.62	0.703
622.81	0.703
623.00	0.702
623.19	0.705
623.39	0.703
623.58	0.700
623.77	0.699
623.96	0.701
624.16	0.702
624.35	0.697
624.54	0.700
624.73	0.704
624.92	0.701
625.12	0.699
625.31	0.700
625.50	0.703
625.69	0.704
625.88	0.700
626.08	0.700
626.27	0.702
626.46	0.702
626.65	0.699
626.84	0.698
627.04	0.703
627.23	0.703
627.42	0.699
627.61	0.701
627.80	0.704
628.00	0.704
628.19	0.702
628.38	0.705
628.57	0.706
628.76	0.706
628.96	0.703
629.15	0.704
629.34	0.706
629.53	0.707
629.72	0.702
629.91	0.702
630.11	0.708
630.30	0.708
630.49	0.711
630.68	0.711
630.87	0.715
631.06	0.717
631.26	0.712
631.45	0.715
631.64	0.722
631.83	0.724
632.02	0.721
632.21	0.719
632.41	0.726
632.60	0.720
632.79	0.720
632.98	0.720
633.17	0.720
633.36	0.722
633.55	0.717
633.75	0.713
633.94	0.714
634.13	0.714
634.32	0.713
634.51	0.707
634.70	0.708
634.89	0.708
635.09	0.705
635.28	0.705
635.47	0.706
635.66	0.710
635.85	0.706
636.04	0.707
636.23	0.712
636.43	0.713
636.62	0.712
636.81	0.711
637.00	0.712
637.19	0.715
637.38	0.712
637.57	0.711
637.76	0.711
637.95	0.713
638.15	0.710
638.34	0.707
638.53	0.710
638.72	0.711
638.91	0.710
639.10	0.708
639.29	0.709
639.48	0.710
639.67	0.711
639.87	0.711
640.06	0.716
640.25	0.715
640.44	0.717
640.63	0.717
640.82	0.719
641.01	0.719
641.20	0.719
641.39	0.721
641.58	0.722
641.78	0.720
641.97	0.717
642.16	0.730
642.35	0.730
642.54	0.729
642.73	0.724
642.92	0.723
643.11	0.726
643.30	0.726
643.49	0.721
643.68	0.723
643.87	0.725
644.06	0.725
644.25	0.705
644.45	0.708
644.64	0.710
644.83	0.710
645.02	0.707
645.21	0.706
645.40	0.707
645.59	0.707
645.78	0.701
645.97	0.702
646.16	0.703
646.35	0.703
646.54	0.700
646.73	0.701
646.92	0.702
647.11	0.701
647.30	0.697
647.49	0.699
647.68	0.699
647.88	0.698
648.07	0.692
648.26	0.695
648.45	0.697
648.64	0.694
648.83	0.691
649.02	0.694
649.21	0.704
649.40	0.703
649.59	0.698
649.78	0.698
649.97	0.711
650.16	0.711
650.35	0.704
650.54	0.707
650.73	0.715
650.92	0.712
651.11	0.705
651.30	0.703
651.49	0.707
651.68	0.708
651.87	0.704
652.06	0.695
652.25	0.699
652.44	0.703
652.63	0.703
652.82	0.704
653.01	0.705
653.20	0.703
653.39	0.693
653.58	0.690
653.77	0.689
653.96	0.685
654.15	0.677
654.34	0.675
654.53	0.670
654.72	0.663
654.91	0.653
655.10	0.649
655.29	0.646
655.48	0.644
655.67	0.638
655.86	0.636
656.05	0.634
656.24	0.633
656.43	0.628
656.62	0.627
656.81	0.626
657.00	0.623
657.19	0.619
657.38	0.618
657.57	0.617
657.76	0.619
657.95	0.617
658.14	0.620
658.33	0.622
658.51	0.626
658.70	0.627
658.89	0.629
659.08	0.639
659.27	0.648
659.46	0.649
659.65	0.655
659.84	0.659
660.03	0.662
660.22	0.663
660.41	0.667
660.60	0.667
660.79	0.668
660.98	0.674
661.17	0.673
661.36	0.672
661.55	0.673
661.74	0.671
661.92	0.673
662.11	0.676
662.30	0.675
662.49	0.669
662.68	0.668
662.87	0.672
663.06	0.665
663.25	0.666
663.44	0.665
663.63	0.667
663.82	0.665
664.01	0.660
664.20	0.658
664.38	0.660
664.57	0.660
664.76	0.659
664.95	0.659
665.14	0.664
665.33	0.659
665.52	0.667
665.71	0.671
665.90	0.671
666.09	0.673
666.28	0.670
666.46	0.669
666.65	0.670
666.84	0.668
667.03	0.664
667.22	0.662
667.41	0.665
667.60	0.654
667.79	0.647
667.98	0.649
668.16	0.649
668.35	0.649
668.54	0.646
668.73	0.646
668.92	0.647
669.11	0.645
669.30	0.640
669.49	0.636
669.67	0.639
669.86	0.641
670.05	0.639
670.24	0.636
670.43	0.634
670.62	0.633
670.81	0.628
671.00	0.628
671.18	0.628
671.37	0.627
671.56	0.626
671.75	0.625
671.94	0.621
672.13	0.619
672.32	0.615
672.50	0.614
672.69	0.615
672.88	0.615
673.07	0.611
673.26	0.613
673.45	0.614
673.63	0.613
673.82	0.609
674.01	0.611
674.20	0.612
674.39	0.611
674.58	0.611
674.76	0.610
674.95	0.609
675.14	0.609
675.33	0.604
675.52	0.603
675.71	0.603
675.89	0.603
676.08	0.598
676.27	0.598
676.46	0.598
676.65	0.597
676.84	0.597
677.02	0.599
677.21	0.600
677.40	0.600
677.59	0.597
677.78	0.598
677.96	0.601
678.15	0.600
678.34	0.599
678.53	0.598
678.72	0.599
678.90	0.595
679.09	0.592
679.28	0.589
679.47	0.589
679.66	0.588
679.84	0.585
680.03	0.582
680.22	0.581
680.41	0.582
680.60	0.579
680.78	0.578
680.97	0.580
681.16	0.580
681.35	0.579
681.53	0.577
681.72	0.579
681.91	0.580
682.10	0.579
682.29	0.581
682.47	0.579
682.66	0.577
682.85	0.576
683.04	0.574
683.22	0.574
683.41	0.576
683.60	0.575
683.79	0.576
683.97	0.575
684.16	0.574
684.35	0.572
684.54	0.572
684.72	0.574
684.91	0.575
685.10	0.573
685.29	0.574
685.47	0.572
685.66	0.571
685.85	0.568
686.04	0.567
686.22	0.569
686.41	0.571
686.60	0.568
686.79	0.571
686.97	0.571
687.16	0.572
687.35	0.570
687.54	0.573
687.72	0.577
687.91	0.578
688.10	0.579
688.29	0.579
688.47	0.576
688.66	0.576
688.85	0.573
689.03	0.571
689.22	0.575
689.41	0.575
689.60	0.571
689.78	0.568
689.97	0.568
690.16	0.565
690.34	0.562
690.53	0.562
690.72	0.562
690.91	0.559
691.09	0.558
691.28	0.552
691.47	0.550
691.65	0.549
691.84	0.546
692.03	0.545
692.21	0.543
692.40	0.543
692.59	0.541
692.77	0.540
692.96	0.541
693.15	0.542
693.34	0.539
693.52	0.539
693.71	0.540
693.90	0.541
694.08	0.542
694.27	0.543
694.46	0.552
694.64	0.553
694.83	0.552
695.02	0.550
695.20	0.549
695.39	0.549
695.58	0.549
695.76	0.550
695.95	0.549
696.14	0.548
696.32	0.545
696.51	0.536
696.70	0.536
696.88	0.537
697.07	0.536
697.26	0.538
697.44	0.540
697.63	0.538
697.81	0.536
698.00	0.536
698.19	0.536
698.37	0.537
698.56	0.536
698.75	0.536
698.93	0.536
699.12	0.535
699.31	0.535
699.49	0.534
699.68	0.535
699.87	0.537
700.05	0.537
700.24	0.537
700.42	0.538
700.61	0.538
700.80	0.536
700.98	0.536
701.17	0.538
701.36	0.536
701.54	0.535
701.73	0.536
701.91	0.533
702.10	0.533
702.29	0.531
702.47	0.530
702.66	0.531
702.84	0.532
703.03	0.530
703.22	0.531
703.40	0.530
703.59	0.532
703.77	0.531
703.96	0.531
704.15	0.532
704.33	0.532
704.52	0.531
704.70	0.530
704.89	0.530
705.08	0.528
705.26	0.524
705.45	0.525
705.63	0.524
705.82	0.520
706.00	0.519
706.19	0.519
706.38	0.519
706.56	0.518
706.75	0.516
706.93	0.515
707.12	0.517
707.30	0.517
707.49	0.515
707.68	0.514
707.86	0.514
708.05	0.514
708.23	0.511
708.42	0.512
708.60	0.514
708.79	0.514
708.98	0.513
709.16	0.512
709.35	0.514
709.53	0.518
709.72	0.517
709.90	0.519
710.09	0.520
710.27	0.522
710.46	0.526
710.64	0.525
710.83	0.527
711.02	0.529
711.20	0.528
711.39	0.526
711.57	0.523
711.76	0.523
711.94	0.521
712.13	0.522
712.31	0.521
712.50	0.516
712.68	0.513
712.87	0.514
713.05	0.514
713.24	0.515
713.42	0.515
713.61	0.516
713.79	0.516
713.98	0.517
714.16	0.518
714.35	0.517
714.54	0.518
714.72	0.519
714.91	0.517
715.09	0.523
715.28	0.526
715.46	0.526
715.65	0.524
715.83	0.524
716.02	0.526
716.20	0.522
716.39	0.522
716.57	0.523
716.76	0.525
716.94	0.525
717.12	0.517
717.31	0.519
717.49	0.521
717.68	0.522
717.86	0.523
718.05	0.524
718.23	0.527
718.42	0.529
718.60	0.530
718.79	0.538
718.97	0.539
719.16	0.539
719.34	0.536
719.53	0.535
719.71	0.536
719.90	0.537
720.08	0.534
720.27	0.534
720.45	0.534
720.63	0.531
720.82	0.526
721.00	0.528
721.19	0.530
721.37	0.530
721.56	0.530
721.74	0.532
721.93	0.541
722.11	0.547
722.30	0.547
722.48	0.551
722.66	0.553
722.85	0.552
723.03	0.553
723.22	0.553
723.40	0.556
723.59	0.557
723.77	0.561
723.95	0.554
724.14	0.557
724.32	0.559
724.51	0.558
724.69	0.560
724.88	0.561
725.06	0.560
725.24	0.561
725.43	0.564
725.61	0.565
725.80	0.559
725.98	0.557
726.16	0.554
726.35	0.559
726.53	0.558
726.72	0.557
726.90	0.567
727.09	0.568
727.27	0.573
727.45	0.569
727.64	0.577
727.82	0.585
728.01	0.590
728.19	0.587
728.37	0.591
728.56	0.594
728.74	0.600
728.92	0.588
729.11	0.589
729.29	0.587
729.48	0.589
729.66	0.580
729.84	0.580
730.03	0.582
730.21	0.586
730.40	0.578
730.58	0.580
730.76	0.580
730.95	0.584
731.13	0.586
731.31	0.599
731.50	0.608
731.68	0.613
731.86	0.608
732.05	0.623
732.23	0.625
732.42	0.628
732.60	0.633
732.78	0.638
732.97	0.654
733.15	0.660
733.33	0.648
733.52	0.653
733.70	0.662
733.88	0.672
734.07	0.658
734.25	0.682
734.43	0.688
734.62	0.690
734.80	0.684
734.98	0.677
735.17	0.681
735.35	0.688
735.53	0.678
735.72	0.679
735.90	0.699
736.08	0.718
736.27	0.697
736.45	0.706
736.63	0.715
736.82	0.724
737.00	0.725
737.18	0.737
737.37	0.764
737.55	0.789
737.73	0.788
737.92	0.789
738.10	0.786
738.28	0.805
738.46	0.794
738.65	0.806
738.83	0.827
739.01	0.879
739.20	0.867
739.38	0.851
739.56	0.836
739.75	0.842
739.93	0.812
740.11	0.833
740.29	0.828
740.48	0.833
740.66	0.815
740.84	0.811
741.03	0.772
741.21	0.786
741.39	0.771
741.57	0.784
741.76	0.794
741.94	0.799
742.12	0.769
742.31	0.777
742.49	0.794
742.67	0.818
742.85	0.829
743.04	0.836
743.22	0.839
743.40	0.887
743.58	0.875
743.77	0.891
743.95	0.920
744.13	0.965
744.31	0.952
744.50	0.946
744.68	0.939
744.86	0.915
745.04	0.927
745.23	0.992
745.41	0.971
745.59	0.972
745.77	0.944
745.96	0.942
746.14	0.945
746.32	0.939
746.50	0.934
746.69	0.921
746.87	0.928
747.05	0.917
747.23	0.847
747.42	0.833
747.60	0.852
747.78	0.853
747.96	0.874
748.14	0.837
748.33	0.864
748.51	0.860
748.69	0.857
748.87	0.884
749.06	0.876
749.24	0.874
749.42	0.862
749.60	0.849
749.78	0.857
749.97	0.821
750.15	0.815
750.33	0.813
750.51	0.832
750.69	0.831
750.88	0.839
751.06	0.847
751.24	0.870
751.42	0.864
751.60	0.858
751.79	0.927
751.97	0.967
752.15	0.966
752.33	0.937
752.51	0.997
752.69	1.010
752.88	0.971
753.06	1.017
753.24	0.994
753.42	1.024
753.60	1.170
753.78	1.037
753.97	1.047
754.15	1.060
754.33	1.092
754.51	0.990
754.69	0.979
754.87	1.012
755.06	0.946
755.24	0.946
755.42	0.951
755.60	0.857
755.78	0.870
755.96	0.822
756.15	0.822
756.33	0.820
756.51	0.837
756.69	0.825
756.87	0.794
757.05	0.811
757.23	0.801
757.42	0.773
757.60	0.775
757.78	0.763
757.96	0.761
758.14	0.749
758.32	0.740
758.50	0.750
758.69	0.751
758.87	0.743
759.05	0.745
759.23	0.750
759.41	0.749
759.59	0.743
759.77	0.761
759.95	0.788
760.13	0.832
760.32	0.830
760.50	0.822
760.68	0.840
760.86	0.844
761.04	0.820
761.22	0.829
761.40	0.873
761.58	0.872
761.76	0.848
761.95	0.830
762.13	0.789
762.31	0.790
762.49	0.763
762.67	0.778
762.85	0.789
763.03	0.786
763.21	0.768
763.39	0.749
763.57	0.749
763.75	0.747
763.94	0.736
764.12	0.738
764.30	0.760
764.48	0.764
764.66	0.735
764.84	0.733
765.02	0.766
765.20	0.771
765.38	0.756
765.56	0.765
765.74	0.800
765.92	0.798
766.10	0.801
766.28	0.791
766.46	0.815
766.65	0.815
766.83	0.803
767.01	0.789
767.19	0.796
767.37	0.794
767.55	0.781
767.73	0.762
767.91	0.761
768.09	0.752
768.27	0.744
768.45	0.734
768.63	0.737
768.81	0.740
768.99	0.716
769.17	0.733
769.35	0.744
769.53	0.741
769.71	0.725
769.89	0.734
770.07	0.738
770.25	0.724
770.43	0.708
770.61	0.729
770.79	0.733
770.97	0.741
771.15	0.716
771.33	0.719
771.51	0.724
771.69	0.734
771.87	0.743
772.05	0.749
772.24	0.754
772.42	0.760
772.60	0.740
772.78	0.796
772.96	0.824
773.14	0.819
773.32	0.801
773.49	0.807
773.67	0.804
773.85	0.786
774.03	0.776
774.21	0.807
774.39	0.815
774.57	0.837
774.75	0.769
774.93	0.764
775.11	0.783
775.29	0.792
775.47	0.792
775.65	0.800
775.83	0.812
776.01	0.833
776.19	0.791
776.37	0.793
776.55	0.792
776.73	0.788
776.91	0.783
777.09	0.769
777.27	0.764
777.45	0.754
777.63	0.733
777.81	0.731
777.99	0.720
778.17	0.716
778.35	0.697
778.53	0.685
778.71	0.691
778.89	0.681
779.07	0.674
779.24	0.677
779.42	0.679
779.60	0.698
779.78	0.695
779.96	0.696
780.14	0.704
780.32	0.722
780.50	0.711
780.68	0.707
780.86	0.697
781.04	0.712
781.22	0.720
781.40	0.729
781.58	0.718
781.75	0.713
781.93	0.699
782.11	0.699
782.29	0.686
782.47	0.685
782.65	0.674
782.83	0.703
783.01	0.694
783.19	0.687
783.37	0.675
783.55	0.678
783.72	0.693
783.90	0.702
784.08	0.694
784.26	0.706
784.44	0.724
784.62	0.728
784.80	0.695
784.98	0.702
785.16	0.705
785.33	0.715
785.51	0.703
785.69	0.691
785.87	0.690
786.05	0.700
786.23	0.695
786.41	0.693
786.59	0.698
786.77	0.700
786.94	0.690
787.12	0.694
787.30	0.694
787.48	0.693
787.66	0.683
787.84	0.686
788.02	0.676
788.19	0.674
788.37	0.662
788.55	0.663
788.73	0.662
788.91	0.656
789.09	0.639
789.27	0.631
789.44	0.640
789.62	0.645
789.80	0.652
789.98	0.675
790.16	0.663
790.34	0.660
790.51	0.648
790.69	0.667
790.87	0.671
791.05	0.671
791.23	0.665
791.41	0.668
791.58	0.675
791.76	0.656
791.94	0.631
792.12	0.639
792.30	0.641
792.48	0.639
792.65	0.632
792.83	0.639
793.01	0.645
793.19	0.642
793.37	0.628
793.54	0.624
793.72	0.635
793.90	0.631
794.08	0.621
794.26	0.622
794.43	0.629
794.61	0.615
794.79	0.606
794.97	0.604
795.15	0.609
795.32	0.612
795.50	0.602
795.68	0.597
795.86	0.601
796.04	0.602
796.21	0.597
796.39	0.596
796.57	0.607
796.75	0.613
796.92	0.616
797.10	0.621
797.28	0.621
797.46	0.623
797.64	0.624
797.81	0.631
797.99	0.635
798.17	0.637
798.35	0.631
798.52	0.636
798.70	0.632
798.88	0.637
799.06	0.637
799.23	0.641
799.41	0.650
799.59	0.644
799.77	0.634
799.94	0.642
800.12	0.650
800.30	0.669
800.48	0.669
800.65	0.668
800.83	0.659
801.01	0.651
801.19	0.651
801.36	0.647
801.54	0.649
801.72	0.657
801.90	0.645
802.07	0.642
802.25	0.628
802.43	0.613
802.60	0.612
802.78	0.618
802.96	0.621
803.14	0.615
803.31	0.615
803.49	0.615
803.67	0.611
803.84	0.615
804.02	0.607
804.20	0.609
804.38	0.614
804.55	0.612
804.73	0.601
804.91	0.600
805.08	0.612
805.26	0.608
805.44	0.670
805.61	0.673
805.79	0.673
805.97	0.675
806.15	0.668
806.32	0.664
806.50	0.669
806.68	0.670
806.85	0.663
807.03	0.653
807.21	0.667
807.38	0.603
807.56	0.594
807.74	0.604
807.91	0.606
808.09	0.608
808.27	0.624
808.44	0.649
808.62	0.655
808.80	0.659
808.97	0.653
809.15	0.647
809.33	0.662
809.50	0.669
809.68	0.655
809.86	0.665
810.03	0.693
810.21	0.673
810.39	0.656
810.56	0.661
810.74	0.683
810.91	0.752
811.09	0.744
811.27	0.763
811.44	0.769
811.62	0.771
811.80	0.756
811.97	0.730
812.15	0.730
812.33	0.728
812.50	0.714
812.68	0.702
812.85	0.650
813.03	0.651
813.21	0.623
813.38	0.617
813.56	0.620
813.74	0.629
813.91	0.635
814.09	0.663
814.26	0.656
814.44	0.660
814.62	0.650
814.79	0.650
814.97	0.655
815.14	0.660
815.32	0.661
815.50	0.676
815.67	0.677
815.85	0.669
816.02	0.659
816.20	0.668
816.38	0.679
816.55	0.685
816.73	0.687
816.90	0.696
817.08	0.720
817.26	0.726
817.43	0.708
817.61	0.733
817.78	0.751
817.96	0.733
818.13	0.722
818.31	0.722
818.49	0.734
818.66	0.725
818.84	0.713
819.01	0.695
819.19	0.703
819.36	0.708
819.54	0.682
819.71	0.718
819.89	0.729
820.07	0.739
820.24	0.736
820.42	0.734
820.59	0.749
820.77	0.774
820.94	0.767
821.12	0.783
821.29	0.790
821.47	0.791
821.64	0.735
821.82	0.746
822.00	0.745
822.17	0.742
822.35	0.739
822.52	0.739
822.70	0.722
822.87	0.731
823.05	0.711
823.22	0.724
823.40	0.743
823.57	0.764
823.75	0.753
823.92	0.774
824.10	0.792
824.27	0.828
824.45	0.827
824.62	0.888
824.80	0.899
824.97	0.915
825.15	0.909
825.32	0.927
825.50	0.920
825.67	0.928
825.85	0.906
826.02	0.920
826.20	0.936
826.37	1.051
826.55	0.977
826.72	1.139
826.90	1.198
827.07	1.246
827.25	1.191
827.42	1.340
827.60	1.449
827.77	1.611
827.95	1.585
828.12	1.687
828.30	1.351
828.47	1.454
828.65	1.162
828.82	1.203
829.00	1.233
829.17	1.296
829.34	1.296
829.52	1.313
829.69	-0.000
829.87	-0.000
830.04	-0.000
830.22	-0.000
830.39	-0.000
830.57	-0.000
830.74	-0.000
830.92	-0.000
831.09	-0.000
831.26	-0.000
831.44	-0.000
831.61	-0.000
831.79	-0.000
831.96	-0.000
832.14	-0.000
832.31	-0.000
832.49	-0.000
832.66	-0.000
832.83	-0.000
833.01	-0.000
833.18	-0.000
833.36	-0.000
833.53	-0.000
833.70	-0.000
833.88	-0.000
834.05	-0.000
834.23	-0.000
834.40	-0.000
834.58	-0.000
834.75	-0.000
834.92	-0.000
835.10	-0.000
835.27	-0.000
835.45	-0.000
835.62	-0.000
835.79	-0.000
835.97	-0.000
836.14	-0.000
836.32	-0.000
836.49	-0.000
836.66	-0.000
836.84	-0.000
837.01	-0.000
837.18	-0.000
837.36	-0.000
837.53	-0.000
837.71	-0.000
837.88	-0.000
838.05	-0.000
838.23	-0.000
838.40	-0.000
838.58	-0.000
838.75	-0.000
838.92	-0.000
839.10	-0.000
839.27	-0.000
839.44	-0.000
839.62	-0.000
839.79	-0.000
839.96	-0.000
840.14	-0.000
840.31	-0.000
840.48	-0.000
840.66	-0.000
840.83	-0.000
841.01	-0.000
841.18	-0.000
841.35	-0.000
841.53	-0.000
841.70	-0.000
841.87	-0.000
842.05	-0.000
842.22	-0.000
842.39	-0.000
842.57	-0.000
842.74	-0.000
842.91	-0.000
843.09	-0.000
843.26	-0.000
843.43	-0.000
843.60	-0.000
843.78	-0.000
843.95	-0.000
844.12	-0.000
844.30	-0.000
844.47	-0.000
844.64	-0.000
844.82	-0.000
844.99	-0.000
845.16	-0.000
845.34	-0.000
845.51	-0.000
845.68	-0.000
845.85	-0.000
846.03	-0.000
846.20	-0.000
846.37	-0.000
846.55	-0.000
846.72	-0.000
846.89	-0.000
847.06	-0.000
847.24	-0.000
847.41	-0.000
847.58	-0.000
847.76	-0.000
847.93	-0.000
848.10	-0.000
848.27	-0.000
848.45	-0.000
848.62	-0.000
848.79	-0.000
848.97	-0.000
849.14	-0.000
849.31	-0.000
849.48	-0.000
849.66	-0.000
849.83	-0.000
850.00	-0.000
850.17	-0.000
850.35	-0.000
850.52	-0.000
850.69	-0.000
850.86	-0.000
851.04	-0.000
851.21	-0.000
851.38	-0.000
851.55	-0.000
851.72	-0.000
851.90	-0.000
852.07	-0.000
852.24	-0.000
852.41	-0.000
852.59	-0.000
852.76	-0.000
852.93	-0.000
853.10	-0.000
853.28	-0.000
853.45	-0.000
853.62	-0.000
853.79	-0.000
853.96	-0.000
854.14	-0.000
854.31	-0.000
854.48	-0.000
854.65	-0.000
854.82	-0.000
855.00	-0.000
855.17	-0.000
855.34	-0.000
855.51	-0.000
855.68	-0.000
855.86	-0.000
856.03	-0.000
856.20	-0.000
856.37	-0.000
856.54	-0.000
856.72	-0.000
856.89	-0.000
857.06	-0.000
857.23	-0.000
857.40	-0.000
857.57	-0.000
857.75	-0.000
857.92	-0.000
858.09	-0.000
858.26	-0.000
858.43	-0.000
858.60	-0.000
858.78	-0.000
858.95	-0.000
859.12	-0.000
859.29	-0.000
859.46	-0.000
859.63	-0.000
859.81	-0.000
859.98	-0.000
860.15	-0.000
860.32	-0.000
860.49	-0.000
860.66	-0.000
860.83	-0.000
861.01	-0.000
861.18	-0.000
861.35	-0.000
861.52	-0.000
861.69	-0.000
861.86	-0.000
862.03	-0.000
862.21	-0.000
862.38	-0.000
862.55	-0.000
862.72	-0.000
862.89	-0.000
863.06	-0.000
863.23	-0.000
863.40	-0.000
863.58	-0.000
863.75	-0.000
863.92	-0.000
864.09	-0.000
864.26	-0.000
864.43	-0.000
864.60	-0.000
864.77	-0.000
864.94	-0.000
865.11	-0.000
865.29	-0.000
865.46	-0.000
865.63	-0.000
865.80	-0.000
865.97	-0.000
866.14	-0.000
866.31	-0.000
866.48	-0.000
866.65	-0.000
866.82	-0.000
866.99	-0.000
867.16	-0.000
867.34	-0.000
867.51	-0.000
867.68	-0.000
867.85	-0.000
868.02	-0.000
868.19	-0.000
868.36	-0.000
868.53	-0.000
868.70	-0.000
868.87	-0.000
869.04	-0.000
869.21	-0.000
869.38	-0.000
869.55	-0.000
869.72	-0.000
869.89	-0.000
870.06	-0.000
870.24	-0.000
870.41	-0.000
870.58	-0.000
870.75	-0.000
870.92	-0.000
871.09	-0.000
871.26	-0.000
871.43	-0.000
871.60	-0.000
871.77	-0.000
871.94	-0.000
872.11	-0.000
872.28	-0.000
872.45	-0.000
872.62	-0.000
872.79	-0.000
872.96	-0.000
873.13	-0.000
873.30	-0.000
873.47	-0.000
873.64	-0.000
873.81	-0.000
873.98	-0.000
874.15	-0.000
874.32	-0.000
874.49	-0.000
874.66	-0.000
874.83	-0.000
875.00	-0.000
875.17	-0.000
875.34	-0.000
875.51	-0.000
875.68	-0.000
875.85	-0.000
876.02	-0.000
876.19	-0.000
876.36	-0.000
876.53	-0.000
876.70	-0.000
876.87	-0.000
877.04	-0.000
877.21	-0.000
877.38	-0.000
877.55	-0.000
877.72	-0.000
877.89	-0.000
878.06	-0.000
878.23	-0.000
878.39	-0.000
878.56	-0.000
878.73	-0.000
878.90	-0.000
879.07	-0.000
879.24	-0.000
879.41	-0.000
879.58	-0.000
879.75	-0.000
879.92	-0.000
880.09	-0.000
880.26	-0.000
880.43	-0.000
880.60	-0.000
880.77	-0.000
880.94	-0.000
881.11	-0.000
881.27	-0.000
881.44	-0.000
881.61	-0.000
881.78	-0.000
881.95	-0.000
882.12	-0.000
882.29	-0.000
882.46	-0.000
882.63	-0.000
882.80	-0.000
882.97	-0.000
883.14	-0.000
883.30	-0.000
883.47	-0.000
883.64	-0.000
883.81	-0.000
883.98	-0.000
884.15	-0.000
884.32	-0.000
884.49	-0.000
884.66	-0.000
884.82	-0.000
884.99	-0.000
885.16	-0.000
885.33	-0.000
885.50	-0.000
885.67	-0.000
885.84	-0.000
886.01	-0.000
886.17	-0.000
886.34	-0.000
886.51	-0.000
886.68	-0.000
886.85	-0.000
887.02	-0.000
887.19	-0.000
887.36	-0.000
887.52	-0.000
887.69	-0.000
887.86	-0.000
888.03	-0.000
888.20	-0.000
888.37	-0.000
888.54	-0.000
888.70	-0.000
888.87	-0.000
889.04	-0.000
889.21	-0.000
889.38	-0.000
889.55	-0.000
889.71	-0.000
889.88	-0.000
890.05	-0.000
890.22	-0.000
890.39	-0.000
>>>>>End Processed Spectral Data<<<<<
