SpectraSuite Data File
++++++++++++++++++++++++++++++++++++
Date: Fri Jun 19 11:37:54 CEST 2015
User: introlabs
Dark Spectrum Present: Yes
Reference Spectrum Present: Yes
Number of Sampled Component Spectra: 1
Spectrometers: USB4H08886
Integration Time (usec): 5245692 (USB4H08886)
Spectra Averaged: 5 (USB4H08886)
Boxcar Smoothing: 5 (USB4H08886)
Correct for Electrical Dark: Yes (USB4H08886)
Strobe/Lamp Enabled: No (USB4H08886)
Correct for Detector Non-linearity: Yes (USB4H08886)
Correct for Stray Light: Yes (USB4H08886)
Number of Pixels in Processed Spectrum: 3648
>>>>>Begin Processed Spectral Data<<<<<
178.14	-0.000
178.36	-0.000
178.57	-0.000
178.79	-0.000
179.01	-0.000
179.22	-0.000
179.44	-0.000
179.65	-0.000
179.87	-0.000
180.08	-0.000
180.30	-0.000
180.52	-0.000
180.73	-0.000
180.95	-0.000
181.16	-0.000
181.38	-0.000
181.59	-0.000
181.81	-0.000
182.03	-0.000
182.24	-0.000
182.46	-0.000
182.67	-0.000
182.89	-0.000
183.10	-0.000
183.32	-0.000
183.54	-0.000
183.75	-0.000
183.97	-0.000
184.18	-0.000
184.40	-0.000
184.61	-0.000
184.83	-0.000
185.04	-0.000
185.26	-0.000
185.48	-0.000
185.69	-0.000
185.91	-0.000
186.12	-0.000
186.34	-0.000
186.55	-0.000
186.77	-0.000
186.98	-0.000
187.20	-0.000
187.42	-0.000
187.63	-0.000
187.85	-0.000
188.06	-0.000
188.28	-0.000
188.49	-0.000
188.71	-0.000
188.92	-0.000
189.14	-0.000
189.36	-0.000
189.57	-0.000
189.79	-0.000
190.00	-0.000
190.22	-0.000
190.43	-0.000
190.65	-0.000
190.86	-0.000
191.08	-0.000
191.29	-0.000
191.51	-0.000
191.72	-0.000
191.94	-0.000
192.16	-0.000
192.37	-0.000
192.59	-0.000
192.80	-0.000
193.02	-0.000
193.23	-0.000
193.45	-0.000
193.66	-0.000
193.88	-0.000
194.09	-0.000
194.31	-0.000
194.52	-0.000
194.74	-0.000
194.95	-0.000
195.17	-0.000
195.38	-0.000
195.60	-0.000
195.81	-0.000
196.03	-0.000
196.25	-0.000
196.46	-0.000
196.68	-0.000
196.89	-0.000
197.11	-0.000
197.32	-0.000
197.54	-0.000
197.75	-0.000
197.97	-0.000
198.18	-0.000
198.40	-0.000
198.61	-0.000
198.83	-0.000
199.04	-0.000
199.26	-0.000
199.47	-0.000
199.69	-0.000
199.90	-0.000
200.12	-0.000
200.33	-0.000
200.55	-0.000
200.76	-0.000
200.98	-0.000
201.19	-0.000
201.41	-0.000
201.62	-0.000
201.84	-0.000
202.05	-0.000
202.27	-0.000
202.48	-0.000
202.70	-0.000
202.91	-0.000
203.13	-0.000
203.34	-0.000
203.56	-0.000
203.77	-0.000
203.99	-0.000
204.20	-0.000
204.42	-0.000
204.63	-0.000
204.85	-0.000
205.06	-0.000
205.28	-0.000
205.49	-0.000
205.71	-0.000
205.92	-0.000
206.14	-0.000
206.35	-0.000
206.56	-0.000
206.78	-0.000
206.99	-0.000
207.21	-0.000
207.42	-0.000
207.64	-0.000
207.85	-0.000
208.07	-0.000
208.28	-0.000
208.50	-0.000
208.71	-0.000
208.93	-0.000
209.14	-0.000
209.36	-0.000
209.57	-0.000
209.79	-0.000
210.00	-0.000
210.22	-0.000
210.43	-0.000
210.64	-0.000
210.86	-0.000
211.07	-0.000
211.29	-0.000
211.50	-0.000
211.72	-0.000
211.93	-0.000
212.15	-0.000
212.36	-0.000
212.58	-0.000
212.79	-0.000
213.01	-0.000
213.22	-0.000
213.43	-0.000
213.65	-0.000
213.86	-0.000
214.08	-0.000
214.29	-0.000
214.51	-0.000
214.72	-0.000
214.94	-0.000
215.15	-0.000
215.36	-0.000
215.58	-0.000
215.79	-0.000
216.01	-0.000
216.22	-0.000
216.44	-0.000
216.65	-0.000
216.87	-0.000
217.08	-0.000
217.29	-0.000
217.51	-0.000
217.72	-0.000
217.94	-0.000
218.15	-0.000
218.37	-0.000
218.58	-0.000
218.80	-0.000
219.01	-0.000
219.22	-0.000
219.44	-0.000
219.65	-0.000
219.87	-0.000
220.08	-0.000
220.30	-0.000
220.51	-0.000
220.72	-0.000
220.94	-0.000
221.15	-0.000
221.37	-0.000
221.58	-0.000
221.79	-0.000
222.01	-0.000
222.22	-0.000
222.44	-0.000
222.65	-0.000
222.87	-0.000
223.08	-0.000
223.29	-0.000
223.51	-0.000
223.72	-0.000
223.94	-0.000
224.15	-0.000
224.36	-0.000
224.58	-0.000
224.79	-0.000
225.01	-0.000
225.22	-0.000
225.44	-0.000
225.65	-0.000
225.86	-0.000
226.08	-0.000
226.29	-0.000
226.51	-0.000
226.72	-0.000
226.93	-0.000
227.15	-0.000
227.36	-0.000
227.58	-0.000
227.79	-0.000
228.00	-0.000
228.22	-0.000
228.43	-0.000
228.65	-0.000
228.86	-0.000
229.07	-0.000
229.29	-0.000
229.50	-0.000
229.72	-0.000
229.93	-0.000
230.14	-0.000
230.36	-0.000
230.57	-0.000
230.78	-0.000
231.00	-0.000
231.21	-0.000
231.43	-0.000
231.64	-0.000
231.85	-0.000
232.07	-0.000
232.28	-0.000
232.50	-0.000
232.71	-0.000
232.92	-0.000
233.14	-0.000
233.35	-0.000
233.56	-0.000
233.78	-0.000
233.99	-0.000
234.21	-0.000
234.42	-0.000
234.63	-0.000
234.85	-0.000
235.06	-0.000
235.27	-0.000
235.49	-0.000
235.70	-0.000
235.91	-0.000
236.13	-0.000
236.34	-0.000
236.56	-0.000
236.77	-0.000
236.98	-0.000
237.20	-0.000
237.41	-0.000
237.62	-0.000
237.84	-0.000
238.05	-0.000
238.26	-0.000
238.48	-0.000
238.69	-0.000
238.91	-0.000
239.12	-0.000
239.33	-0.000
239.55	-0.000
239.76	-0.000
239.97	-0.000
240.19	-0.000
240.40	-0.000
240.61	-0.000
240.83	-0.000
241.04	-0.000
241.25	-0.000
241.47	-0.000
241.68	-0.000
241.89	-0.000
242.11	-0.000
242.32	-0.000
242.53	-0.000
242.75	-0.000
242.96	-0.000
243.17	-0.000
243.39	-0.000
243.60	-0.000
243.81	-0.000
244.03	-0.000
244.24	-0.000
244.45	-0.000
244.67	-0.000
244.88	-0.000
245.09	-0.000
245.31	-0.000
245.52	-0.000
245.73	-0.000
245.95	-0.000
246.16	-0.000
246.37	-0.000
246.59	-0.000
246.80	-0.000
247.01	-0.000
247.23	-0.000
247.44	-0.000
247.65	-0.000
247.87	-0.000
248.08	-0.000
248.29	-0.000
248.51	-0.000
248.72	-0.000
248.93	-0.000
249.15	-0.000
249.36	-0.000
249.57	-0.000
249.78	-0.000
250.00	-0.000
250.21	-0.000
250.42	-0.000
250.64	-0.000
250.85	-0.000
251.06	-0.000
251.28	-0.000
251.49	-0.000
251.70	-0.000
251.92	-0.000
252.13	-0.000
252.34	-0.000
252.55	-0.000
252.77	-0.000
252.98	-0.000
253.19	-0.000
253.41	-0.000
253.62	-0.000
253.83	-0.000
254.05	-0.000
254.26	-0.000
254.47	-0.000
254.68	-0.000
254.90	-0.000
255.11	-0.000
255.32	-0.000
255.54	-0.000
255.75	-0.000
255.96	-0.000
256.17	1.465
256.39	1.479
256.60	1.814
256.81	1.723
257.03	1.911
257.24	-0.000
257.45	-0.000
257.66	2.338
257.88	1.689
258.09	1.437
258.30	1.391
258.51	1.338
258.73	1.220
258.94	1.049
259.15	0.986
259.37	0.949
259.58	0.866
259.79	0.864
260.00	0.919
260.22	0.995
260.43	0.985
260.64	0.935
260.85	0.971
261.07	0.900
261.28	0.990
261.49	0.990
261.71	0.995
261.92	1.155
262.13	1.039
262.34	0.982
262.56	0.916
262.77	0.894
262.98	0.876
263.19	0.879
263.41	0.971
263.62	0.945
263.83	0.943
264.04	0.918
264.26	0.821
264.47	0.851
264.68	0.865
264.89	0.900
265.11	0.891
265.32	0.928
265.53	0.876
265.74	0.849
265.96	0.842
266.17	0.862
266.38	0.822
266.59	0.887
266.81	0.867
267.02	0.796
267.23	0.736
267.44	0.760
267.65	0.725
267.87	0.739
268.08	0.711
268.29	0.664
268.50	0.645
268.72	0.645
268.93	0.605
269.14	0.595
269.35	0.602
269.57	0.594
269.78	0.571
269.99	0.567
270.20	0.548
270.41	0.540
270.63	0.542
270.84	0.540
271.05	0.529
271.26	0.528
271.48	0.534
271.69	0.545
271.90	0.541
272.11	0.541
272.32	0.555
272.54	0.550
272.75	0.546
272.96	0.545
273.17	0.521
273.39	0.529
273.60	0.527
273.81	0.536
274.02	0.531
274.23	0.540
274.45	0.546
274.66	0.523
274.87	0.523
275.08	0.511
275.29	0.521
275.51	0.528
275.72	0.515
275.93	0.508
276.14	0.477
276.35	0.475
276.57	0.464
276.78	0.468
276.99	0.465
277.20	0.466
277.41	0.462
277.63	0.440
277.84	0.432
278.05	0.435
278.26	0.428
278.47	0.435
278.69	0.415
278.90	0.410
279.11	0.394
279.32	0.389
279.53	0.377
279.74	0.383
279.96	0.383
280.17	0.378
280.38	0.379
280.59	0.382
280.80	0.382
281.02	0.387
281.23	0.386
281.44	0.384
281.65	0.383
281.86	0.391
282.07	0.382
282.29	0.383
282.50	0.385
282.71	0.373
282.92	0.362
283.13	0.353
283.35	0.350
283.56	0.345
283.77	0.348
283.98	0.347
284.19	0.336
284.40	0.334
284.62	0.326
284.83	0.319
285.04	0.315
285.25	0.313
285.46	0.307
285.67	0.302
285.88	0.302
286.10	0.297
286.31	0.296
286.52	0.297
286.73	0.295
286.94	0.294
287.15	0.289
287.37	0.292
287.58	0.290
287.79	0.288
288.00	0.287
288.21	0.284
288.42	0.277
288.63	0.273
288.85	0.267
289.06	0.260
289.27	0.257
289.48	0.254
289.69	0.247
289.90	0.243
290.11	0.241
290.33	0.236
290.54	0.234
290.75	0.236
290.96	0.233
291.17	0.233
291.38	0.233
291.59	0.231
291.81	0.233
292.02	0.233
292.23	0.233
292.44	0.231
292.65	0.231
292.86	0.228
293.07	0.224
293.28	0.224
293.50	0.221
293.71	0.220
293.92	0.219
294.13	0.214
294.34	0.212
294.55	0.210
294.76	0.209
294.97	0.208
295.19	0.207
295.40	0.205
295.61	0.203
295.82	0.204
296.03	0.204
296.24	0.203
296.45	0.203
296.66	0.205
296.87	0.205
297.09	0.206
297.30	0.204
297.51	0.203
297.72	0.202
297.93	0.201
298.14	0.199
298.35	0.198
298.56	0.199
298.77	0.197
298.99	0.196
299.20	0.193
299.41	0.192
299.62	0.193
299.83	0.191
300.04	0.191
300.25	0.190
300.46	0.190
300.67	0.189
300.88	0.187
301.10	0.187
301.31	0.185
301.52	0.185
301.73	0.184
301.94	0.183
302.15	0.183
302.36	0.184
302.57	0.184
302.78	0.183
302.99	0.182
303.20	0.181
303.41	0.182
303.63	0.182
303.84	0.183
304.05	0.182
304.26	0.181
304.47	0.180
304.68	0.179
304.89	0.178
305.10	0.179
305.31	0.177
305.52	0.176
305.73	0.177
305.94	0.176
306.15	0.175
306.37	0.174
306.58	0.173
306.79	0.173
307.00	0.173
307.21	0.172
307.42	0.171
307.63	0.171
307.84	0.172
308.05	0.170
308.26	0.170
308.47	0.170
308.68	0.169
308.89	0.169
309.10	0.169
309.31	0.168
309.52	0.168
309.73	0.168
309.95	0.168
310.16	0.166
310.37	0.166
310.58	0.165
310.79	0.164
311.00	0.164
311.21	0.164
311.42	0.164
311.63	0.163
311.84	0.163
312.05	0.162
312.26	0.161
312.47	0.161
312.68	0.161
312.89	0.161
313.10	0.161
313.31	0.162
313.52	0.160
313.73	0.159
313.94	0.160
314.15	0.160
314.36	0.160
314.57	0.161
314.78	0.161
314.99	0.161
315.21	0.160
315.42	0.159
315.63	0.159
315.84	0.159
316.05	0.159
316.26	0.158
316.47	0.157
316.68	0.157
316.89	0.157
317.10	0.157
317.31	0.157
317.52	0.157
317.73	0.157
317.94	0.157
318.15	0.156
318.36	0.156
318.57	0.157
318.78	0.157
318.99	0.156
319.20	0.157
319.41	0.157
319.62	0.156
319.83	0.157
320.04	0.156
320.25	0.156
320.46	0.156
320.67	0.156
320.88	0.155
321.09	0.155
321.30	0.155
321.51	0.154
321.72	0.153
321.93	0.153
322.14	0.152
322.35	0.151
322.56	0.152
322.77	0.151
322.98	0.151
323.19	0.149
323.40	0.149
323.61	0.149
323.82	0.149
324.03	0.148
324.24	0.149
324.45	0.148
324.66	0.149
324.87	0.148
325.08	0.148
325.29	0.149
325.50	0.150
325.71	0.150
325.92	0.150
326.13	0.150
326.34	0.150
326.55	0.150
326.76	0.151
326.97	0.150
327.18	0.150
327.39	0.150
327.60	0.148
327.80	0.147
328.01	0.147
328.22	0.147
328.43	0.147
328.64	0.146
328.85	0.145
329.06	0.145
329.27	0.145
329.48	0.144
329.69	0.144
329.90	0.145
330.11	0.146
330.32	0.146
330.53	0.145
330.74	0.145
330.95	0.145
331.16	0.145
331.37	0.145
331.58	0.145
331.79	0.145
332.00	0.145
332.21	0.144
332.42	0.144
332.63	0.144
332.83	0.144
333.04	0.144
333.25	0.143
333.46	0.143
333.67	0.142
333.88	0.143
334.09	0.141
334.30	0.143
334.51	0.142
334.72	0.143
334.93	0.142
335.14	0.142
335.35	0.141
335.56	0.142
335.77	0.142
335.98	0.142
336.18	0.142
336.39	0.142
336.60	0.141
336.81	0.141
337.02	0.141
337.23	0.141
337.44	0.140
337.65	0.141
337.86	0.140
338.07	0.140
338.28	0.140
338.49	0.140
338.70	0.140
338.91	0.140
339.11	0.139
339.32	0.139
339.53	0.139
339.74	0.139
339.95	0.139
340.16	0.139
340.37	0.139
340.58	0.139
340.79	0.139
341.00	0.139
341.21	0.138
341.41	0.138
341.62	0.138
341.83	0.138
342.04	0.137
342.25	0.137
342.46	0.137
342.67	0.136
342.88	0.136
343.09	0.136
343.30	0.135
343.50	0.135
343.71	0.135
343.92	0.135
344.13	0.135
344.34	0.134
344.55	0.134
344.76	0.134
344.97	0.134
345.18	0.134
345.38	0.134
345.59	0.134
345.80	0.134
346.01	0.135
346.22	0.135
346.43	0.135
346.64	0.135
346.85	0.136
347.06	0.135
347.26	0.135
347.47	0.134
347.68	0.135
347.89	0.134
348.10	0.135
348.31	0.133
348.52	0.133
348.73	0.133
348.93	0.133
349.14	0.133
349.35	0.133
349.56	0.133
349.77	0.134
349.98	0.133
350.19	0.133
350.39	0.133
350.60	0.133
350.81	0.132
351.02	0.132
351.23	0.131
351.44	0.131
351.65	0.131
351.86	0.131
352.06	0.131
352.27	0.131
352.48	0.131
352.69	0.131
352.90	0.131
353.11	0.131
353.31	0.131
353.52	0.132
353.73	0.131
353.94	0.131
354.15	0.131
354.36	0.131
354.57	0.131
354.77	0.131
354.98	0.131
355.19	0.131
355.40	0.130
355.61	0.130
355.82	0.130
356.02	0.130
356.23	0.129
356.44	0.130
356.65	0.130
356.86	0.129
357.07	0.129
357.27	0.129
357.48	0.128
357.69	0.128
357.90	0.128
358.11	0.129
358.32	0.128
358.52	0.128
358.73	0.127
358.94	0.127
359.15	0.128
359.36	0.128
359.56	0.128
359.77	0.128
359.98	0.128
360.19	0.128
360.40	0.128
360.61	0.129
360.81	0.128
361.02	0.128
361.23	0.128
361.44	0.128
361.65	0.128
361.85	0.128
362.06	0.128
362.27	0.127
362.48	0.127
362.69	0.127
362.89	0.127
363.10	0.127
363.31	0.127
363.52	0.127
363.73	0.127
363.93	0.128
364.14	0.128
364.35	0.127
364.56	0.128
364.77	0.128
364.97	0.128
365.18	0.128
365.39	0.127
365.60	0.127
365.81	0.127
366.01	0.127
366.22	0.127
366.43	0.127
366.64	0.127
366.84	0.126
367.05	0.126
367.26	0.125
367.47	0.125
367.68	0.125
367.88	0.126
368.09	0.126
368.30	0.125
368.51	0.125
368.71	0.125
368.92	0.125
369.13	0.125
369.34	0.125
369.55	0.125
369.75	0.125
369.96	0.125
370.17	0.125
370.38	0.125
370.58	0.125
370.79	0.124
371.00	0.125
371.21	0.125
371.41	0.125
371.62	0.124
371.83	0.124
372.04	0.124
372.24	0.124
372.45	0.123
372.66	0.123
372.87	0.124
373.07	0.124
373.28	0.123
373.49	0.123
373.70	0.123
373.90	0.123
374.11	0.123
374.32	0.124
374.53	0.123
374.73	0.124
374.94	0.123
375.15	0.123
375.36	0.123
375.56	0.122
375.77	0.122
375.98	0.122
376.19	0.122
376.39	0.123
376.60	0.122
376.81	0.122
377.02	0.122
377.22	0.122
377.43	0.122
377.64	0.123
377.84	0.123
378.05	0.123
378.26	0.123
378.47	0.123
378.67	0.122
378.88	0.122
379.09	0.122
379.30	0.123
379.50	0.122
379.71	0.122
379.92	0.121
380.12	0.121
380.33	0.121
380.54	0.122
380.75	0.122
380.95	0.122
381.16	0.122
381.37	0.122
381.57	0.121
381.78	0.121
381.99	0.121
382.20	0.121
382.40	0.121
382.61	0.121
382.82	0.121
383.02	0.121
383.23	0.120
383.44	0.120
383.64	0.120
383.85	0.120
384.06	0.120
384.27	0.121
384.47	0.121
384.68	0.121
384.89	0.121
385.09	0.121
385.30	0.121
385.51	0.121
385.71	0.121
385.92	0.120
386.13	0.120
386.33	0.120
386.54	0.120
386.75	0.119
386.95	0.119
387.16	0.119
387.37	0.119
387.58	0.119
387.78	0.118
387.99	0.119
388.20	0.118
388.40	0.119
388.61	0.118
388.82	0.118
389.02	0.118
389.23	0.118
389.44	0.118
389.64	0.118
389.85	0.117
390.06	0.117
390.26	0.116
390.47	0.117
390.68	0.116
390.88	0.116
391.09	0.116
391.30	0.116
391.50	0.116
391.71	0.116
391.92	0.116
392.12	0.116
392.33	0.116
392.53	0.116
392.74	0.116
392.95	0.116
393.15	0.116
393.36	0.116
393.57	0.116
393.77	0.116
393.98	0.116
394.19	0.116
394.39	0.116
394.60	0.116
394.81	0.116
395.01	0.116
395.22	0.116
395.43	0.116
395.63	0.115
395.84	0.114
396.04	0.114
396.25	0.114
396.46	0.113
396.66	0.114
396.87	0.114
397.08	0.114
397.28	0.113
397.49	0.113
397.69	0.113
397.90	0.114
398.11	0.114
398.31	0.114
398.52	0.114
398.73	0.115
398.93	0.114
399.14	0.114
399.34	0.114
399.55	0.114
399.76	0.115
399.96	0.114
400.17	0.114
400.37	0.114
400.58	0.114
400.79	0.113
400.99	0.113
401.20	0.113
401.41	0.113
401.61	0.113
401.82	0.113
402.02	0.112
402.23	0.112
402.44	0.112
402.64	0.112
402.85	0.112
403.05	0.111
403.26	0.111
403.47	0.111
403.67	0.111
403.88	0.111
404.08	0.111
404.29	0.111
404.50	0.111
404.70	0.111
404.91	0.111
405.11	0.111
405.32	0.111
405.52	0.111
405.73	0.111
405.94	0.110
406.14	0.110
406.35	0.110
406.55	0.110
406.76	0.110
406.97	0.110
407.17	0.110
407.38	0.110
407.58	0.109
407.79	0.109
407.99	0.109
408.20	0.109
408.41	0.109
408.61	0.109
408.82	0.109
409.02	0.109
409.23	0.109
409.43	0.108
409.64	0.108
409.84	0.109
410.05	0.109
410.26	0.109
410.46	0.109
410.67	0.109
410.87	0.109
411.08	0.109
411.28	0.109
411.49	0.109
411.69	0.108
411.90	0.109
412.11	0.108
412.31	0.108
412.52	0.108
412.72	0.108
412.93	0.108
413.13	0.108
413.34	0.108
413.54	0.108
413.75	0.108
413.95	0.108
414.16	0.108
414.37	0.108
414.57	0.108
414.78	0.107
414.98	0.108
415.19	0.108
415.39	0.108
415.60	0.107
415.80	0.107
416.01	0.107
416.21	0.107
416.42	0.107
416.62	0.107
416.83	0.106
417.03	0.106
417.24	0.106
417.44	0.106
417.65	0.106
417.86	0.107
418.06	0.107
418.27	0.107
418.47	0.107
418.68	0.107
418.88	0.107
419.09	0.107
419.29	0.107
419.50	0.107
419.70	0.107
419.91	0.107
420.11	0.107
420.32	0.106
420.52	0.107
420.73	0.107
420.93	0.106
421.14	0.106
421.34	0.106
421.55	0.106
421.75	0.106
421.96	0.106
422.16	0.106
422.37	0.106
422.57	0.106
422.78	0.105
422.98	0.105
423.19	0.105
423.39	0.105
423.60	0.105
423.80	0.105
424.01	0.105
424.21	0.105
424.42	0.104
424.62	0.105
424.83	0.105
425.03	0.105
425.23	0.105
425.44	0.105
425.64	0.105
425.85	0.105
426.05	0.105
426.26	0.105
426.46	0.105
426.67	0.104
426.87	0.104
427.08	0.104
427.28	0.104
427.49	0.104
427.69	0.104
427.90	0.104
428.10	0.104
428.31	0.104
428.51	0.104
428.71	0.105
428.92	0.105
429.12	0.105
429.33	0.106
429.53	0.106
429.74	0.105
429.94	0.105
430.15	0.106
430.35	0.105
430.56	0.105
430.76	0.105
430.96	0.105
431.17	0.105
431.37	0.105
431.58	0.105
431.78	0.105
431.99	0.105
432.19	0.104
432.40	0.104
432.60	0.104
432.80	0.104
433.01	0.105
433.21	0.104
433.42	0.104
433.62	0.105
433.83	0.104
434.03	0.104
434.23	0.104
434.44	0.104
434.64	0.104
434.85	0.104
435.05	0.105
435.26	0.105
435.46	0.104
435.66	0.104
435.87	0.104
436.07	0.104
436.28	0.104
436.48	0.105
436.69	0.105
436.89	0.105
437.09	0.105
437.30	0.105
437.50	0.105
437.71	0.105
437.91	0.104
438.11	0.104
438.32	0.104
438.52	0.104
438.73	0.104
438.93	0.104
439.13	0.104
439.34	0.104
439.54	0.104
439.75	0.104
439.95	0.104
440.15	0.104
440.36	0.104
440.56	0.105
440.77	0.105
440.97	0.105
441.17	0.105
441.38	0.105
441.58	0.104
441.79	0.105
441.99	0.105
442.19	0.105
442.40	0.104
442.60	0.104
442.81	0.104
443.01	0.104
443.21	0.104
443.42	0.104
443.62	0.103
443.82	0.104
444.03	0.104
444.23	0.104
444.44	0.104
444.64	0.104
444.84	0.104
445.05	0.104
445.25	0.104
445.45	0.103
445.66	0.103
445.86	0.104
446.06	0.104
446.27	0.104
446.47	0.103
446.68	0.104
446.88	0.104
447.08	0.104
447.29	0.104
447.49	0.104
447.69	0.104
447.90	0.104
448.10	0.104
448.30	0.104
448.51	0.104
448.71	0.104
448.91	0.104
449.12	0.104
449.32	0.104
449.52	0.103
449.73	0.103
449.93	0.103
450.14	0.103
450.34	0.103
450.54	0.102
450.75	0.102
450.95	0.102
451.15	0.102
451.36	0.102
451.56	0.103
451.76	0.102
451.97	0.103
452.17	0.103
452.37	0.103
452.58	0.104
452.78	0.104
452.98	0.104
453.19	0.104
453.39	0.104
453.59	0.104
453.79	0.103
454.00	0.104
454.20	0.103
454.40	0.103
454.61	0.103
454.81	0.103
455.01	0.103
455.22	0.103
455.42	0.103
455.62	0.103
455.83	0.103
456.03	0.103
456.23	0.103
456.44	0.103
456.64	0.103
456.84	0.103
457.04	0.103
457.25	0.103
457.45	0.103
457.65	0.104
457.86	0.104
458.06	0.104
458.26	0.104
458.47	0.103
458.67	0.104
458.87	0.104
459.07	0.103
459.28	0.103
459.48	0.103
459.68	0.103
459.89	0.103
460.09	0.103
460.29	0.102
460.49	0.102
460.70	0.102
460.90	0.102
461.10	0.102
461.31	0.102
461.51	0.102
461.71	0.102
461.91	0.103
462.12	0.103
462.32	0.103
462.52	0.103
462.72	0.103
462.93	0.103
463.13	0.103
463.33	0.103
463.53	0.103
463.74	0.103
463.94	0.103
464.14	0.103
464.35	0.103
464.55	0.104
464.75	0.104
464.95	0.104
465.16	0.104
465.36	0.104
465.56	0.104
465.76	0.104
465.97	0.104
466.17	0.104
466.37	0.104
466.57	0.103
466.78	0.103
466.98	0.103
467.18	0.103
467.38	0.103
467.59	0.103
467.79	0.102
467.99	0.102
468.19	0.102
468.39	0.102
468.60	0.102
468.80	0.102
469.00	0.102
469.20	0.102
469.41	0.103
469.61	0.103
469.81	0.103
470.01	0.103
470.22	0.103
470.42	0.103
470.62	0.103
470.82	0.103
471.02	0.103
471.23	0.103
471.43	0.104
471.63	0.103
471.83	0.103
472.04	0.103
472.24	0.103
472.44	0.103
472.64	0.104
472.84	0.103
473.05	0.104
473.25	0.103
473.45	0.103
473.65	0.103
473.85	0.103
474.06	0.103
474.26	0.103
474.46	0.103
474.66	0.103
474.86	0.103
475.07	0.103
475.27	0.103
475.47	0.104
475.67	0.103
475.87	0.103
476.08	0.103
476.28	0.103
476.48	0.103
476.68	0.104
476.88	0.103
477.09	0.103
477.29	0.103
477.49	0.103
477.69	0.103
477.89	0.103
478.09	0.103
478.30	0.103
478.50	0.103
478.70	0.103
478.90	0.103
479.10	0.103
479.31	0.103
479.51	0.103
479.71	0.103
479.91	0.103
480.11	0.103
480.31	0.103
480.52	0.103
480.72	0.104
480.92	0.103
481.12	0.104
481.32	0.104
481.52	0.104
481.72	0.103
481.93	0.104
482.13	0.104
482.33	0.104
482.53	0.104
482.73	0.104
482.93	0.103
483.14	0.104
483.34	0.103
483.54	0.103
483.74	0.103
483.94	0.103
484.14	0.103
484.34	0.103
484.55	0.103
484.75	0.103
484.95	0.103
485.15	0.103
485.35	0.103
485.55	0.103
485.75	0.103
485.96	0.103
486.16	0.103
486.36	0.103
486.56	0.103
486.76	0.103
486.96	0.103
487.16	0.103
487.36	0.103
487.57	0.103
487.77	0.103
487.97	0.103
488.17	0.103
488.37	0.103
488.57	0.103
488.77	0.103
488.97	0.102
489.18	0.102
489.38	0.102
489.58	0.102
489.78	0.102
489.98	0.102
490.18	0.102
490.38	0.102
490.58	0.102
490.78	0.103
490.98	0.102
491.19	0.103
491.39	0.103
491.59	0.103
491.79	0.103
491.99	0.102
492.19	0.103
492.39	0.102
492.59	0.102
492.79	0.103
492.99	0.102
493.20	0.102
493.40	0.102
493.60	0.102
493.80	0.102
494.00	0.102
494.20	0.102
494.40	0.102
494.60	0.102
494.80	0.102
495.00	0.102
495.20	0.102
495.40	0.102
495.61	0.102
495.81	0.102
496.01	0.102
496.21	0.102
496.41	0.102
496.61	0.102
496.81	0.102
497.01	0.102
497.21	0.102
497.41	0.102
497.61	0.102
497.81	0.102
498.01	0.102
498.21	0.102
498.41	0.102
498.61	0.102
498.82	0.102
499.02	0.102
499.22	0.102
499.42	0.102
499.62	0.102
499.82	0.102
500.02	0.102
500.22	0.102
500.42	0.102
500.62	0.102
500.82	0.103
501.02	0.103
501.22	0.103
501.42	0.103
501.62	0.103
501.82	0.102
502.02	0.103
502.22	0.102
502.42	0.103
502.62	0.103
502.82	0.102
503.02	0.102
503.22	0.103
503.42	0.103
503.63	0.103
503.83	0.102
504.03	0.103
504.23	0.103
504.43	0.103
504.63	0.103
504.83	0.103
505.03	0.103
505.23	0.103
505.43	0.103
505.63	0.103
505.83	0.103
506.03	0.103
506.23	0.103
506.43	0.102
506.63	0.102
506.83	0.102
507.03	0.102
507.23	0.102
507.43	0.102
507.63	0.102
507.83	0.103
508.03	0.103
508.23	0.103
508.43	0.103
508.63	0.103
508.83	0.103
509.03	0.103
509.23	0.103
509.43	0.103
509.63	0.103
509.83	0.103
510.03	0.103
510.23	0.103
510.43	0.103
510.63	0.102
510.83	0.102
511.03	0.103
511.23	0.103
511.43	0.103
511.63	0.103
511.83	0.102
512.03	0.103
512.22	0.103
512.42	0.103
512.62	0.103
512.82	0.103
513.02	0.104
513.22	0.104
513.42	0.103
513.62	0.103
513.82	0.103
514.02	0.103
514.22	0.103
514.42	0.103
514.62	0.102
514.82	0.102
515.02	0.102
515.22	0.102
515.42	0.102
515.62	0.102
515.82	0.103
516.02	0.103
516.22	0.103
516.42	0.103
516.62	0.103
516.82	0.103
517.01	0.103
517.21	0.103
517.41	0.103
517.61	0.103
517.81	0.103
518.01	0.103
518.21	0.102
518.41	0.103
518.61	0.103
518.81	0.103
519.01	0.103
519.21	0.103
519.41	0.104
519.61	0.104
519.81	0.104
520.00	0.104
520.20	0.105
520.40	0.105
520.60	0.105
520.80	0.104
521.00	0.104
521.20	0.104
521.40	0.104
521.60	0.104
521.80	0.104
522.00	0.104
522.20	0.103
522.39	0.103
522.59	0.103
522.79	0.104
522.99	0.104
523.19	0.105
523.39	0.104
523.59	0.105
523.79	0.105
523.99	0.105
524.19	0.104
524.38	0.105
524.58	0.105
524.78	0.105
524.98	0.105
525.18	0.105
525.38	0.104
525.58	0.104
525.78	0.104
525.98	0.104
526.18	0.104
526.37	0.104
526.57	0.104
526.77	0.104
526.97	0.103
527.17	0.103
527.37	0.103
527.57	0.103
527.77	0.103
527.96	0.103
528.16	0.104
528.36	0.104
528.56	0.103
528.76	0.104
528.96	0.104
529.16	0.105
529.36	0.104
529.55	0.105
529.75	0.105
529.95	0.105
530.15	0.105
530.35	0.105
530.55	0.105
530.75	0.105
530.94	0.105
531.14	0.105
531.34	0.105
531.54	0.106
531.74	0.105
531.94	0.105
532.13	0.105
532.33	0.105
532.53	0.105
532.73	0.105
532.93	0.105
533.13	0.105
533.33	0.105
533.52	0.105
533.72	0.105
533.92	0.105
534.12	0.105
534.32	0.106
534.52	0.105
534.71	0.106
534.91	0.106
535.11	0.106
535.31	0.106
535.51	0.106
535.71	0.106
535.90	0.106
536.10	0.105
536.30	0.105
536.50	0.105
536.70	0.105
536.89	0.105
537.09	0.105
537.29	0.104
537.49	0.105
537.69	0.105
537.89	0.105
538.08	0.105
538.28	0.106
538.48	0.106
538.68	0.106
538.88	0.106
539.07	0.106
539.27	0.106
539.47	0.106
539.67	0.106
539.87	0.106
540.06	0.106
540.26	0.106
540.46	0.105
540.66	0.105
540.86	0.105
541.05	0.106
541.25	0.106
541.45	0.106
541.65	0.106
541.84	0.106
542.04	0.106
542.24	0.107
542.44	0.107
542.64	0.108
542.83	0.107
543.03	0.108
543.23	0.108
543.43	0.108
543.62	0.108
543.82	0.108
544.02	0.107
544.22	0.108
544.42	0.107
544.61	0.108
544.81	0.107
545.01	0.108
545.21	0.107
545.40	0.107
545.60	0.107
545.80	0.107
546.00	0.107
546.19	0.107
546.39	0.106
546.59	0.107
546.79	0.107
546.98	0.107
547.18	0.107
547.38	0.107
547.58	0.107
547.77	0.107
547.97	0.107
548.17	0.107
548.37	0.107
548.56	0.108
548.76	0.107
548.96	0.107
549.16	0.107
549.35	0.108
549.55	0.108
549.75	0.108
549.95	0.108
550.14	0.108
550.34	0.108
550.54	0.108
550.73	0.108
550.93	0.108
551.13	0.108
551.33	0.108
551.52	0.108
551.72	0.108
551.92	0.108
552.12	0.108
552.31	0.108
552.51	0.108
552.71	0.108
552.90	0.108
553.10	0.107
553.30	0.108
553.50	0.108
553.69	0.108
553.89	0.108
554.09	0.107
554.28	0.107
554.48	0.108
554.68	0.107
554.87	0.107
555.07	0.108
555.27	0.108
555.47	0.108
555.66	0.108
555.86	0.108
556.06	0.108
556.25	0.108
556.45	0.108
556.65	0.108
556.84	0.109
557.04	0.109
557.24	0.109
557.43	0.109
557.63	0.109
557.83	0.109
558.02	0.109
558.22	0.109
558.42	0.109
558.61	0.109
558.81	0.109
559.01	0.109
559.21	0.109
559.40	0.109
559.60	0.109
559.80	0.109
559.99	0.109
560.19	0.109
560.39	0.110
560.58	0.109
560.78	0.109
560.97	0.109
561.17	0.109
561.37	0.109
561.56	0.109
561.76	0.109
561.96	0.109
562.15	0.109
562.35	0.109
562.55	0.108
562.74	0.108
562.94	0.108
563.14	0.108
563.33	0.107
563.53	0.107
563.73	0.107
563.92	0.108
564.12	0.108
564.31	0.108
564.51	0.108
564.71	0.108
564.90	0.108
565.10	0.108
565.30	0.108
565.49	0.108
565.69	0.108
565.89	0.108
566.08	0.108
566.28	0.107
566.47	0.108
566.67	0.108
566.87	0.109
567.06	0.109
567.26	0.109
567.46	0.110
567.65	0.109
567.85	0.110
568.04	0.110
568.24	0.110
568.44	0.110
568.63	0.110
568.83	0.110
569.02	0.110
569.22	0.110
569.42	0.110
569.61	0.110
569.81	0.110
570.00	0.109
570.20	0.109
570.40	0.109
570.59	0.109
570.79	0.109
570.98	0.108
571.18	0.108
571.38	0.108
571.57	0.108
571.77	0.108
571.96	0.108
572.16	0.108
572.35	0.108
572.55	0.109
572.75	0.108
572.94	0.108
573.14	0.108
573.33	0.108
573.53	0.108
573.73	0.108
573.92	0.108
574.12	0.108
574.31	0.108
574.51	0.108
574.70	0.108
574.90	0.108
575.09	0.108
575.29	0.108
575.49	0.108
575.68	0.108
575.88	0.108
576.07	0.108
576.27	0.108
576.46	0.108
576.66	0.108
576.86	0.108
577.05	0.107
577.25	0.108
577.44	0.107
577.64	0.107
577.83	0.107
578.03	0.108
578.22	0.107
578.42	0.108
578.61	0.107
578.81	0.107
579.00	0.107
579.20	0.107
579.40	0.107
579.59	0.107
579.79	0.107
579.98	0.107
580.18	0.107
580.37	0.107
580.57	0.107
580.76	0.107
580.96	0.107
581.15	0.107
581.35	0.107
581.54	0.107
581.74	0.107
581.93	0.107
582.13	0.107
582.32	0.107
582.52	0.107
582.71	0.107
582.91	0.107
583.10	0.107
583.30	0.107
583.49	0.107
583.69	0.107
583.88	0.107
584.08	0.106
584.27	0.107
584.47	0.107
584.66	0.107
584.86	0.107
585.05	0.107
585.25	0.107
585.44	0.107
585.64	0.107
585.83	0.107
586.03	0.107
586.22	0.107
586.42	0.107
586.61	0.107
586.81	0.107
587.00	0.107
587.20	0.107
587.39	0.107
587.59	0.107
587.78	0.107
587.98	0.107
588.17	0.107
588.37	0.107
588.56	0.107
588.76	0.107
588.95	0.107
589.15	0.107
589.34	0.107
589.54	0.107
589.73	0.107
589.92	0.107
590.12	0.107
590.31	0.107
590.51	0.107
590.70	0.108
590.90	0.107
591.09	0.108
591.29	0.108
591.48	0.108
591.68	0.108
591.87	0.108
592.06	0.108
592.26	0.108
592.45	0.108
592.65	0.108
592.84	0.108
593.04	0.108
593.23	0.108
593.43	0.107
593.62	0.107
593.81	0.107
594.01	0.107
594.20	0.107
594.40	0.107
594.59	0.107
594.79	0.108
594.98	0.108
595.17	0.107
595.37	0.107
595.56	0.108
595.76	0.108
595.95	0.109
596.14	0.108
596.34	0.108
596.53	0.108
596.73	0.108
596.92	0.108
597.12	0.108
597.31	0.108
597.50	0.108
597.70	0.108
597.89	0.108
598.09	0.107
598.28	0.107
598.47	0.107
598.67	0.107
598.86	0.107
599.06	0.106
599.25	0.106
599.44	0.106
599.64	0.106
599.83	0.106
600.03	0.105
600.22	0.105
600.41	0.105
600.61	0.105
600.80	0.105
601.00	0.105
601.19	0.105
601.38	0.105
601.58	0.105
601.77	0.105
601.96	0.105
602.16	0.105
602.35	0.105
602.55	0.105
602.74	0.106
602.93	0.106
603.13	0.106
603.32	0.107
603.51	0.107
603.71	0.107
603.90	0.107
604.09	0.107
604.29	0.107
604.48	0.107
604.68	0.107
604.87	0.107
605.06	0.107
605.26	0.107
605.45	0.107
605.64	0.107
605.84	0.106
606.03	0.107
606.22	0.107
606.42	0.107
606.61	0.106
606.80	0.107
607.00	0.107
607.19	0.107
607.38	0.107
607.58	0.107
607.77	0.107
607.96	0.107
608.16	0.106
608.35	0.106
608.54	0.106
608.74	0.107
608.93	0.107
609.12	0.107
609.32	0.107
609.51	0.107
609.70	0.107
609.90	0.107
610.09	0.107
610.28	0.108
610.48	0.108
610.67	0.108
610.86	0.108
611.06	0.109
611.25	0.109
611.44	0.109
611.64	0.108
611.83	0.108
612.02	0.108
612.21	0.108
612.41	0.108
612.60	0.108
612.79	0.108
612.99	0.108
613.18	0.108
613.37	0.108
613.57	0.108
613.76	0.108
613.95	0.108
614.14	0.108
614.34	0.108
614.53	0.108
614.72	0.108
614.92	0.108
615.11	0.108
615.30	0.108
615.49	0.108
615.69	0.108
615.88	0.108
616.07	0.108
616.26	0.108
616.46	0.108
616.65	0.108
616.84	0.108
617.04	0.108
617.23	0.108
617.42	0.108
617.61	0.108
617.81	0.108
618.00	0.109
618.19	0.109
618.38	0.109
618.58	0.109
618.77	0.109
618.96	0.109
619.15	0.110
619.35	0.110
619.54	0.111
619.73	0.111
619.92	0.111
620.12	0.111
620.31	0.110
620.50	0.110
620.69	0.110
620.89	0.110
621.08	0.111
621.27	0.110
621.46	0.110
621.66	0.109
621.85	0.109
622.04	0.109
622.23	0.109
622.43	0.109
622.62	0.110
622.81	0.109
623.00	0.109
623.19	0.108
623.39	0.109
623.58	0.109
623.77	0.110
623.96	0.110
624.16	0.110
624.35	0.109
624.54	0.110
624.73	0.109
624.92	0.110
625.12	0.109
625.31	0.109
625.50	0.109
625.69	0.109
625.88	0.108
626.08	0.109
626.27	0.109
626.46	0.109
626.65	0.109
626.84	0.109
627.04	0.109
627.23	0.110
627.42	0.110
627.61	0.110
627.80	0.110
628.00	0.110
628.19	0.110
628.38	0.109
628.57	0.109
628.76	0.109
628.96	0.109
629.15	0.110
629.34	0.110
629.53	0.110
629.72	0.110
629.91	0.110
630.11	0.110
630.30	0.110
630.49	0.110
630.68	0.111
630.87	0.110
631.06	0.111
631.26	0.111
631.45	0.111
631.64	0.111
631.83	0.111
632.02	0.111
632.21	0.112
632.41	0.112
632.60	0.112
632.79	0.111
632.98	0.111
633.17	0.111
633.36	0.111
633.55	0.111
633.75	0.112
633.94	0.112
634.13	0.112
634.32	0.112
634.51	0.112
634.70	0.112
634.89	0.113
635.09	0.113
635.28	0.113
635.47	0.113
635.66	0.112
635.85	0.112
636.04	0.113
636.23	0.113
636.43	0.113
636.62	0.112
636.81	0.112
637.00	0.111
637.19	0.111
637.38	0.112
637.57	0.111
637.76	0.112
637.95	0.111
638.15	0.111
638.34	0.111
638.53	0.111
638.72	0.111
638.91	0.112
639.10	0.112
639.29	0.112
639.48	0.112
639.67	0.112
639.87	0.112
640.06	0.112
640.25	0.112
640.44	0.111
640.63	0.112
640.82	0.112
641.01	0.112
641.20	0.112
641.39	0.113
641.58	0.112
641.78	0.113
641.97	0.112
642.16	0.112
642.35	0.112
642.54	0.113
642.73	0.112
642.92	0.112
643.11	0.112
643.30	0.112
643.49	0.111
643.68	0.111
643.87	0.111
644.06	0.111
644.25	0.111
644.45	0.112
644.64	0.112
644.83	0.112
645.02	0.112
645.21	0.113
645.40	0.112
645.59	0.113
645.78	0.113
645.97	0.113
646.16	0.113
646.35	0.112
646.54	0.111
646.73	0.111
646.92	0.111
647.11	0.111
647.30	0.111
647.49	0.111
647.68	0.110
647.88	0.110
648.07	0.110
648.26	0.110
648.45	0.110
648.64	0.110
648.83	0.109
649.02	0.109
649.21	0.108
649.40	0.108
649.59	0.108
649.78	0.108
649.97	0.108
650.16	0.107
650.35	0.107
650.54	0.107
650.73	0.106
650.92	0.107
651.11	0.108
651.30	0.108
651.49	0.108
651.68	0.108
651.87	0.107
652.06	0.108
652.25	0.108
652.44	0.109
652.63	0.109
652.82	0.109
653.01	0.109
653.20	0.108
653.39	0.108
653.58	0.107
653.77	0.106
653.96	0.106
654.15	0.105
654.34	0.105
654.53	0.104
654.72	0.103
654.91	0.103
655.10	0.103
655.29	0.102
655.48	0.102
655.67	0.102
655.86	0.102
656.05	0.102
656.24	0.102
656.43	0.101
656.62	0.101
656.81	0.101
657.00	0.100
657.19	0.100
657.38	0.100
657.57	0.100
657.76	0.100
657.95	0.100
658.14	0.100
658.33	0.100
658.51	0.101
658.70	0.101
658.89	0.102
659.08	0.103
659.27	0.104
659.46	0.104
659.65	0.105
659.84	0.105
660.03	0.106
660.22	0.106
660.41	0.106
660.60	0.106
660.79	0.106
660.98	0.106
661.17	0.106
661.36	0.106
661.55	0.107
661.74	0.106
661.92	0.106
662.11	0.106
662.30	0.106
662.49	0.106
662.68	0.106
662.87	0.105
663.06	0.105
663.25	0.105
663.44	0.105
663.63	0.104
663.82	0.105
664.01	0.105
664.20	0.105
664.38	0.105
664.57	0.105
664.76	0.104
664.95	0.104
665.14	0.104
665.33	0.104
665.52	0.104
665.71	0.104
665.90	0.104
666.09	0.105
666.28	0.104
666.46	0.104
666.65	0.103
666.84	0.104
667.03	0.105
667.22	0.105
667.41	0.104
667.60	0.104
667.79	0.104
667.98	0.103
668.16	0.102
668.35	0.102
668.54	0.102
668.73	0.102
668.92	0.102
669.11	0.102
669.30	0.102
669.49	0.102
669.67	0.102
669.86	0.102
670.05	0.101
670.24	0.101
670.43	0.101
670.62	0.101
670.81	0.100
671.00	0.100
671.18	0.099
671.37	0.099
671.56	0.098
671.75	0.098
671.94	0.098
672.13	0.099
672.32	0.098
672.50	0.099
672.69	0.099
672.88	0.098
673.07	0.098
673.26	0.099
673.45	0.098
673.63	0.099
673.82	0.099
674.01	0.099
674.20	0.098
674.39	0.098
674.58	0.098
674.76	0.099
674.95	0.099
675.14	0.099
675.33	0.099
675.52	0.099
675.71	0.099
675.89	0.099
676.08	0.098
676.27	0.098
676.46	0.098
676.65	0.098
676.84	0.098
677.02	0.098
677.21	0.097
677.40	0.097
677.59	0.097
677.78	0.097
677.96	0.096
678.15	0.096
678.34	0.096
678.53	0.096
678.72	0.095
678.90	0.095
679.09	0.095
679.28	0.095
679.47	0.095
679.66	0.095
679.84	0.095
680.03	0.095
680.22	0.096
680.41	0.096
680.60	0.096
680.78	0.097
680.97	0.097
681.16	0.097
681.35	0.097
681.53	0.096
681.72	0.096
681.91	0.096
682.10	0.096
682.29	0.096
682.47	0.095
682.66	0.095
682.85	0.094
683.04	0.094
683.22	0.093
683.41	0.093
683.60	0.093
683.79	0.093
683.97	0.092
684.16	0.092
684.35	0.092
684.54	0.092
684.72	0.091
684.91	0.092
685.10	0.092
685.29	0.092
685.47	0.092
685.66	0.092
685.85	0.091
686.04	0.091
686.22	0.091
686.41	0.091
686.60	0.090
686.79	0.090
686.97	0.090
687.16	0.090
687.35	0.090
687.54	0.090
687.72	0.090
687.91	0.090
688.10	0.090
688.29	0.090
688.47	0.090
688.66	0.091
688.85	0.091
689.03	0.091
689.22	0.090
689.41	0.091
689.60	0.091
689.78	0.091
689.97	0.090
690.16	0.091
690.34	0.091
690.53	0.091
690.72	0.090
690.91	0.090
691.09	0.090
691.28	0.090
691.47	0.090
691.65	0.091
691.84	0.090
692.03	0.091
692.21	0.090
692.40	0.090
692.59	0.090
692.77	0.090
692.96	0.090
693.15	0.090
693.34	0.090
693.52	0.090
693.71	0.089
693.90	0.089
694.08	0.088
694.27	0.088
694.46	0.088
694.64	0.088
694.83	0.088
695.02	0.088
695.20	0.088
695.39	0.088
695.58	0.088
695.76	0.088
695.95	0.087
696.14	0.088
696.32	0.087
696.51	0.087
696.70	0.087
696.88	0.086
697.07	0.086
697.26	0.086
697.44	0.086
697.63	0.086
697.81	0.086
698.00	0.086
698.19	0.086
698.37	0.086
698.56	0.087
698.75	0.087
698.93	0.087
699.12	0.087
699.31	0.087
699.49	0.087
699.68	0.086
699.87	0.087
700.05	0.086
700.24	0.086
700.42	0.086
700.61	0.086
700.80	0.086
700.98	0.086
701.17	0.086
701.36	0.086
701.54	0.086
701.73	0.086
701.91	0.086
702.10	0.086
702.29	0.087
702.47	0.087
702.66	0.087
702.84	0.087
703.03	0.087
703.22	0.087
703.40	0.087
703.59	0.087
703.77	0.087
703.96	0.087
704.15	0.087
704.33	0.087
704.52	0.086
704.70	0.086
704.89	0.086
705.08	0.086
705.26	0.086
705.45	0.086
705.63	0.085
705.82	0.086
706.00	0.085
706.19	0.085
706.38	0.085
706.56	0.085
706.75	0.085
706.93	0.085
707.12	0.085
707.30	0.084
707.49	0.084
707.68	0.084
707.86	0.084
708.05	0.084
708.23	0.084
708.42	0.084
708.60	0.084
708.79	0.084
708.98	0.083
709.16	0.083
709.35	0.083
709.53	0.083
709.72	0.083
709.90	0.083
710.09	0.083
710.27	0.083
710.46	0.083
710.64	0.083
710.83	0.083
711.02	0.083
711.20	0.083
711.39	0.083
711.57	0.083
711.76	0.083
711.94	0.083
712.13	0.083
712.31	0.083
712.50	0.083
712.68	0.083
712.87	0.083
713.05	0.083
713.24	0.083
713.42	0.083
713.61	0.084
713.79	0.083
713.98	0.084
714.16	0.084
714.35	0.084
714.54	0.084
714.72	0.085
714.91	0.084
715.09	0.084
715.28	0.084
715.46	0.084
715.65	0.083
715.83	0.083
716.02	0.083
716.20	0.084
716.39	0.083
716.57	0.083
716.76	0.082
716.94	0.083
717.12	0.083
717.31	0.083
717.49	0.083
717.68	0.083
717.86	0.084
718.05	0.084
718.23	0.083
718.42	0.083
718.60	0.082
718.79	0.083
718.97	0.083
719.16	0.083
719.34	0.083
719.53	0.083
719.71	0.083
719.90	0.083
720.08	0.083
720.27	0.083
720.45	0.083
720.63	0.084
720.82	0.083
721.00	0.083
721.19	0.083
721.37	0.084
721.56	0.083
721.74	0.082
721.93	0.083
722.11	0.082
722.30	0.083
722.48	0.083
722.66	0.083
722.85	0.083
723.03	0.083
723.22	0.083
723.40	0.083
723.59	0.084
723.77	0.084
723.95	0.084
724.14	0.084
724.32	0.084
724.51	0.084
724.69	0.085
724.88	0.086
725.06	0.087
725.24	0.087
725.43	0.088
725.61	0.088
725.80	0.089
725.98	0.090
726.16	0.091
726.35	0.092
726.53	0.092
726.72	0.091
726.90	0.091
727.09	0.091
727.27	0.091
727.45	0.091
727.64	0.089
727.82	0.089
728.01	0.089
728.19	0.089
728.37	0.089
728.56	0.089
728.74	0.089
728.92	0.091
729.11	0.091
729.29	0.093
729.48	0.093
729.66	0.095
729.84	0.095
730.03	0.097
730.21	0.096
730.40	0.097
730.58	0.099
730.76	0.100
730.95	0.100
731.13	0.101
731.31	0.100
731.50	0.101
731.68	0.101
731.86	0.102
732.05	0.102
732.23	0.103
732.42	0.105
732.60	0.105
732.78	0.105
732.97	0.104
733.15	0.105
733.33	0.106
733.52	0.107
733.70	0.108
733.88	0.108
734.07	0.110
734.25	0.109
734.43	0.111
734.62	0.112
734.80	0.114
734.98	0.116
735.17	0.117
735.35	0.120
735.53	0.122
735.72	0.121
735.90	0.123
736.08	0.123
736.27	0.126
736.45	0.127
736.63	0.129
736.82	0.129
737.00	0.130
737.18	0.133
737.37	0.132
737.55	0.132
737.73	0.133
737.92	0.134
738.10	0.139
738.28	0.139
738.46	0.140
738.65	0.140
738.83	0.142
739.01	0.142
739.20	0.142
739.38	0.144
739.56	0.148
739.75	0.151
739.93	0.155
740.11	0.153
740.29	0.154
740.48	0.155
740.66	0.158
740.84	0.161
741.03	0.165
741.21	0.166
741.39	0.170
741.57	0.171
741.76	0.172
741.94	0.174
742.12	0.177
742.31	0.179
742.49	0.182
742.67	0.182
742.85	0.181
743.04	0.182
743.22	0.184
743.40	0.181
743.58	0.184
743.77	0.184
743.95	0.188
744.13	0.184
744.31	0.184
744.50	0.181
744.68	0.180
744.86	0.182
745.04	0.181
745.23	0.181
745.41	0.182
745.59	0.180
745.77	0.184
745.96	0.184
746.14	0.187
746.32	0.193
746.50	0.194
746.69	0.198
746.87	0.201
747.05	0.202
747.23	0.209
747.42	0.214
747.60	0.213
747.78	0.210
747.96	0.205
748.14	0.207
748.33	0.204
748.51	0.205
748.69	0.209
748.87	0.205
749.06	0.207
749.24	0.200
749.42	0.196
749.60	0.197
749.78	0.197
749.97	0.200
750.15	0.203
750.33	0.201
750.51	0.201
750.69	0.194
750.88	0.194
751.06	0.192
751.24	0.191
751.42	0.194
751.60	0.193
751.79	0.189
751.97	0.192
752.15	0.189
752.33	0.189
752.51	0.184
752.69	0.189
752.88	0.190
753.06	0.187
753.24	0.188
753.42	0.185
753.60	0.179
753.78	0.183
753.97	0.178
754.15	0.180
754.33	0.177
754.51	0.181
754.69	0.177
754.87	0.174
755.06	0.176
755.24	0.171
755.42	0.171
755.60	0.175
755.78	0.170
755.96	0.169
756.15	0.166
756.33	0.165
756.51	0.161
756.69	0.161
756.87	0.162
757.05	0.161
757.23	0.163
757.42	0.162
757.60	0.162
757.78	0.163
757.96	0.163
758.14	0.162
758.32	0.162
758.50	0.162
758.69	0.160
758.87	0.160
759.05	0.159
759.23	0.158
759.41	0.158
759.59	0.159
759.77	0.158
759.95	0.159
760.13	0.157
760.32	0.156
760.50	0.157
760.68	0.156
760.86	0.157
761.04	0.157
761.22	0.160
761.40	0.157
761.58	0.154
761.76	0.153
761.95	0.150
762.13	0.153
762.31	0.152
762.49	0.153
762.67	0.150
762.85	0.149
763.03	0.151
763.21	0.150
763.39	0.150
763.57	0.151
763.75	0.151
763.94	0.152
764.12	0.150
764.30	0.149
764.48	0.147
764.66	0.150
764.84	0.149
765.02	0.145
765.20	0.143
765.38	0.144
765.56	0.144
765.74	0.142
765.92	0.142
766.10	0.143
766.28	0.143
766.46	0.144
766.65	0.144
766.83	0.144
767.01	0.146
767.19	0.146
767.37	0.147
767.55	0.147
767.73	0.149
767.91	0.149
768.09	0.152
768.27	0.151
768.45	0.151
768.63	0.151
768.81	0.150
768.99	0.151
769.17	0.150
769.35	0.148
769.53	0.147
769.71	0.147
769.89	0.147
770.07	0.147
770.25	0.150
770.43	0.153
770.61	0.152
770.79	0.152
770.97	0.152
771.15	0.153
771.33	0.156
771.51	0.158
771.69	0.159
771.87	0.159
772.05	0.159
772.24	0.158
772.42	0.155
772.60	0.156
772.78	0.155
772.96	0.155
773.14	0.157
773.32	0.158
773.49	0.157
773.67	0.156
773.85	0.157
774.03	0.157
774.21	0.157
774.39	0.158
774.57	0.158
774.75	0.161
774.93	0.161
775.11	0.158
775.29	0.157
775.47	0.156
775.65	0.156
775.83	0.157
776.01	0.155
776.19	0.158
776.37	0.157
776.55	0.159
776.73	0.158
776.91	0.157
777.09	0.159
777.27	0.162
777.45	0.165
777.63	0.168
777.81	0.166
777.99	0.167
778.17	0.166
778.35	0.166
778.53	0.167
778.71	0.168
778.89	0.169
779.07	0.168
779.24	0.166
779.42	0.162
779.60	0.158
779.78	0.155
779.96	0.153
780.14	0.152
780.32	0.148
780.50	0.147
780.68	0.144
780.86	0.144
781.04	0.142
781.22	0.138
781.40	0.138
781.58	0.140
781.75	0.141
781.93	0.143
782.11	0.142
782.29	0.143
782.47	0.143
782.65	0.145
782.83	0.144
783.01	0.145
783.19	0.146
783.37	0.147
783.55	0.146
783.72	0.146
783.90	0.143
784.08	0.143
784.26	0.145
784.44	0.142
784.62	0.142
784.80	0.143
784.98	0.141
785.16	0.142
785.33	0.142
785.51	0.144
785.69	0.146
785.87	0.147
786.05	0.145
786.23	0.142
786.41	0.143
786.59	0.142
786.77	0.140
786.94	0.140
787.12	0.138
787.30	0.136
787.48	0.133
787.66	0.133
787.84	0.131
788.02	0.132
788.19	0.132
788.37	0.131
788.55	0.130
788.73	0.130
788.91	0.131
789.09	0.131
789.27	0.134
789.44	0.135
789.62	0.134
789.80	0.133
789.98	0.132
790.16	0.133
790.34	0.134
790.51	0.136
790.69	0.135
790.87	0.136
791.05	0.137
791.23	0.136
791.41	0.135
791.58	0.134
791.76	0.137
791.94	0.137
792.12	0.135
792.30	0.134
792.48	0.132
792.65	0.130
792.83	0.128
793.01	0.126
793.19	0.126
793.37	0.126
793.54	0.126
793.72	0.124
793.90	0.123
794.08	0.124
794.26	0.124
794.43	0.124
794.61	0.126
794.79	0.127
794.97	0.127
795.15	0.127
795.32	0.127
795.50	0.127
795.68	0.129
795.86	0.129
796.04	0.130
796.21	0.131
796.39	0.132
796.57	0.131
796.75	0.132
796.92	0.131
797.10	0.132
797.28	0.134
797.46	0.133
797.64	0.133
797.81	0.134
797.99	0.132
798.17	0.132
798.35	0.131
798.52	0.131
798.70	0.130
798.88	0.131
799.06	0.130
799.23	0.128
799.41	0.127
799.59	0.128
799.77	0.127
799.94	0.128
800.12	0.128
800.30	0.127
800.48	0.128
800.65	0.130
800.83	0.130
801.01	0.132
801.19	0.132
801.36	0.133
801.54	0.133
801.72	0.133
801.90	0.135
802.07	0.133
802.25	0.134
802.43	0.136
802.60	0.135
802.78	0.134
802.96	0.135
803.14	0.137
803.31	0.137
803.49	0.137
803.67	0.138
803.84	0.137
804.02	0.138
804.20	0.138
804.38	0.136
804.55	0.136
804.73	0.137
804.91	0.136
805.08	0.135
805.26	0.134
805.44	0.130
805.61	0.129
805.79	0.130
805.97	0.129
806.15	0.129
806.32	0.130
806.50	0.130
806.68	0.130
806.85	0.128
807.03	0.129
807.21	0.129
807.38	0.132
807.56	0.133
807.74	0.132
807.91	0.134
808.09	0.134
808.27	0.133
808.44	0.131
808.62	0.131
808.80	0.134
808.97	0.134
809.15	0.134
809.33	0.133
809.50	0.133
809.68	0.136
809.86	0.135
810.03	0.132
810.21	0.135
810.39	0.136
810.56	0.137
810.74	0.135
810.91	0.132
811.09	0.134
811.27	0.134
811.44	0.135
811.62	0.134
811.80	0.134
811.97	0.137
812.15	0.137
812.33	0.138
812.50	0.140
812.68	0.140
812.85	0.144
813.03	0.145
813.21	0.146
813.38	0.147
813.56	0.146
813.74	0.146
813.91	0.145
814.09	0.143
814.26	0.144
814.44	0.143
814.62	0.143
814.79	0.144
814.97	0.143
815.14	0.144
815.32	0.140
815.50	0.140
815.67	0.141
815.85	0.143
816.02	0.144
816.20	0.145
816.38	0.146
816.55	0.147
816.73	0.146
816.90	0.145
817.08	0.144
817.26	0.149
817.43	0.152
817.61	0.150
817.78	0.150
817.96	0.153
818.13	0.154
818.31	0.156
818.49	0.157
818.66	0.160
818.84	0.163
819.01	0.165
819.19	0.165
819.36	0.167
819.54	0.172
819.71	0.173
819.89	0.171
820.07	0.171
820.24	0.169
820.42	0.171
820.59	0.171
820.77	0.172
820.94	0.173
821.12	0.173
821.29	0.172
821.47	0.173
821.64	0.175
821.82	0.176
822.00	0.178
822.17	0.182
822.35	0.184
822.52	0.185
822.70	0.189
822.87	0.190
823.05	0.193
823.22	0.196
823.40	0.200
823.57	0.201
823.75	0.207
823.92	0.209
824.10	0.210
824.27	0.209
824.45	0.215
824.62	0.214
824.80	0.217
824.97	0.221
825.15	0.221
825.32	0.221
825.50	0.224
825.67	0.223
825.85	0.226
826.02	0.230
826.20	0.234
826.37	0.230
826.55	0.241
826.72	0.242
826.90	0.243
827.07	0.248
827.25	0.252
827.42	0.256
827.60	0.262
827.77	0.270
827.95	0.278
828.12	0.289
828.30	0.303
828.47	0.303
828.65	0.316
828.82	0.332
829.00	0.348
829.17	0.363
829.34	0.380
829.52	0.395
829.69	0.402
829.87	0.422
830.04	0.432
830.22	0.442
830.39	0.462
830.57	0.486
830.74	0.493
830.92	0.508
831.09	0.508
831.26	0.536
831.44	0.555
831.61	0.589
831.79	0.587
831.96	0.609
832.14	0.677
832.31	0.688
832.49	0.699
832.66	0.739
832.83	0.830
833.01	0.946
833.18	1.070
833.36	1.095
833.53	1.085
833.70	1.097
833.88	1.228
834.05	1.028
834.23	1.240
834.40	1.277
834.58	1.223
834.75	1.072
834.92	0.979
835.10	0.916
835.27	0.998
835.45	1.062
835.62	1.180
835.79	1.138
835.97	1.296
836.14	1.316
836.32	1.515
836.49	-0.000
836.66	-0.000
836.84	-0.000
837.01	-0.000
837.18	-0.000
837.36	-0.000
837.53	-0.000
837.71	-0.000
837.88	-0.000
838.05	-0.000
838.23	-0.000
838.40	-0.000
838.58	-0.000
838.75	-0.000
838.92	-0.000
839.10	-0.000
839.27	-0.000
839.44	-0.000
839.62	-0.000
839.79	-0.000
839.96	-0.000
840.14	-0.000
840.31	-0.000
840.48	-0.000
840.66	-0.000
840.83	-0.000
841.01	-0.000
841.18	-0.000
841.35	-0.000
841.53	-0.000
841.70	-0.000
841.87	-0.000
842.05	-0.000
842.22	-0.000
842.39	-0.000
842.57	-0.000
842.74	-0.000
842.91	-0.000
843.09	-0.000
843.26	-0.000
843.43	-0.000
843.60	-0.000
843.78	-0.000
843.95	-0.000
844.12	-0.000
844.30	-0.000
844.47	-0.000
844.64	-0.000
844.82	-0.000
844.99	-0.000
845.16	-0.000
845.34	-0.000
845.51	-0.000
845.68	-0.000
845.85	-0.000
846.03	-0.000
846.20	-0.000
846.37	-0.000
846.55	-0.000
846.72	-0.000
846.89	-0.000
847.06	-0.000
847.24	-0.000
847.41	-0.000
847.58	-0.000
847.76	-0.000
847.93	-0.000
848.10	-0.000
848.27	-0.000
848.45	-0.000
848.62	-0.000
848.79	-0.000
848.97	-0.000
849.14	-0.000
849.31	-0.000
849.48	-0.000
849.66	-0.000
849.83	-0.000
850.00	-0.000
850.17	-0.000
850.35	-0.000
850.52	-0.000
850.69	-0.000
850.86	-0.000
851.04	-0.000
851.21	-0.000
851.38	-0.000
851.55	-0.000
851.72	-0.000
851.90	-0.000
852.07	-0.000
852.24	-0.000
852.41	-0.000
852.59	-0.000
852.76	-0.000
852.93	-0.000
853.10	-0.000
853.28	-0.000
853.45	-0.000
853.62	-0.000
853.79	-0.000
853.96	-0.000
854.14	-0.000
854.31	-0.000
854.48	-0.000
854.65	-0.000
854.82	-0.000
855.00	-0.000
855.17	-0.000
855.34	-0.000
855.51	-0.000
855.68	-0.000
855.86	-0.000
856.03	-0.000
856.20	-0.000
856.37	-0.000
856.54	-0.000
856.72	-0.000
856.89	-0.000
857.06	-0.000
857.23	-0.000
857.40	-0.000
857.57	-0.000
857.75	-0.000
857.92	-0.000
858.09	-0.000
858.26	-0.000
858.43	-0.000
858.60	-0.000
858.78	-0.000
858.95	-0.000
859.12	-0.000
859.29	-0.000
859.46	-0.000
859.63	-0.000
859.81	-0.000
859.98	-0.000
860.15	-0.000
860.32	-0.000
860.49	-0.000
860.66	-0.000
860.83	-0.000
861.01	-0.000
861.18	-0.000
861.35	-0.000
861.52	-0.000
861.69	-0.000
861.86	-0.000
862.03	-0.000
862.21	-0.000
862.38	-0.000
862.55	-0.000
862.72	-0.000
862.89	-0.000
863.06	-0.000
863.23	-0.000
863.40	-0.000
863.58	-0.000
863.75	-0.000
863.92	-0.000
864.09	-0.000
864.26	-0.000
864.43	-0.000
864.60	-0.000
864.77	-0.000
864.94	-0.000
865.11	-0.000
865.29	-0.000
865.46	-0.000
865.63	-0.000
865.80	-0.000
865.97	-0.000
866.14	-0.000
866.31	-0.000
866.48	-0.000
866.65	-0.000
866.82	-0.000
866.99	-0.000
867.16	-0.000
867.34	-0.000
867.51	-0.000
867.68	-0.000
867.85	-0.000
868.02	-0.000
868.19	-0.000
868.36	-0.000
868.53	-0.000
868.70	-0.000
868.87	-0.000
869.04	-0.000
869.21	-0.000
869.38	-0.000
869.55	-0.000
869.72	-0.000
869.89	-0.000
870.06	-0.000
870.24	-0.000
870.41	-0.000
870.58	-0.000
870.75	-0.000
870.92	-0.000
871.09	-0.000
871.26	-0.000
871.43	-0.000
871.60	-0.000
871.77	-0.000
871.94	-0.000
872.11	-0.000
872.28	-0.000
872.45	-0.000
872.62	-0.000
872.79	-0.000
872.96	-0.000
873.13	-0.000
873.30	-0.000
873.47	-0.000
873.64	-0.000
873.81	-0.000
873.98	-0.000
874.15	-0.000
874.32	-0.000
874.49	-0.000
874.66	-0.000
874.83	-0.000
875.00	-0.000
875.17	-0.000
875.34	-0.000
875.51	-0.000
875.68	-0.000
875.85	-0.000
876.02	-0.000
876.19	-0.000
876.36	-0.000
876.53	-0.000
876.70	-0.000
876.87	-0.000
877.04	-0.000
877.21	-0.000
877.38	-0.000
877.55	-0.000
877.72	-0.000
877.89	-0.000
878.06	-0.000
878.23	-0.000
878.39	-0.000
878.56	-0.000
878.73	-0.000
878.90	-0.000
879.07	-0.000
879.24	-0.000
879.41	-0.000
879.58	-0.000
879.75	-0.000
879.92	-0.000
880.09	-0.000
880.26	-0.000
880.43	-0.000
880.60	-0.000
880.77	-0.000
880.94	-0.000
881.11	-0.000
881.27	-0.000
881.44	-0.000
881.61	-0.000
881.78	-0.000
881.95	-0.000
882.12	-0.000
882.29	-0.000
882.46	-0.000
882.63	-0.000
882.80	-0.000
882.97	-0.000
883.14	-0.000
883.30	-0.000
883.47	-0.000
883.64	-0.000
883.81	-0.000
883.98	-0.000
884.15	-0.000
884.32	-0.000
884.49	-0.000
884.66	-0.000
884.82	-0.000
884.99	-0.000
885.16	-0.000
885.33	-0.000
885.50	-0.000
885.67	-0.000
885.84	-0.000
886.01	-0.000
886.17	-0.000
886.34	-0.000
886.51	-0.000
886.68	-0.000
886.85	-0.000
887.02	-0.000
887.19	-0.000
887.36	-0.000
887.52	-0.000
887.69	-0.000
887.86	-0.000
888.03	-0.000
888.20	-0.000
888.37	-0.000
888.54	-0.000
888.70	-0.000
888.87	-0.000
889.04	-0.000
889.21	-0.000
889.38	-0.000
889.55	-0.000
889.71	-0.000
889.88	-0.000
890.05	-0.000
890.22	-0.000
890.39	-0.000
>>>>>End Processed Spectral Data<<<<<
