SpectraSuite Data File
++++++++++++++++++++++++++++++++++++
Date: Fri Jun 19 14:26:35 CEST 2015
User: introlabs
Dark Spectrum Present: Yes
Reference Spectrum Present: Yes
Number of Sampled Component Spectra: 1
Spectrometers: USB4H08886
Integration Time (usec): 745692 (USB4H08886)
Spectra Averaged: 5 (USB4H08886)
Boxcar Smoothing: 5 (USB4H08886)
Correct for Electrical Dark: Yes (USB4H08886)
Strobe/Lamp Enabled: No (USB4H08886)
Correct for Detector Non-linearity: Yes (USB4H08886)
Correct for Stray Light: Yes (USB4H08886)
Number of Pixels in Processed Spectrum: 3648
>>>>>Begin Processed Spectral Data<<<<<
178.14	-0.000
178.36	-0.000
178.57	-0.000
178.79	-0.000
179.01	-0.000
179.22	-0.000
179.44	-0.000
179.65	-0.000
179.87	-0.000
180.08	-0.000
180.30	-0.000
180.52	-0.000
180.73	-0.000
180.95	-0.000
181.16	-0.000
181.38	-0.000
181.59	-0.000
181.81	-0.000
182.03	-0.000
182.24	-0.000
182.46	-0.000
182.67	-0.000
182.89	-0.000
183.10	-0.000
183.32	-0.000
183.54	-0.000
183.75	-0.000
183.97	-0.000
184.18	-0.000
184.40	-0.000
184.61	-0.000
184.83	-0.000
185.04	-0.000
185.26	-0.000
185.48	-0.000
185.69	-0.000
185.91	-0.000
186.12	-0.000
186.34	-0.000
186.55	-0.000
186.77	-0.000
186.98	-0.000
187.20	-0.000
187.42	-0.000
187.63	-0.000
187.85	-0.000
188.06	-0.000
188.28	-0.000
188.49	-0.000
188.71	-0.000
188.92	-0.000
189.14	-0.000
189.36	-0.000
189.57	-0.000
189.79	-0.000
190.00	-0.000
190.22	-0.000
190.43	-0.000
190.65	-0.000
190.86	-0.000
191.08	-0.000
191.29	-0.000
191.51	-0.000
191.72	-0.000
191.94	-0.000
192.16	-0.000
192.37	-0.000
192.59	-0.000
192.80	-0.000
193.02	-0.000
193.23	-0.000
193.45	-0.000
193.66	-0.000
193.88	-0.000
194.09	-0.000
194.31	-0.000
194.52	-0.000
194.74	-0.000
194.95	-0.000
195.17	-0.000
195.38	-0.000
195.60	-0.000
195.81	-0.000
196.03	-0.000
196.25	-0.000
196.46	-0.000
196.68	-0.000
196.89	-0.000
197.11	-0.000
197.32	-0.000
197.54	-0.000
197.75	-0.000
197.97	-0.000
198.18	-0.000
198.40	-0.000
198.61	-0.000
198.83	-0.000
199.04	-0.000
199.26	-0.000
199.47	-0.000
199.69	-0.000
199.90	-0.000
200.12	-0.000
200.33	-0.000
200.55	-0.000
200.76	-0.000
200.98	-0.000
201.19	-0.000
201.41	-0.000
201.62	-0.000
201.84	-0.000
202.05	-0.000
202.27	-0.000
202.48	-0.000
202.70	-0.000
202.91	-0.000
203.13	-0.000
203.34	-0.000
203.56	-0.000
203.77	-0.000
203.99	-0.000
204.20	-0.000
204.42	-0.000
204.63	-0.000
204.85	-0.000
205.06	-0.000
205.28	-0.000
205.49	-0.000
205.71	-0.000
205.92	-0.000
206.14	-0.000
206.35	-0.000
206.56	-0.000
206.78	-0.000
206.99	-0.000
207.21	-0.000
207.42	-0.000
207.64	-0.000
207.85	-0.000
208.07	-0.000
208.28	-0.000
208.50	-0.000
208.71	-0.000
208.93	-0.000
209.14	-0.000
209.36	-0.000
209.57	-0.000
209.79	-0.000
210.00	-0.000
210.22	-0.000
210.43	-0.000
210.64	-0.000
210.86	-0.000
211.07	-0.000
211.29	-0.000
211.50	-0.000
211.72	-0.000
211.93	-0.000
212.15	-0.000
212.36	-0.000
212.58	-0.000
212.79	-0.000
213.01	-0.000
213.22	-0.000
213.43	-0.000
213.65	-0.000
213.86	-0.000
214.08	-0.000
214.29	-0.000
214.51	-0.000
214.72	-0.000
214.94	-0.000
215.15	-0.000
215.36	-0.000
215.58	-0.000
215.79	-0.000
216.01	-0.000
216.22	-0.000
216.44	-0.000
216.65	-0.000
216.87	-0.000
217.08	-0.000
217.29	-0.000
217.51	-0.000
217.72	-0.000
217.94	-0.000
218.15	-0.000
218.37	-0.000
218.58	-0.000
218.80	-0.000
219.01	-0.000
219.22	-0.000
219.44	-0.000
219.65	-0.000
219.87	-0.000
220.08	-0.000
220.30	-0.000
220.51	-0.000
220.72	-0.000
220.94	-0.000
221.15	-0.000
221.37	-0.000
221.58	-0.000
221.79	-0.000
222.01	-0.000
222.22	-0.000
222.44	-0.000
222.65	-0.000
222.87	-0.000
223.08	-0.000
223.29	-0.000
223.51	-0.000
223.72	-0.000
223.94	-0.000
224.15	-0.000
224.36	-0.000
224.58	-0.000
224.79	-0.000
225.01	-0.000
225.22	-0.000
225.44	-0.000
225.65	-0.000
225.86	-0.000
226.08	-0.000
226.29	-0.000
226.51	-0.000
226.72	-0.000
226.93	-0.000
227.15	-0.000
227.36	-0.000
227.58	-0.000
227.79	-0.000
228.00	-0.000
228.22	-0.000
228.43	-0.000
228.65	-0.000
228.86	-0.000
229.07	-0.000
229.29	-0.000
229.50	-0.000
229.72	-0.000
229.93	-0.000
230.14	-0.000
230.36	-0.000
230.57	-0.000
230.78	-0.000
231.00	-0.000
231.21	-0.000
231.43	-0.000
231.64	-0.000
231.85	-0.000
232.07	-0.000
232.28	-0.000
232.50	-0.000
232.71	-0.000
232.92	-0.000
233.14	-0.000
233.35	-0.000
233.56	-0.000
233.78	-0.000
233.99	-0.000
234.21	-0.000
234.42	-0.000
234.63	-0.000
234.85	-0.000
235.06	-0.000
235.27	-0.000
235.49	-0.000
235.70	-0.000
235.91	-0.000
236.13	-0.000
236.34	-0.000
236.56	-0.000
236.77	-0.000
236.98	-0.000
237.20	-0.000
237.41	-0.000
237.62	-0.000
237.84	-0.000
238.05	-0.000
238.26	-0.000
238.48	-0.000
238.69	-0.000
238.91	-0.000
239.12	-0.000
239.33	-0.000
239.55	-0.000
239.76	-0.000
239.97	-0.000
240.19	-0.000
240.40	-0.000
240.61	-0.000
240.83	-0.000
241.04	-0.000
241.25	-0.000
241.47	-0.000
241.68	-0.000
241.89	-0.000
242.11	-0.000
242.32	-0.000
242.53	-0.000
242.75	-0.000
242.96	-0.000
243.17	-0.000
243.39	-0.000
243.60	-0.000
243.81	-0.000
244.03	-0.000
244.24	-0.000
244.45	-0.000
244.67	-0.000
244.88	-0.000
245.09	-0.000
245.31	-0.000
245.52	-0.000
245.73	-0.000
245.95	-0.000
246.16	-0.000
246.37	-0.000
246.59	-0.000
246.80	-0.000
247.01	-0.000
247.23	-0.000
247.44	-0.000
247.65	-0.000
247.87	-0.000
248.08	-0.000
248.29	-0.000
248.51	-0.000
248.72	-0.000
248.93	-0.000
249.15	-0.000
249.36	-0.000
249.57	-0.000
249.78	-0.000
250.00	-0.000
250.21	-0.000
250.42	-0.000
250.64	-0.000
250.85	-0.000
251.06	-0.000
251.28	-0.000
251.49	-0.000
251.70	-0.000
251.92	-0.000
252.13	-0.000
252.34	-0.000
252.55	-0.000
252.77	-0.000
252.98	-0.000
253.19	-0.000
253.41	-0.000
253.62	-0.000
253.83	-0.000
254.05	-0.000
254.26	-0.000
254.47	-0.000
254.68	-0.000
254.90	-0.000
255.11	-0.000
255.32	-0.000
255.54	-0.000
255.75	-0.000
255.96	-0.000
256.17	-0.000
256.39	-0.000
256.60	-0.000
256.81	-0.000
257.03	-0.000
257.24	-0.000
257.45	-0.000
257.66	-0.000
257.88	-0.000
258.09	-0.000
258.30	-0.000
258.51	-0.000
258.73	-0.000
258.94	-0.000
259.15	-0.000
259.37	-0.000
259.58	-0.000
259.79	-0.000
260.00	-0.000
260.22	-0.000
260.43	-0.000
260.64	-0.000
260.85	-0.000
261.07	-0.000
261.28	-0.000
261.49	-0.000
261.71	-0.000
261.92	-0.000
262.13	-0.000
262.34	-0.000
262.56	-0.000
262.77	-0.000
262.98	-0.000
263.19	-0.000
263.41	-0.000
263.62	-0.000
263.83	-0.000
264.04	-0.000
264.26	-0.000
264.47	-0.000
264.68	-0.000
264.89	-0.000
265.11	-0.000
265.32	-0.000
265.53	-0.000
265.74	-0.000
265.96	-0.000
266.17	-0.000
266.38	-0.000
266.59	-0.000
266.81	-0.000
267.02	-0.000
267.23	-0.000
267.44	-0.000
267.65	-0.000
267.87	-0.000
268.08	-0.000
268.29	-0.000
268.50	-0.000
268.72	-0.000
268.93	-0.000
269.14	-0.000
269.35	-0.000
269.57	-0.000
269.78	-0.000
269.99	-0.000
270.20	-0.000
270.41	-0.000
270.63	-0.000
270.84	-0.000
271.05	-0.000
271.26	-0.000
271.48	-0.000
271.69	-0.000
271.90	-0.000
272.11	-0.000
272.32	-0.000
272.54	-0.000
272.75	-0.000
272.96	-0.000
273.17	-0.000
273.39	-0.000
273.60	-0.000
273.81	-0.000
274.02	-0.000
274.23	-0.000
274.45	-0.000
274.66	-0.000
274.87	-0.000
275.08	-0.000
275.29	-0.000
275.51	-0.000
275.72	-0.000
275.93	-0.000
276.14	-0.000
276.35	-0.000
276.57	-0.000
276.78	-0.000
276.99	-0.000
277.20	-0.000
277.41	-0.000
277.63	-0.000
277.84	-0.000
278.05	-0.000
278.26	-0.000
278.47	-0.000
278.69	-0.000
278.90	-0.000
279.11	-0.000
279.32	-0.000
279.53	-0.000
279.74	-0.000
279.96	-0.000
280.17	-0.000
280.38	-0.000
280.59	-0.000
280.80	-0.000
281.02	-0.000
281.23	-0.000
281.44	-0.000
281.65	-0.000
281.86	-0.000
282.07	-0.000
282.29	-0.000
282.50	-0.000
282.71	-0.000
282.92	-0.000
283.13	-0.000
283.35	-0.000
283.56	-0.000
283.77	-0.000
283.98	-0.000
284.19	-0.000
284.40	-0.000
284.62	-0.000
284.83	-0.000
285.04	-0.000
285.25	-0.000
285.46	-0.000
285.67	-0.000
285.88	-0.000
286.10	-0.000
286.31	-0.000
286.52	-0.000
286.73	-0.000
286.94	-0.000
287.15	-0.000
287.37	-0.000
287.58	-0.000
287.79	-0.000
288.00	-0.000
288.21	-0.000
288.42	-0.000
288.63	-0.000
288.85	-0.000
289.06	-0.000
289.27	-0.000
289.48	-0.000
289.69	-0.000
289.90	-0.000
290.11	-0.000
290.33	-0.000
290.54	-0.000
290.75	-0.000
290.96	-0.000
291.17	-0.000
291.38	-0.000
291.59	-0.000
291.81	-0.000
292.02	-0.000
292.23	-0.000
292.44	-0.000
292.65	-0.000
292.86	-0.000
293.07	-0.000
293.28	-0.000
293.50	-0.000
293.71	-0.000
293.92	-0.000
294.13	-0.000
294.34	-0.000
294.55	-0.000
294.76	-0.000
294.97	-0.000
295.19	-0.000
295.40	-0.000
295.61	-0.000
295.82	-0.000
296.03	-0.000
296.24	-0.000
296.45	2.322
296.66	1.825
296.87	1.858
297.09	1.976
297.30	2.331
297.51	1.786
297.72	1.743
297.93	1.841
298.14	1.798
298.35	1.755
298.56	1.728
298.77	1.889
298.99	1.847
299.20	1.793
299.41	1.755
299.62	1.702
299.83	1.693
300.04	1.611
300.25	1.604
300.46	1.658
300.67	1.625
300.88	1.569
301.10	1.569
301.31	1.654
301.52	1.583
301.73	1.526
301.94	1.530
302.15	1.548
302.36	1.500
302.57	1.431
302.78	1.439
302.99	1.485
303.20	1.501
303.41	1.403
303.63	1.387
303.84	1.401
304.05	1.396
304.26	1.331
304.47	1.338
304.68	1.346
304.89	1.340
305.10	1.293
305.31	1.280
305.52	1.323
305.73	1.314
305.94	1.273
306.15	1.265
306.37	1.289
306.58	1.298
306.79	1.265
307.00	1.289
307.21	1.326
307.42	1.323
307.63	1.284
307.84	1.254
308.05	1.292
308.26	1.293
308.47	1.266
308.68	1.259
308.89	1.260
309.10	1.255
309.31	1.210
309.52	1.204
309.73	1.219
309.95	1.214
310.16	1.183
310.37	1.173
310.58	1.190
310.79	1.189
311.00	1.186
311.21	1.186
311.42	1.191
311.63	1.186
311.84	1.167
312.05	1.165
312.26	1.189
312.47	1.201
312.68	1.175
312.89	1.157
313.10	1.167
313.31	1.137
313.52	1.140
313.73	1.142
313.94	1.143
314.15	1.125
314.36	1.100
314.57	1.089
314.78	1.078
314.99	1.076
315.21	1.064
315.42	1.067
315.63	1.082
315.84	1.062
316.05	1.048
316.26	1.057
316.47	1.076
316.68	1.075
316.89	1.057
317.10	1.077
317.31	1.082
317.52	1.084
317.73	1.061
317.94	1.061
318.15	1.103
318.36	1.102
318.57	1.085
318.78	1.074
318.99	1.111
319.20	1.110
319.41	1.073
319.62	1.075
319.83	1.090
320.04	1.085
320.25	1.070
320.46	1.035
320.67	1.038
320.88	1.034
321.09	1.019
321.30	1.003
321.51	1.019
321.72	1.017
321.93	1.000
322.14	0.991
322.35	1.019
322.56	1.021
322.77	1.010
322.98	1.022
323.19	1.029
323.40	1.036
323.61	1.014
323.82	1.009
324.03	1.016
324.24	1.014
324.45	1.001
324.66	0.982
324.87	0.979
325.08	0.978
325.29	0.959
325.50	0.953
325.71	0.959
325.92	0.965
326.13	0.950
326.34	0.951
326.55	0.958
326.76	0.958
326.97	0.947
327.18	0.941
327.39	0.965
327.60	0.965
327.80	0.964
328.01	0.962
328.22	0.962
328.43	0.966
328.64	0.955
328.85	0.959
329.06	0.960
329.27	0.960
329.48	0.954
329.69	0.936
329.90	0.946
330.11	0.939
330.32	0.932
330.53	0.927
330.74	0.928
330.95	0.926
331.16	0.912
331.37	0.920
331.58	0.921
331.79	0.922
332.00	0.913
332.21	0.906
332.42	0.911
332.63	0.901
332.83	0.895
333.04	0.896
333.25	0.907
333.46	0.906
333.67	0.891
333.88	0.894
334.09	0.904
334.30	0.901
334.51	0.893
334.72	0.888
334.93	0.892
335.14	0.891
335.35	0.885
335.56	0.880
335.77	0.889
335.98	0.888
336.18	0.881
336.39	0.873
336.60	0.877
336.81	0.875
337.02	0.874
337.23	0.879
337.44	0.883
337.65	0.883
337.86	0.874
338.07	0.869
338.28	0.874
338.49	0.871
338.70	0.864
338.91	0.870
339.11	0.878
339.32	0.874
339.53	0.861
339.74	0.857
339.95	0.855
340.16	0.852
340.37	0.845
340.58	0.845
340.79	0.849
341.00	0.849
341.21	0.838
341.41	0.838
341.62	0.841
341.83	0.842
342.04	0.836
342.25	0.847
342.46	0.851
342.67	0.849
342.88	0.840
343.09	0.839
343.30	0.846
343.50	0.850
343.71	0.840
343.92	0.838
344.13	0.843
344.34	0.843
344.55	0.827
344.76	0.825
344.97	0.830
345.18	0.830
345.38	0.826
345.59	0.822
345.80	0.822
346.01	0.820
346.22	0.816
346.43	0.811
346.64	0.819
346.85	0.819
347.06	0.811
347.26	0.812
347.47	0.815
347.68	0.810
347.89	0.806
348.10	0.799
348.31	0.806
348.52	0.805
348.73	0.803
348.93	0.799
349.14	0.801
349.35	0.801
349.56	0.795
349.77	0.790
349.98	0.797
350.19	0.794
350.39	0.789
350.60	0.785
350.81	0.800
351.02	0.799
351.23	0.795
351.44	0.798
351.65	0.801
351.86	0.800
352.06	0.798
352.27	0.798
352.48	0.800
352.69	0.800
352.90	0.794
353.11	0.781
353.31	0.788
353.52	0.784
353.73	0.774
353.94	0.776
354.15	0.782
354.36	0.781
354.57	0.772
354.77	0.773
354.98	0.774
355.19	0.773
355.40	0.772
355.61	0.778
355.82	0.783
356.02	0.782
356.23	0.775
356.44	0.776
356.65	0.780
356.86	0.781
357.07	0.775
357.27	0.778
357.48	0.780
357.69	0.776
357.90	0.760
358.11	0.757
358.32	0.761
358.52	0.763
358.73	0.753
358.94	0.755
359.15	0.759
359.36	0.760
359.56	0.755
359.77	0.753
359.98	0.760
360.19	0.760
360.40	0.756
360.61	0.756
360.81	0.756
361.02	0.756
361.23	0.748
361.44	0.747
361.65	0.747
361.85	0.746
362.06	0.743
362.27	0.745
362.48	0.745
362.69	0.747
362.89	0.742
363.10	0.742
363.31	0.747
363.52	0.750
363.73	0.745
363.93	0.745
364.14	0.748
364.35	0.749
364.56	0.739
364.77	0.742
364.97	0.744
365.18	0.745
365.39	0.741
365.60	0.738
365.81	0.739
366.01	0.739
366.22	0.736
366.43	0.735
366.64	0.737
366.84	0.742
367.05	0.738
367.26	0.738
367.47	0.740
367.68	0.739
367.88	0.736
368.09	0.734
368.30	0.736
368.51	0.736
368.71	0.735
368.92	0.739
369.13	0.738
369.34	0.738
369.55	0.735
369.75	0.735
369.96	0.742
370.17	0.742
370.38	0.738
370.58	0.739
370.79	0.744
371.00	0.743
371.21	0.734
371.41	0.740
371.62	0.744
371.83	0.740
372.04	0.738
372.24	0.731
372.45	0.732
372.66	0.733
372.87	0.729
373.07	0.725
373.28	0.726
373.49	0.729
373.70	0.719
373.90	0.718
374.11	0.728
374.32	0.727
374.53	0.726
374.73	0.728
374.94	0.730
375.15	0.731
375.36	0.728
375.56	0.737
375.77	0.737
375.98	0.738
376.19	0.735
376.39	0.728
376.60	0.731
376.81	0.732
377.02	0.729
377.22	0.729
377.43	0.729
377.64	0.729
377.84	0.720
378.05	0.724
378.26	0.730
378.47	0.729
378.67	0.726
378.88	0.723
379.09	0.724
379.30	0.723
379.50	0.720
379.71	0.723
379.92	0.727
380.12	0.726
380.33	0.718
380.54	0.714
380.75	0.721
380.95	0.721
381.16	0.719
381.37	0.719
381.57	0.721
381.78	0.721
381.99	0.720
382.20	0.720
382.40	0.722
382.61	0.723
382.82	0.719
383.02	0.713
383.23	0.717
383.44	0.718
383.64	0.716
383.85	0.719
384.06	0.723
384.27	0.720
384.47	0.718
384.68	0.719
384.89	0.725
385.09	0.725
385.30	0.725
385.51	0.723
385.71	0.726
385.92	0.726
386.13	0.724
386.33	0.725
386.54	0.726
386.75	0.725
386.95	0.720
387.16	0.716
387.37	0.719
387.58	0.718
387.78	0.716
387.99	0.714
388.20	0.716
388.40	0.713
388.61	0.709
388.82	0.712
389.02	0.715
389.23	0.714
389.44	0.712
389.64	0.712
389.85	0.724
390.06	0.723
390.26	0.724
390.47	0.723
390.68	0.725
390.88	0.723
391.09	0.719
391.30	0.718
391.50	0.719
391.71	0.720
391.92	0.717
392.12	0.709
392.33	0.710
392.53	0.711
392.74	0.710
392.95	0.711
393.15	0.713
393.36	0.714
393.57	0.711
393.77	0.714
393.98	0.716
394.19	0.716
394.39	0.715
394.60	0.717
394.81	0.718
395.01	0.716
395.22	0.714
395.43	0.715
395.63	0.720
395.84	0.721
396.04	0.717
396.25	0.718
396.46	0.721
396.66	0.719
396.87	0.716
397.08	0.712
397.28	0.715
397.49	0.716
397.69	0.713
397.90	0.708
398.11	0.710
398.31	0.711
398.52	0.707
398.73	0.708
398.93	0.708
399.14	0.707
399.34	0.706
399.55	0.708
399.76	0.708
399.96	0.708
400.17	0.707
400.37	0.705
400.58	0.712
400.79	0.713
400.99	0.709
401.20	0.715
401.41	0.718
401.61	0.719
401.82	0.723
402.02	0.723
402.23	0.725
402.44	0.724
402.64	0.725
402.85	0.719
403.05	0.719
403.26	0.718
403.47	0.712
403.67	0.712
403.88	0.712
404.08	0.706
404.29	0.704
404.50	0.704
404.70	0.704
404.91	0.703
405.11	0.700
405.32	0.700
405.52	0.700
405.73	0.699
405.94	0.697
406.14	0.700
406.35	0.702
406.55	0.702
406.76	0.699
406.97	0.701
407.17	0.704
407.38	0.704
407.58	0.702
407.79	0.705
407.99	0.707
408.20	0.708
408.41	0.703
408.61	0.701
408.82	0.702
409.02	0.702
409.23	0.699
409.43	0.697
409.64	0.698
409.84	0.698
410.05	0.695
410.26	0.693
410.46	0.693
410.67	0.693
410.87	0.695
411.08	0.697
411.28	0.699
411.49	0.700
411.69	0.697
411.90	0.699
412.11	0.700
412.31	0.701
412.52	0.699
412.72	0.700
412.93	0.702
413.13	0.700
413.34	0.696
413.54	0.697
413.75	0.700
413.95	0.700
414.16	0.697
414.37	0.699
414.57	0.700
414.78	0.702
414.98	0.701
415.19	0.701
415.39	0.699
415.60	0.701
415.80	0.700
416.01	0.697
416.21	0.699
416.42	0.699
416.62	0.694
416.83	0.695
417.03	0.694
417.24	0.694
417.44	0.691
417.65	0.691
417.86	0.692
418.06	0.690
418.27	0.689
418.47	0.690
418.68	0.691
418.88	0.691
419.09	0.690
419.29	0.690
419.50	0.691
419.70	0.691
419.91	0.689
420.11	0.687
420.32	0.689
420.52	0.688
420.73	0.687
420.93	0.687
421.14	0.689
421.34	0.688
421.55	0.686
421.75	0.686
421.96	0.687
422.16	0.687
422.37	0.686
422.57	0.683
422.78	0.685
422.98	0.682
423.19	0.680
423.39	0.678
423.60	0.681
423.80	0.682
424.01	0.680
424.21	0.683
424.42	0.684
424.62	0.683
424.83	0.682
425.03	0.682
425.23	0.685
425.44	0.685
425.64	0.685
425.85	0.684
426.05	0.685
426.26	0.686
426.46	0.682
426.67	0.681
426.87	0.686
427.08	0.687
427.28	0.684
427.49	0.685
427.69	0.686
427.90	0.685
428.10	0.682
428.31	0.682
428.51	0.683
428.71	0.683
428.92	0.683
429.12	0.681
429.33	0.681
429.53	0.686
429.74	0.689
429.94	0.689
430.15	0.689
430.35	0.689
430.56	0.686
430.76	0.685
430.96	0.686
431.17	0.683
431.37	0.680
431.58	0.679
431.78	0.675
431.99	0.668
432.19	0.670
432.40	0.672
432.60	0.673
432.80	0.676
433.01	0.674
433.21	0.674
433.42	0.676
433.62	0.677
433.83	0.676
434.03	0.679
434.23	0.682
434.44	0.681
434.64	0.679
434.85	0.684
435.05	0.684
435.26	0.684
435.46	0.682
435.66	0.682
435.87	0.681
436.07	0.682
436.28	0.678
436.48	0.675
436.69	0.675
436.89	0.674
437.09	0.668
437.30	0.667
437.50	0.668
437.71	0.680
437.91	0.679
438.11	0.680
438.32	0.684
438.52	0.684
438.73	0.683
438.93	0.682
439.13	0.682
439.34	0.686
439.54	0.684
439.75	0.684
439.95	0.673
440.15	0.677
440.36	0.676
440.56	0.673
440.77	0.673
440.97	0.673
441.17	0.672
441.38	0.672
441.58	0.670
441.79	0.669
441.99	0.667
442.19	0.666
442.40	0.664
442.60	0.664
442.81	0.662
443.01	0.662
443.21	0.663
443.42	0.663
443.62	0.662
443.82	0.662
444.03	0.663
444.23	0.663
444.44	0.663
444.64	0.662
444.84	0.664
445.05	0.664
445.25	0.662
445.45	0.662
445.66	0.664
445.86	0.663
446.06	0.664
446.27	0.663
446.47	0.666
446.68	0.665
446.88	0.663
447.08	0.663
447.29	0.665
447.49	0.665
447.69	0.664
447.90	0.663
448.10	0.666
448.30	0.664
448.51	0.665
448.71	0.662
448.91	0.665
449.12	0.664
449.32	0.665
449.52	0.664
449.73	0.668
449.93	0.667
450.14	0.667
450.34	0.667
450.54	0.670
450.75	0.667
450.95	0.667
451.15	0.667
451.36	0.669
451.56	0.666
451.76	0.665
451.97	0.663
452.17	0.662
452.37	0.662
452.58	0.658
452.78	0.657
452.98	0.659
453.19	0.658
453.39	0.658
453.59	0.657
453.79	0.658
454.00	0.658
454.20	0.657
454.40	0.658
454.61	0.660
454.81	0.661
455.01	0.659
455.22	0.659
455.42	0.661
455.62	0.659
455.83	0.659
456.03	0.663
456.23	0.663
456.44	0.664
456.64	0.662
456.84	0.662
457.04	0.663
457.25	0.662
457.45	0.659
457.65	0.657
457.86	0.658
458.06	0.657
458.26	0.652
458.47	0.652
458.67	0.653
458.87	0.653
459.07	0.651
459.28	0.653
459.48	0.655
459.68	0.655
459.89	0.655
460.09	0.654
460.29	0.655
460.49	0.656
460.70	0.655
460.90	0.655
461.10	0.655
461.31	0.655
461.51	0.652
461.71	0.654
461.91	0.656
462.12	0.656
462.32	0.655
462.52	0.656
462.72	0.658
462.93	0.659
463.13	0.658
463.33	0.658
463.53	0.660
463.74	0.659
463.94	0.655
464.14	0.655
464.35	0.656
464.55	0.657
464.75	0.654
464.95	0.652
465.16	0.654
465.36	0.652
465.56	0.651
465.76	0.650
465.97	0.650
466.17	0.651
466.37	0.648
466.57	0.649
466.78	0.650
466.98	0.650
467.18	0.648
467.38	0.647
467.59	0.649
467.79	0.651
467.99	0.650
468.19	0.652
468.39	0.655
468.60	0.655
468.80	0.653
469.00	0.654
469.20	0.655
469.41	0.655
469.61	0.655
469.81	0.655
470.01	0.654
470.22	0.655
470.42	0.652
470.62	0.650
470.82	0.652
471.02	0.651
471.23	0.649
471.43	0.650
471.63	0.652
471.83	0.651
472.04	0.649
472.24	0.648
472.44	0.653
472.64	0.654
472.84	0.652
473.05	0.651
473.25	0.654
473.45	0.653
473.65	0.652
473.85	0.653
474.06	0.654
474.26	0.653
474.46	0.654
474.66	0.651
474.86	0.652
475.07	0.652
475.27	0.650
475.47	0.647
475.67	0.648
475.87	0.650
476.08	0.646
476.28	0.648
476.48	0.649
476.68	0.647
476.88	0.645
477.09	0.647
477.29	0.648
477.49	0.649
477.69	0.648
477.89	0.647
478.09	0.647
478.30	0.650
478.50	0.647
478.70	0.647
478.90	0.647
479.10	0.650
479.31	0.650
479.51	0.649
479.71	0.649
479.91	0.649
480.11	0.648
480.31	0.648
480.52	0.647
480.72	0.647
480.92	0.645
481.12	0.644
481.32	0.641
481.52	0.639
481.72	0.639
481.93	0.643
482.13	0.644
482.33	0.643
482.53	0.641
482.73	0.642
482.93	0.643
483.14	0.643
483.34	0.642
483.54	0.643
483.74	0.642
483.94	0.641
484.14	0.637
484.34	0.637
484.55	0.638
484.75	0.638
484.95	0.636
485.15	0.636
485.35	0.636
485.55	0.635
485.75	0.634
485.96	0.635
486.16	0.637
486.36	0.636
486.56	0.634
486.76	0.634
486.96	0.635
487.16	0.634
487.36	0.632
487.57	0.632
487.77	0.633
487.97	0.633
488.17	0.631
488.37	0.630
488.57	0.631
488.77	0.631
488.97	0.630
489.18	0.629
489.38	0.632
489.58	0.633
489.78	0.632
489.98	0.631
490.18	0.631
490.38	0.631
490.58	0.630
490.78	0.630
490.98	0.632
491.19	0.632
491.39	0.631
491.59	0.630
491.79	0.634
491.99	0.634
492.19	0.634
492.39	0.637
492.59	0.637
492.79	0.639
492.99	0.639
493.20	0.639
493.40	0.639
493.60	0.640
493.80	0.638
494.00	0.636
494.20	0.637
494.40	0.637
494.60	0.634
494.80	0.638
495.00	0.638
495.20	0.636
495.40	0.635
495.61	0.637
495.81	0.637
496.01	0.641
496.21	0.642
496.41	0.641
496.61	0.642
496.81	0.640
497.01	0.635
497.21	0.634
497.41	0.635
497.61	0.634
497.81	0.632
498.01	0.632
498.21	0.630
498.41	0.628
498.61	0.628
498.82	0.630
499.02	0.632
499.22	0.633
499.42	0.632
499.62	0.633
499.82	0.634
500.02	0.635
500.22	0.634
500.42	0.636
500.62	0.637
500.82	0.636
501.02	0.634
501.22	0.634
501.42	0.634
501.62	0.636
501.82	0.636
502.02	0.636
502.22	0.635
502.42	0.637
502.62	0.634
502.82	0.634
503.02	0.635
503.22	0.635
503.42	0.633
503.63	0.633
503.83	0.631
504.03	0.630
504.23	0.628
504.43	0.629
504.63	0.630
504.83	0.630
505.03	0.629
505.23	0.630
505.43	0.632
505.63	0.633
505.83	0.633
506.03	0.634
506.23	0.636
506.43	0.637
506.63	0.636
506.83	0.634
507.03	0.637
507.23	0.637
507.43	0.634
507.63	0.635
507.83	0.635
508.03	0.636
508.23	0.635
508.43	0.633
508.63	0.635
508.83	0.635
509.03	0.636
509.23	0.635
509.43	0.636
509.63	0.636
509.83	0.635
510.03	0.638
510.23	0.639
510.43	0.639
510.63	0.640
510.83	0.639
511.03	0.641
511.23	0.639
511.43	0.638
511.63	0.640
511.83	0.642
512.03	0.642
512.22	0.638
512.42	0.638
512.62	0.639
512.82	0.639
513.02	0.638
513.22	0.638
513.42	0.640
513.62	0.643
513.82	0.641
514.02	0.640
514.22	0.642
514.42	0.642
514.62	0.642
514.82	0.642
515.02	0.644
515.22	0.647
515.42	0.645
515.62	0.647
515.82	0.647
516.02	0.647
516.22	0.648
516.42	0.649
516.62	0.651
516.82	0.653
517.01	0.651
517.21	0.650
517.41	0.654
517.61	0.654
517.81	0.650
518.01	0.650
518.21	0.650
518.41	0.648
518.61	0.647
518.81	0.647
519.01	0.647
519.21	0.647
519.41	0.647
519.61	0.641
519.81	0.644
520.00	0.645
520.20	0.645
520.40	0.648
520.60	0.649
520.80	0.648
521.00	0.649
521.20	0.650
521.40	0.655
521.60	0.655
521.80	0.654
522.00	0.654
522.20	0.656
522.39	0.656
522.59	0.652
522.79	0.654
522.99	0.656
523.19	0.654
523.39	0.652
523.59	0.650
523.79	0.653
523.99	0.655
524.19	0.654
524.38	0.652
524.58	0.654
524.78	0.654
524.98	0.652
525.18	0.654
525.38	0.655
525.58	0.656
525.78	0.653
525.98	0.652
526.18	0.652
526.37	0.652
526.57	0.653
526.77	0.653
526.97	0.654
527.17	0.654
527.37	0.651
527.57	0.654
527.77	0.656
527.96	0.657
528.16	0.655
528.36	0.656
528.56	0.657
528.76	0.655
528.96	0.654
529.16	0.655
529.36	0.658
529.55	0.657
529.75	0.653
529.95	0.654
530.15	0.655
530.35	0.658
530.55	0.655
530.75	0.656
530.94	0.658
531.14	0.658
531.34	0.656
531.54	0.654
531.74	0.658
531.94	0.661
532.13	0.659
532.33	0.661
532.53	0.660
532.73	0.660
532.93	0.658
533.13	0.659
533.33	0.660
533.52	0.660
533.72	0.663
533.92	0.661
534.12	0.659
534.32	0.659
534.52	0.657
534.71	0.658
534.91	0.662
535.11	0.663
535.31	0.660
535.51	0.663
535.71	0.665
535.90	0.662
536.10	0.664
536.30	0.665
536.50	0.666
536.70	0.666
536.89	0.664
537.09	0.664
537.29	0.665
537.49	0.666
537.69	0.663
537.89	0.664
538.08	0.663
538.28	0.661
538.48	0.661
538.68	0.663
538.88	0.665
539.07	0.665
539.27	0.663
539.47	0.662
539.67	0.663
539.87	0.665
540.06	0.663
540.26	0.663
540.46	0.666
540.66	0.663
540.86	0.661
541.05	0.661
541.25	0.663
541.45	0.663
541.65	0.661
541.84	0.662
542.04	0.663
542.24	0.663
542.44	0.662
542.64	0.663
542.83	0.666
543.03	0.667
543.23	0.664
543.43	0.665
543.62	0.667
543.82	0.667
544.02	0.666
544.22	0.666
544.42	0.669
544.61	0.670
544.81	0.665
545.01	0.664
545.21	0.666
545.40	0.667
545.60	0.664
545.80	0.667
546.00	0.667
546.19	0.666
546.39	0.665
546.59	0.663
546.79	0.665
546.98	0.665
547.18	0.665
547.38	0.666
547.58	0.669
547.77	0.670
547.97	0.665
548.17	0.667
548.37	0.668
548.56	0.668
548.76	0.667
548.96	0.669
549.16	0.671
549.35	0.671
549.55	0.669
549.75	0.669
549.95	0.673
550.14	0.674
550.34	0.672
550.54	0.677
550.73	0.680
550.93	0.681
551.13	0.678
551.33	0.677
551.52	0.677
551.72	0.677
551.92	0.675
552.12	0.675
552.31	0.676
552.51	0.676
552.71	0.671
552.90	0.671
553.10	0.673
553.30	0.673
553.50	0.672
553.69	0.674
553.89	0.675
554.09	0.676
554.28	0.673
554.48	0.674
554.68	0.676
554.87	0.676
555.07	0.673
555.27	0.672
555.47	0.674
555.66	0.675
555.86	0.673
556.06	0.675
556.25	0.676
556.45	0.683
556.65	0.682
556.84	0.685
557.04	0.688
557.24	0.690
557.43	0.690
557.63	0.693
557.83	0.695
558.02	0.695
558.22	0.699
558.42	0.699
558.61	0.692
558.81	0.692
559.01	0.688
559.21	0.687
559.40	0.688
559.60	0.688
559.80	0.684
559.99	0.685
560.19	0.687
560.39	0.681
560.58	0.679
560.78	0.679
560.97	0.684
561.17	0.682
561.37	0.680
561.56	0.682
561.76	0.683
561.96	0.683
562.15	0.681
562.35	0.682
562.55	0.684
562.74	0.685
562.94	0.683
563.14	0.681
563.33	0.681
563.53	0.681
563.73	0.678
563.92	0.679
564.12	0.682
564.31	0.684
564.51	0.682
564.71	0.684
564.90	0.686
565.10	0.687
565.30	0.689
565.49	0.691
565.69	0.693
565.89	0.694
566.08	0.691
566.28	0.692
566.47	0.694
566.67	0.692
566.87	0.689
567.06	0.691
567.26	0.697
567.46	0.692
567.65	0.691
567.85	0.693
568.04	0.696
568.24	0.695
568.44	0.692
568.63	0.690
568.83	0.692
569.02	0.691
569.22	0.687
569.42	0.683
569.61	0.685
569.81	0.684
570.00	0.681
570.20	0.682
570.40	0.684
570.59	0.683
570.79	0.681
570.98	0.679
571.18	0.681
571.38	0.681
571.57	0.678
571.77	0.676
571.96	0.680
572.16	0.678
572.35	0.673
572.55	0.674
572.75	0.672
572.94	0.672
573.14	0.670
573.33	0.670
573.53	0.671
573.73	0.671
573.92	0.669
574.12	0.666
574.31	0.669
574.51	0.671
574.70	0.667
574.90	0.668
575.09	0.671
575.29	0.672
575.49	0.669
575.68	0.669
575.88	0.671
576.07	0.672
576.27	0.669
576.46	0.668
576.66	0.667
576.86	0.667
577.05	0.664
577.25	0.662
577.44	0.664
577.64	0.664
577.83	0.662
578.03	0.663
578.22	0.662
578.42	0.661
578.61	0.659
578.81	0.660
579.00	0.661
579.20	0.661
579.40	0.660
579.59	0.658
579.79	0.659
579.98	0.659
580.18	0.658
580.37	0.658
580.57	0.660
580.76	0.665
580.96	0.664
581.15	0.665
581.35	0.666
581.54	0.666
581.74	0.665
581.93	0.667
582.13	0.668
582.32	0.665
582.52	0.663
582.71	0.662
582.91	0.658
583.10	0.658
583.30	0.657
583.49	0.656
583.69	0.660
583.88	0.662
584.08	0.661
584.27	0.663
584.47	0.666
584.66	0.667
584.86	0.666
585.05	0.668
585.25	0.670
585.44	0.670
585.64	0.667
585.83	0.664
586.03	0.664
586.22	0.663
586.42	0.659
586.61	0.661
586.81	0.663
587.00	0.663
587.20	0.660
587.39	0.661
587.59	0.664
587.78	0.665
587.98	0.666
588.17	0.667
588.37	0.669
588.56	0.671
588.76	0.667
588.95	0.667
589.15	0.671
589.34	0.674
589.54	0.672
589.73	0.672
589.92	0.676
590.12	0.676
590.31	0.673
590.51	0.678
590.70	0.680
590.90	0.681
591.09	0.679
591.29	0.677
591.48	0.677
591.68	0.678
591.87	0.676
592.06	0.676
592.26	0.679
592.45	0.678
592.65	0.672
592.84	0.671
593.04	0.674
593.23	0.676
593.43	0.674
593.62	0.673
593.81	0.673
594.01	0.673
594.20	0.670
594.40	0.669
594.59	0.671
594.79	0.672
594.98	0.670
595.17	0.668
595.37	0.669
595.56	0.671
595.76	0.670
595.95	0.671
596.14	0.675
596.34	0.676
596.53	0.674
596.73	0.676
596.92	0.677
597.12	0.680
597.31	0.680
597.50	0.680
597.70	0.682
597.89	0.681
598.09	0.678
598.28	0.679
598.47	0.681
598.67	0.680
598.86	0.676
599.06	0.679
599.25	0.679
599.44	0.677
599.64	0.674
599.83	0.672
600.03	0.675
600.22	0.676
600.41	0.676
600.61	0.673
600.80	0.676
601.00	0.676
601.19	0.672
601.38	0.670
601.58	0.673
601.77	0.674
601.96	0.676
602.16	0.676
602.35	0.685
602.55	0.682
602.74	0.683
602.93	0.684
603.13	0.690
603.32	0.691
603.51	0.690
603.71	0.694
603.90	0.696
604.09	0.696
604.29	0.694
604.48	0.688
604.68	0.689
604.87	0.688
605.06	0.684
605.26	0.680
605.45	0.681
605.64	0.681
605.84	0.676
606.03	0.675
606.22	0.674
606.42	0.673
606.61	0.670
606.80	0.670
607.00	0.671
607.19	0.672
607.38	0.671
607.58	0.672
607.77	0.674
607.96	0.674
608.16	0.673
608.35	0.677
608.54	0.680
608.74	0.684
608.93	0.689
609.12	0.692
609.32	0.695
609.51	0.698
609.70	0.697
609.90	0.699
610.09	0.704
610.28	0.709
610.48	0.702
610.67	0.703
610.86	0.704
611.06	0.698
611.25	0.695
611.44	0.696
611.64	0.695
611.83	0.698
612.02	0.695
612.21	0.693
612.41	0.692
612.60	0.691
612.79	0.687
612.99	0.687
613.18	0.689
613.37	0.686
613.57	0.683
613.76	0.686
613.95	0.683
614.14	0.682
614.34	0.679
614.53	0.680
614.72	0.684
614.92	0.684
615.11	0.680
615.30	0.677
615.49	0.679
615.69	0.681
615.88	0.677
616.07	0.678
616.26	0.681
616.46	0.682
616.65	0.679
616.84	0.677
617.04	0.679
617.23	0.682
617.42	0.683
617.61	0.687
617.81	0.687
618.00	0.690
618.19	0.688
618.38	0.692
618.58	0.695
618.77	0.696
618.96	0.696
619.15	0.698
619.35	0.699
619.54	0.700
619.73	0.695
619.92	0.698
620.12	0.701
620.31	0.701
620.50	0.696
620.69	0.695
620.89	0.700
621.08	0.700
621.27	0.700
621.46	0.698
621.66	0.702
621.85	0.702
622.04	0.699
622.23	0.699
622.43	0.701
622.62	0.701
622.81	0.700
623.00	0.699
623.19	0.703
623.39	0.702
623.58	0.700
623.77	0.698
623.96	0.700
624.16	0.700
624.35	0.695
624.54	0.698
624.73	0.702
624.92	0.699
625.12	0.697
625.31	0.697
625.50	0.700
625.69	0.700
625.88	0.696
626.08	0.697
626.27	0.698
626.46	0.698
626.65	0.695
626.84	0.695
627.04	0.701
627.23	0.701
627.42	0.697
627.61	0.698
627.80	0.701
628.00	0.702
628.19	0.699
628.38	0.703
628.57	0.706
628.76	0.705
628.96	0.702
629.15	0.702
629.34	0.706
629.53	0.705
629.72	0.700
629.91	0.701
630.11	0.705
630.30	0.706
630.49	0.708
630.68	0.708
630.87	0.713
631.06	0.714
631.26	0.709
631.45	0.710
631.64	0.719
631.83	0.722
632.02	0.719
632.21	0.718
632.41	0.726
632.60	0.720
632.79	0.718
632.98	0.718
633.17	0.720
633.36	0.722
633.55	0.719
633.75	0.715
633.94	0.717
634.13	0.717
634.32	0.713
634.51	0.707
634.70	0.708
634.89	0.709
635.09	0.706
635.28	0.706
635.47	0.707
635.66	0.710
635.85	0.705
636.04	0.706
636.23	0.711
636.43	0.713
636.62	0.712
636.81	0.711
637.00	0.713
637.19	0.716
637.38	0.713
637.57	0.712
637.76	0.714
637.95	0.715
638.15	0.712
638.34	0.708
638.53	0.711
638.72	0.714
638.91	0.711
639.10	0.710
639.29	0.710
639.48	0.711
639.67	0.711
639.87	0.711
640.06	0.717
640.25	0.716
640.44	0.717
640.63	0.717
640.82	0.720
641.01	0.720
641.20	0.719
641.39	0.721
641.58	0.724
641.78	0.722
641.97	0.717
642.16	0.731
642.35	0.732
642.54	0.730
642.73	0.725
642.92	0.723
643.11	0.727
643.30	0.726
643.49	0.720
643.68	0.722
643.87	0.724
644.06	0.724
644.25	0.703
644.45	0.706
644.64	0.707
644.83	0.708
645.02	0.704
645.21	0.702
645.40	0.705
645.59	0.705
645.78	0.698
645.97	0.701
646.16	0.701
646.35	0.701
646.54	0.699
646.73	0.700
646.92	0.701
647.11	0.701
647.30	0.698
647.49	0.699
647.68	0.700
647.88	0.699
648.07	0.692
648.26	0.696
648.45	0.698
648.64	0.694
648.83	0.691
649.02	0.694
649.21	0.704
649.40	0.703
649.59	0.698
649.78	0.698
649.97	0.713
650.16	0.712
650.35	0.705
650.54	0.709
650.73	0.718
650.92	0.714
651.11	0.707
651.30	0.705
651.49	0.710
651.68	0.710
651.87	0.707
652.06	0.696
652.25	0.699
652.44	0.701
652.63	0.697
652.82	0.698
653.01	0.698
653.20	0.697
653.39	0.685
653.58	0.682
653.77	0.682
653.96	0.677
654.15	0.670
654.34	0.668
654.53	0.664
654.72	0.658
654.91	0.648
655.10	0.645
655.29	0.643
655.48	0.642
655.67	0.637
655.86	0.634
656.05	0.633
656.24	0.632
656.43	0.627
656.62	0.626
656.81	0.627
657.00	0.624
657.19	0.621
657.38	0.621
657.57	0.620
657.76	0.622
657.95	0.620
658.14	0.623
658.33	0.626
658.51	0.631
658.70	0.631
658.89	0.632
659.08	0.642
659.27	0.649
659.46	0.648
659.65	0.655
659.84	0.658
660.03	0.662
660.22	0.663
660.41	0.667
660.60	0.666
660.79	0.668
660.98	0.674
661.17	0.673
661.36	0.673
661.55	0.674
661.74	0.671
661.92	0.674
662.11	0.677
662.30	0.675
662.49	0.669
662.68	0.668
662.87	0.671
663.06	0.665
663.25	0.666
663.44	0.666
663.63	0.666
663.82	0.665
664.01	0.660
664.20	0.659
664.38	0.660
664.57	0.660
664.76	0.660
664.95	0.660
665.14	0.665
665.33	0.660
665.52	0.668
665.71	0.672
665.90	0.672
666.09	0.672
666.28	0.670
666.46	0.669
666.65	0.669
666.84	0.667
667.03	0.661
667.22	0.659
667.41	0.661
667.60	0.651
667.79	0.644
667.98	0.646
668.16	0.647
668.35	0.647
668.54	0.644
668.73	0.645
668.92	0.646
669.11	0.645
669.30	0.639
669.49	0.636
669.67	0.638
669.86	0.640
670.05	0.637
670.24	0.634
670.43	0.632
670.62	0.632
670.81	0.627
671.00	0.628
671.18	0.628
671.37	0.627
671.56	0.624
671.75	0.623
671.94	0.620
672.13	0.619
672.32	0.615
672.50	0.614
672.69	0.614
672.88	0.615
673.07	0.610
673.26	0.612
673.45	0.614
673.63	0.614
673.82	0.612
674.01	0.613
674.20	0.613
674.39	0.612
674.58	0.611
674.76	0.611
674.95	0.609
675.14	0.609
675.33	0.604
675.52	0.602
675.71	0.603
675.89	0.601
676.08	0.597
676.27	0.596
676.46	0.597
676.65	0.597
676.84	0.596
677.02	0.598
677.21	0.600
677.40	0.599
677.59	0.596
677.78	0.597
677.96	0.600
678.15	0.599
678.34	0.597
678.53	0.598
678.72	0.598
678.90	0.595
679.09	0.591
679.28	0.588
679.47	0.588
679.66	0.588
679.84	0.584
680.03	0.582
680.22	0.581
680.41	0.583
680.60	0.579
680.78	0.578
680.97	0.581
681.16	0.581
681.35	0.579
681.53	0.578
681.72	0.580
681.91	0.581
682.10	0.580
682.29	0.582
682.47	0.580
682.66	0.580
682.85	0.578
683.04	0.577
683.22	0.577
683.41	0.579
683.60	0.577
683.79	0.578
683.97	0.577
684.16	0.576
684.35	0.571
684.54	0.573
684.72	0.574
684.91	0.574
685.10	0.572
685.29	0.573
685.47	0.570
685.66	0.569
685.85	0.566
686.04	0.565
686.22	0.568
686.41	0.571
686.60	0.568
686.79	0.571
686.97	0.572
687.16	0.574
687.35	0.571
687.54	0.575
687.72	0.579
687.91	0.578
688.10	0.579
688.29	0.579
688.47	0.576
688.66	0.576
688.85	0.572
689.03	0.569
689.22	0.573
689.41	0.574
689.60	0.569
689.78	0.567
689.97	0.568
690.16	0.565
690.34	0.561
690.53	0.561
690.72	0.561
690.91	0.559
691.09	0.557
691.28	0.551
691.47	0.549
691.65	0.548
691.84	0.545
692.03	0.544
692.21	0.543
692.40	0.543
692.59	0.541
692.77	0.540
692.96	0.541
693.15	0.542
693.34	0.539
693.52	0.539
693.71	0.539
693.90	0.540
694.08	0.541
694.27	0.541
694.46	0.550
694.64	0.551
694.83	0.551
695.02	0.551
695.20	0.551
695.39	0.551
695.58	0.551
695.76	0.552
695.95	0.551
696.14	0.551
696.32	0.548
696.51	0.539
696.70	0.539
696.88	0.540
697.07	0.537
697.26	0.538
697.44	0.540
697.63	0.538
697.81	0.535
698.00	0.535
698.19	0.534
698.37	0.535
698.56	0.534
698.75	0.534
698.93	0.534
699.12	0.534
699.31	0.533
699.49	0.533
699.68	0.534
699.87	0.537
700.05	0.537
700.24	0.536
700.42	0.537
700.61	0.537
700.80	0.534
700.98	0.535
701.17	0.536
701.36	0.535
701.54	0.534
701.73	0.535
701.91	0.533
702.10	0.532
702.29	0.530
702.47	0.529
702.66	0.531
702.84	0.532
703.03	0.530
703.22	0.531
703.40	0.531
703.59	0.532
703.77	0.531
703.96	0.531
704.15	0.532
704.33	0.533
704.52	0.532
704.70	0.531
704.89	0.531
705.08	0.530
705.26	0.526
705.45	0.526
705.63	0.526
705.82	0.522
706.00	0.521
706.19	0.521
706.38	0.521
706.56	0.520
706.75	0.518
706.93	0.517
707.12	0.518
707.30	0.519
707.49	0.516
707.68	0.514
707.86	0.514
708.05	0.514
708.23	0.511
708.42	0.512
708.60	0.514
708.79	0.514
708.98	0.512
709.16	0.512
709.35	0.514
709.53	0.517
709.72	0.516
709.90	0.518
710.09	0.520
710.27	0.522
710.46	0.525
710.64	0.524
710.83	0.526
711.02	0.528
711.20	0.526
711.39	0.524
711.57	0.522
711.76	0.523
711.94	0.521
712.13	0.522
712.31	0.522
712.50	0.517
712.68	0.514
712.87	0.515
713.05	0.515
713.24	0.515
713.42	0.515
713.61	0.515
713.79	0.516
713.98	0.516
714.16	0.517
714.35	0.516
714.54	0.518
714.72	0.518
714.91	0.516
715.09	0.522
715.28	0.526
715.46	0.525
715.65	0.523
715.83	0.522
716.02	0.524
716.20	0.520
716.39	0.520
716.57	0.521
716.76	0.522
716.94	0.523
717.12	0.515
717.31	0.516
717.49	0.519
717.68	0.521
717.86	0.521
718.05	0.522
718.23	0.525
718.42	0.528
718.60	0.529
718.79	0.536
718.97	0.539
719.16	0.539
719.34	0.537
719.53	0.537
719.71	0.537
719.90	0.539
720.08	0.536
720.27	0.536
720.45	0.536
720.63	0.535
720.82	0.530
721.00	0.533
721.19	0.536
721.37	0.535
721.56	0.535
721.74	0.538
721.93	0.547
722.11	0.555
722.30	0.554
722.48	0.558
722.66	0.559
722.85	0.559
723.03	0.558
723.22	0.557
723.40	0.561
723.59	0.562
723.77	0.565
723.95	0.559
724.14	0.559
724.32	0.561
724.51	0.559
724.69	0.561
724.88	0.561
725.06	0.559
725.24	0.559
725.43	0.560
725.61	0.562
725.80	0.556
725.98	0.553
726.16	0.551
726.35	0.557
726.53	0.555
726.72	0.553
726.90	0.564
727.09	0.564
727.27	0.571
727.45	0.566
727.64	0.575
727.82	0.584
728.01	0.588
728.19	0.585
728.37	0.589
728.56	0.595
728.74	0.603
728.92	0.589
729.11	0.592
729.29	0.590
729.48	0.594
729.66	0.583
729.84	0.582
730.03	0.586
730.21	0.588
730.40	0.578
730.58	0.578
730.76	0.578
730.95	0.583
731.13	0.583
731.31	0.596
731.50	0.605
731.68	0.609
731.86	0.604
732.05	0.618
732.23	0.621
732.42	0.625
732.60	0.627
732.78	0.631
732.97	0.648
733.15	0.655
733.33	0.643
733.52	0.649
733.70	0.659
733.88	0.670
734.07	0.656
734.25	0.682
734.43	0.690
734.62	0.694
734.80	0.690
734.98	0.682
735.17	0.687
735.35	0.693
735.53	0.680
735.72	0.684
735.90	0.706
736.08	0.725
736.27	0.701
736.45	0.710
736.63	0.722
736.82	0.730
737.00	0.728
737.18	0.740
737.37	0.773
737.55	0.796
737.73	0.789
737.92	0.789
738.10	0.787
738.28	0.808
738.46	0.796
738.65	0.809
738.83	0.831
739.01	0.883
739.20	0.870
739.38	0.849
739.56	0.842
739.75	0.846
739.93	0.815
740.11	0.837
740.29	0.836
740.48	0.843
740.66	0.821
740.84	0.814
741.03	0.781
741.21	0.794
741.39	0.779
741.57	0.794
741.76	0.809
741.94	0.812
742.12	0.778
742.31	0.784
742.49	0.805
742.67	0.828
742.85	0.839
743.04	0.843
743.22	0.852
743.40	0.903
743.58	0.882
743.77	0.898
743.95	0.937
744.13	0.986
744.31	0.965
744.50	0.954
744.68	0.950
744.86	0.926
745.04	0.929
745.23	0.990
745.41	0.973
745.59	0.977
745.77	0.943
745.96	0.931
746.14	0.940
746.32	0.934
746.50	0.927
746.69	0.915
746.87	0.928
747.05	0.920
747.23	0.847
747.42	0.831
747.60	0.856
747.78	0.857
747.96	0.883
748.14	0.840
748.33	0.871
748.51	0.865
748.69	0.858
748.87	0.886
749.06	0.886
749.24	0.887
749.42	0.875
749.60	0.857
749.78	0.873
749.97	0.826
750.15	0.822
750.33	0.820
750.51	0.843
750.69	0.848
750.88	0.846
751.06	0.854
751.24	0.878
751.42	0.870
751.60	0.863
751.79	0.922
751.97	0.972
752.15	0.971
752.33	0.940
752.51	1.001
752.69	1.012
752.88	0.985
753.06	1.028
753.24	1.006
753.42	1.039
753.60	1.198
753.78	1.065
753.97	1.078
754.15	1.098
754.33	1.126
754.51	1.006
754.69	0.994
754.87	1.022
755.06	0.955
755.24	0.958
755.42	0.968
755.60	0.877
755.78	0.888
755.96	0.836
756.15	0.833
756.33	0.840
756.51	0.857
756.69	0.842
756.87	0.808
757.05	0.827
757.23	0.810
757.42	0.776
757.60	0.773
757.78	0.764
757.96	0.764
758.14	0.748
758.32	0.734
758.50	0.750
758.69	0.750
758.87	0.745
759.05	0.747
759.23	0.760
759.41	0.762
759.59	0.753
759.77	0.772
759.95	0.796
760.13	0.844
760.32	0.842
760.50	0.834
760.68	0.861
760.86	0.861
761.04	0.835
761.22	0.835
761.40	0.882
761.58	0.886
761.76	0.860
761.95	0.844
762.13	0.803
762.31	0.806
762.49	0.777
762.67	0.793
762.85	0.803
763.03	0.797
763.21	0.776
763.39	0.757
763.57	0.759
763.75	0.753
763.94	0.738
764.12	0.738
764.30	0.759
764.48	0.763
764.66	0.725
764.84	0.724
765.02	0.762
765.20	0.772
765.38	0.754
765.56	0.759
765.74	0.797
765.92	0.798
766.10	0.803
766.28	0.798
766.46	0.826
766.65	0.829
766.83	0.816
767.01	0.801
767.19	0.806
767.37	0.804
767.55	0.789
767.73	0.769
767.91	0.774
768.09	0.763
768.27	0.750
768.45	0.740
768.63	0.744
768.81	0.748
768.99	0.720
769.17	0.742
769.35	0.756
769.53	0.756
769.71	0.739
769.89	0.746
770.07	0.751
770.25	0.735
770.43	0.712
770.61	0.735
770.79	0.741
770.97	0.751
771.15	0.724
771.33	0.726
771.51	0.728
771.69	0.737
771.87	0.748
772.05	0.753
772.24	0.763
772.42	0.774
772.60	0.752
772.78	0.808
772.96	0.835
773.14	0.829
773.32	0.811
773.49	0.822
773.67	0.821
773.85	0.799
774.03	0.787
774.21	0.817
774.39	0.831
774.57	0.853
774.75	0.783
774.93	0.780
775.11	0.803
775.29	0.808
775.47	0.806
775.65	0.811
775.83	0.828
776.01	0.853
776.19	0.804
776.37	0.802
776.55	0.802
776.73	0.798
776.91	0.791
777.09	0.773
777.27	0.770
777.45	0.758
777.63	0.739
777.81	0.736
777.99	0.722
778.17	0.722
778.35	0.701
778.53	0.690
778.71	0.694
778.89	0.684
779.07	0.675
779.24	0.679
779.42	0.683
779.60	0.700
779.78	0.696
779.96	0.699
780.14	0.708
780.32	0.726
780.50	0.710
780.68	0.711
780.86	0.704
781.04	0.720
781.22	0.726
781.40	0.736
781.58	0.728
781.75	0.722
781.93	0.707
782.11	0.706
782.29	0.696
782.47	0.694
782.65	0.683
782.83	0.711
783.01	0.706
783.19	0.697
783.37	0.682
783.55	0.684
783.72	0.700
783.90	0.711
784.08	0.704
784.26	0.713
784.44	0.734
784.62	0.736
784.80	0.704
784.98	0.710
785.16	0.716
785.33	0.729
785.51	0.717
785.69	0.703
785.87	0.704
786.05	0.716
786.23	0.712
786.41	0.708
786.59	0.716
786.77	0.714
786.94	0.698
787.12	0.704
787.30	0.707
787.48	0.705
787.66	0.693
787.84	0.693
788.02	0.681
788.19	0.680
788.37	0.667
788.55	0.667
788.73	0.669
788.91	0.665
789.09	0.646
789.27	0.635
789.44	0.646
789.62	0.652
789.80	0.658
789.98	0.685
790.16	0.672
790.34	0.670
790.51	0.660
790.69	0.680
790.87	0.687
791.05	0.686
791.23	0.677
791.41	0.679
791.58	0.686
791.76	0.666
791.94	0.636
792.12	0.643
792.30	0.644
792.48	0.640
792.65	0.633
792.83	0.639
793.01	0.645
793.19	0.645
793.37	0.630
793.54	0.626
793.72	0.638
793.90	0.636
794.08	0.625
794.26	0.626
794.43	0.636
794.61	0.619
794.79	0.608
794.97	0.607
795.15	0.613
795.32	0.618
795.50	0.608
795.68	0.603
795.86	0.608
796.04	0.610
796.21	0.605
796.39	0.602
796.57	0.616
796.75	0.625
796.92	0.626
797.10	0.630
797.28	0.632
797.46	0.636
797.64	0.637
797.81	0.644
797.99	0.650
798.17	0.654
798.35	0.649
798.52	0.653
798.70	0.650
798.88	0.659
799.06	0.658
799.23	0.660
799.41	0.669
799.59	0.660
799.77	0.649
799.94	0.657
800.12	0.665
800.30	0.682
800.48	0.679
800.65	0.678
800.83	0.667
801.01	0.658
801.19	0.658
801.36	0.653
801.54	0.657
801.72	0.667
801.90	0.654
802.07	0.651
802.25	0.637
802.43	0.623
802.60	0.620
802.78	0.627
802.96	0.633
803.14	0.627
803.31	0.626
803.49	0.626
803.67	0.623
803.84	0.627
804.02	0.618
804.20	0.622
804.38	0.626
804.55	0.623
804.73	0.607
804.91	0.606
805.08	0.618
805.26	0.614
805.44	0.676
805.61	0.679
805.79	0.678
805.97	0.678
806.15	0.669
806.32	0.663
806.50	0.672
806.68	0.676
806.85	0.668
807.03	0.659
807.21	0.675
807.38	0.609
807.56	0.597
807.74	0.606
807.91	0.613
808.09	0.617
808.27	0.637
808.44	0.661
808.62	0.669
808.80	0.671
808.97	0.666
809.15	0.662
809.33	0.679
809.50	0.686
809.68	0.674
809.86	0.679
810.03	0.710
810.21	0.688
810.39	0.671
810.56	0.675
810.74	0.699
810.91	0.768
811.09	0.755
811.27	0.776
811.44	0.782
811.62	0.784
811.80	0.768
811.97	0.738
812.15	0.738
812.33	0.734
812.50	0.720
812.68	0.708
812.85	0.657
813.03	0.659
813.21	0.626
813.38	0.620
813.56	0.624
813.74	0.635
813.91	0.642
814.09	0.670
814.26	0.664
814.44	0.667
814.62	0.658
814.79	0.660
814.97	0.665
815.14	0.671
815.32	0.678
815.50	0.694
815.67	0.696
815.85	0.687
816.02	0.677
816.20	0.681
816.38	0.695
816.55	0.699
816.73	0.698
816.90	0.708
817.08	0.737
817.26	0.738
817.43	0.715
817.61	0.738
817.78	0.757
817.96	0.738
818.13	0.729
818.31	0.729
818.49	0.742
818.66	0.735
818.84	0.719
819.01	0.698
819.19	0.705
819.36	0.708
819.54	0.680
819.71	0.722
819.89	0.733
820.07	0.746
820.24	0.741
820.42	0.741
820.59	0.760
820.77	0.787
820.94	0.777
821.12	0.791
821.29	0.808
821.47	0.810
821.64	0.747
821.82	0.761
822.00	0.760
822.17	0.757
822.35	0.750
822.52	0.750
822.70	0.736
822.87	0.748
823.05	0.729
823.22	0.741
823.40	0.766
823.57	0.784
823.75	0.764
823.92	0.785
824.10	0.808
824.27	0.846
824.45	0.838
824.62	0.900
824.80	0.915
824.97	0.930
825.15	0.915
825.32	0.933
825.50	0.940
825.67	0.952
825.85	0.929
826.02	0.942
826.20	0.962
826.37	1.084
826.55	0.996
826.72	1.183
826.90	1.237
827.07	1.290
827.25	1.217
827.42	1.341
827.60	1.485
827.77	1.614
827.95	1.571
828.12	1.642
828.30	1.343
828.47	1.471
828.65	1.147
828.82	1.200
829.00	1.257
829.17	1.330
829.34	1.332
829.52	1.361
829.69	-0.000
829.87	-0.000
830.04	-0.000
830.22	-0.000
830.39	-0.000
830.57	-0.000
830.74	-0.000
830.92	-0.000
831.09	-0.000
831.26	-0.000
831.44	-0.000
831.61	-0.000
831.79	-0.000
831.96	-0.000
832.14	-0.000
832.31	-0.000
832.49	-0.000
832.66	-0.000
832.83	-0.000
833.01	-0.000
833.18	-0.000
833.36	-0.000
833.53	-0.000
833.70	-0.000
833.88	-0.000
834.05	-0.000
834.23	-0.000
834.40	-0.000
834.58	-0.000
834.75	-0.000
834.92	-0.000
835.10	-0.000
835.27	-0.000
835.45	-0.000
835.62	-0.000
835.79	-0.000
835.97	-0.000
836.14	-0.000
836.32	-0.000
836.49	-0.000
836.66	-0.000
836.84	-0.000
837.01	-0.000
837.18	-0.000
837.36	-0.000
837.53	-0.000
837.71	-0.000
837.88	-0.000
838.05	-0.000
838.23	-0.000
838.40	-0.000
838.58	-0.000
838.75	-0.000
838.92	-0.000
839.10	-0.000
839.27	-0.000
839.44	-0.000
839.62	-0.000
839.79	-0.000
839.96	-0.000
840.14	-0.000
840.31	-0.000
840.48	-0.000
840.66	-0.000
840.83	-0.000
841.01	-0.000
841.18	-0.000
841.35	-0.000
841.53	-0.000
841.70	-0.000
841.87	-0.000
842.05	-0.000
842.22	-0.000
842.39	-0.000
842.57	-0.000
842.74	-0.000
842.91	-0.000
843.09	-0.000
843.26	-0.000
843.43	-0.000
843.60	-0.000
843.78	-0.000
843.95	-0.000
844.12	-0.000
844.30	-0.000
844.47	-0.000
844.64	-0.000
844.82	-0.000
844.99	-0.000
845.16	-0.000
845.34	-0.000
845.51	-0.000
845.68	-0.000
845.85	-0.000
846.03	-0.000
846.20	-0.000
846.37	-0.000
846.55	-0.000
846.72	-0.000
846.89	-0.000
847.06	-0.000
847.24	-0.000
847.41	-0.000
847.58	-0.000
847.76	-0.000
847.93	-0.000
848.10	-0.000
848.27	-0.000
848.45	-0.000
848.62	-0.000
848.79	-0.000
848.97	-0.000
849.14	-0.000
849.31	-0.000
849.48	-0.000
849.66	-0.000
849.83	-0.000
850.00	-0.000
850.17	-0.000
850.35	-0.000
850.52	-0.000
850.69	-0.000
850.86	-0.000
851.04	-0.000
851.21	-0.000
851.38	-0.000
851.55	-0.000
851.72	-0.000
851.90	-0.000
852.07	-0.000
852.24	-0.000
852.41	-0.000
852.59	-0.000
852.76	-0.000
852.93	-0.000
853.10	-0.000
853.28	-0.000
853.45	-0.000
853.62	-0.000
853.79	-0.000
853.96	-0.000
854.14	-0.000
854.31	-0.000
854.48	-0.000
854.65	-0.000
854.82	-0.000
855.00	-0.000
855.17	-0.000
855.34	-0.000
855.51	-0.000
855.68	-0.000
855.86	-0.000
856.03	-0.000
856.20	-0.000
856.37	-0.000
856.54	-0.000
856.72	-0.000
856.89	-0.000
857.06	-0.000
857.23	-0.000
857.40	-0.000
857.57	-0.000
857.75	-0.000
857.92	-0.000
858.09	-0.000
858.26	-0.000
858.43	-0.000
858.60	-0.000
858.78	-0.000
858.95	-0.000
859.12	-0.000
859.29	-0.000
859.46	-0.000
859.63	-0.000
859.81	-0.000
859.98	-0.000
860.15	-0.000
860.32	-0.000
860.49	-0.000
860.66	-0.000
860.83	-0.000
861.01	-0.000
861.18	-0.000
861.35	-0.000
861.52	-0.000
861.69	-0.000
861.86	-0.000
862.03	-0.000
862.21	-0.000
862.38	-0.000
862.55	-0.000
862.72	-0.000
862.89	-0.000
863.06	-0.000
863.23	-0.000
863.40	-0.000
863.58	-0.000
863.75	-0.000
863.92	-0.000
864.09	-0.000
864.26	-0.000
864.43	-0.000
864.60	-0.000
864.77	-0.000
864.94	-0.000
865.11	-0.000
865.29	-0.000
865.46	-0.000
865.63	-0.000
865.80	-0.000
865.97	-0.000
866.14	-0.000
866.31	-0.000
866.48	-0.000
866.65	-0.000
866.82	-0.000
866.99	-0.000
867.16	-0.000
867.34	-0.000
867.51	-0.000
867.68	-0.000
867.85	-0.000
868.02	-0.000
868.19	-0.000
868.36	-0.000
868.53	-0.000
868.70	-0.000
868.87	-0.000
869.04	-0.000
869.21	-0.000
869.38	-0.000
869.55	-0.000
869.72	-0.000
869.89	-0.000
870.06	-0.000
870.24	-0.000
870.41	-0.000
870.58	-0.000
870.75	-0.000
870.92	-0.000
871.09	-0.000
871.26	-0.000
871.43	-0.000
871.60	-0.000
871.77	-0.000
871.94	-0.000
872.11	-0.000
872.28	-0.000
872.45	-0.000
872.62	-0.000
872.79	-0.000
872.96	-0.000
873.13	-0.000
873.30	-0.000
873.47	-0.000
873.64	-0.000
873.81	-0.000
873.98	-0.000
874.15	-0.000
874.32	-0.000
874.49	-0.000
874.66	-0.000
874.83	-0.000
875.00	-0.000
875.17	-0.000
875.34	-0.000
875.51	-0.000
875.68	-0.000
875.85	-0.000
876.02	-0.000
876.19	-0.000
876.36	-0.000
876.53	-0.000
876.70	-0.000
876.87	-0.000
877.04	-0.000
877.21	-0.000
877.38	-0.000
877.55	-0.000
877.72	-0.000
877.89	-0.000
878.06	-0.000
878.23	-0.000
878.39	-0.000
878.56	-0.000
878.73	-0.000
878.90	-0.000
879.07	-0.000
879.24	-0.000
879.41	-0.000
879.58	-0.000
879.75	-0.000
879.92	-0.000
880.09	-0.000
880.26	-0.000
880.43	-0.000
880.60	-0.000
880.77	-0.000
880.94	-0.000
881.11	-0.000
881.27	-0.000
881.44	-0.000
881.61	-0.000
881.78	-0.000
881.95	-0.000
882.12	-0.000
882.29	-0.000
882.46	-0.000
882.63	-0.000
882.80	-0.000
882.97	-0.000
883.14	-0.000
883.30	-0.000
883.47	-0.000
883.64	-0.000
883.81	-0.000
883.98	-0.000
884.15	-0.000
884.32	-0.000
884.49	-0.000
884.66	-0.000
884.82	-0.000
884.99	-0.000
885.16	-0.000
885.33	-0.000
885.50	-0.000
885.67	-0.000
885.84	-0.000
886.01	-0.000
886.17	-0.000
886.34	-0.000
886.51	-0.000
886.68	-0.000
886.85	-0.000
887.02	-0.000
887.19	-0.000
887.36	-0.000
887.52	-0.000
887.69	-0.000
887.86	-0.000
888.03	-0.000
888.20	-0.000
888.37	-0.000
888.54	-0.000
888.70	-0.000
888.87	-0.000
889.04	-0.000
889.21	-0.000
889.38	-0.000
889.55	-0.000
889.71	-0.000
889.88	-0.000
890.05	-0.000
890.22	-0.000
890.39	-0.000
>>>>>End Processed Spectral Data<<<<<
