SpectraSuite Data File
++++++++++++++++++++++++++++++++++++
Date: Fri Jun 19 15:24:59 CEST 2015
User: introlabs
Dark Spectrum Present: Yes
Reference Spectrum Present: Yes
Number of Sampled Component Spectra: 1
Spectrometers: USB4H08886
Integration Time (usec): 745692 (USB4H08886)
Spectra Averaged: 5 (USB4H08886)
Boxcar Smoothing: 5 (USB4H08886)
Correct for Electrical Dark: Yes (USB4H08886)
Strobe/Lamp Enabled: No (USB4H08886)
Correct for Detector Non-linearity: Yes (USB4H08886)
Correct for Stray Light: Yes (USB4H08886)
Number of Pixels in Processed Spectrum: 3648
>>>>>Begin Processed Spectral Data<<<<<
178.14	-0.000
178.36	-0.000
178.57	-0.000
178.79	-0.000
179.01	-0.000
179.22	-0.000
179.44	-0.000
179.65	-0.000
179.87	-0.000
180.08	-0.000
180.30	-0.000
180.52	-0.000
180.73	-0.000
180.95	-0.000
181.16	-0.000
181.38	-0.000
181.59	-0.000
181.81	-0.000
182.03	-0.000
182.24	-0.000
182.46	-0.000
182.67	-0.000
182.89	-0.000
183.10	-0.000
183.32	-0.000
183.54	-0.000
183.75	-0.000
183.97	-0.000
184.18	-0.000
184.40	-0.000
184.61	-0.000
184.83	-0.000
185.04	-0.000
185.26	-0.000
185.48	-0.000
185.69	-0.000
185.91	-0.000
186.12	-0.000
186.34	-0.000
186.55	-0.000
186.77	-0.000
186.98	-0.000
187.20	-0.000
187.42	-0.000
187.63	-0.000
187.85	-0.000
188.06	-0.000
188.28	-0.000
188.49	-0.000
188.71	-0.000
188.92	-0.000
189.14	-0.000
189.36	-0.000
189.57	-0.000
189.79	-0.000
190.00	-0.000
190.22	-0.000
190.43	-0.000
190.65	-0.000
190.86	-0.000
191.08	-0.000
191.29	-0.000
191.51	-0.000
191.72	-0.000
191.94	-0.000
192.16	-0.000
192.37	-0.000
192.59	-0.000
192.80	-0.000
193.02	-0.000
193.23	-0.000
193.45	-0.000
193.66	-0.000
193.88	-0.000
194.09	-0.000
194.31	-0.000
194.52	-0.000
194.74	-0.000
194.95	-0.000
195.17	-0.000
195.38	-0.000
195.60	-0.000
195.81	-0.000
196.03	-0.000
196.25	-0.000
196.46	-0.000
196.68	-0.000
196.89	-0.000
197.11	-0.000
197.32	-0.000
197.54	-0.000
197.75	-0.000
197.97	-0.000
198.18	-0.000
198.40	-0.000
198.61	-0.000
198.83	-0.000
199.04	-0.000
199.26	-0.000
199.47	-0.000
199.69	-0.000
199.90	-0.000
200.12	-0.000
200.33	-0.000
200.55	-0.000
200.76	-0.000
200.98	-0.000
201.19	-0.000
201.41	-0.000
201.62	-0.000
201.84	-0.000
202.05	-0.000
202.27	-0.000
202.48	-0.000
202.70	-0.000
202.91	-0.000
203.13	-0.000
203.34	-0.000
203.56	-0.000
203.77	-0.000
203.99	-0.000
204.20	-0.000
204.42	-0.000
204.63	-0.000
204.85	-0.000
205.06	-0.000
205.28	-0.000
205.49	-0.000
205.71	-0.000
205.92	-0.000
206.14	-0.000
206.35	-0.000
206.56	-0.000
206.78	-0.000
206.99	-0.000
207.21	-0.000
207.42	-0.000
207.64	-0.000
207.85	-0.000
208.07	-0.000
208.28	-0.000
208.50	-0.000
208.71	-0.000
208.93	-0.000
209.14	-0.000
209.36	-0.000
209.57	-0.000
209.79	-0.000
210.00	-0.000
210.22	-0.000
210.43	-0.000
210.64	-0.000
210.86	-0.000
211.07	-0.000
211.29	-0.000
211.50	-0.000
211.72	-0.000
211.93	-0.000
212.15	-0.000
212.36	-0.000
212.58	-0.000
212.79	-0.000
213.01	-0.000
213.22	-0.000
213.43	-0.000
213.65	-0.000
213.86	-0.000
214.08	-0.000
214.29	-0.000
214.51	-0.000
214.72	-0.000
214.94	-0.000
215.15	-0.000
215.36	-0.000
215.58	-0.000
215.79	-0.000
216.01	-0.000
216.22	-0.000
216.44	-0.000
216.65	-0.000
216.87	-0.000
217.08	-0.000
217.29	-0.000
217.51	-0.000
217.72	-0.000
217.94	-0.000
218.15	-0.000
218.37	-0.000
218.58	-0.000
218.80	-0.000
219.01	-0.000
219.22	-0.000
219.44	-0.000
219.65	-0.000
219.87	-0.000
220.08	-0.000
220.30	-0.000
220.51	-0.000
220.72	-0.000
220.94	-0.000
221.15	-0.000
221.37	-0.000
221.58	-0.000
221.79	-0.000
222.01	-0.000
222.22	-0.000
222.44	-0.000
222.65	-0.000
222.87	-0.000
223.08	-0.000
223.29	-0.000
223.51	-0.000
223.72	-0.000
223.94	-0.000
224.15	-0.000
224.36	-0.000
224.58	-0.000
224.79	-0.000
225.01	-0.000
225.22	-0.000
225.44	-0.000
225.65	-0.000
225.86	-0.000
226.08	-0.000
226.29	-0.000
226.51	-0.000
226.72	-0.000
226.93	-0.000
227.15	-0.000
227.36	-0.000
227.58	-0.000
227.79	-0.000
228.00	-0.000
228.22	-0.000
228.43	-0.000
228.65	-0.000
228.86	-0.000
229.07	-0.000
229.29	-0.000
229.50	-0.000
229.72	-0.000
229.93	-0.000
230.14	-0.000
230.36	-0.000
230.57	-0.000
230.78	-0.000
231.00	-0.000
231.21	-0.000
231.43	-0.000
231.64	-0.000
231.85	-0.000
232.07	-0.000
232.28	-0.000
232.50	-0.000
232.71	-0.000
232.92	-0.000
233.14	-0.000
233.35	-0.000
233.56	-0.000
233.78	-0.000
233.99	-0.000
234.21	-0.000
234.42	-0.000
234.63	-0.000
234.85	-0.000
235.06	-0.000
235.27	-0.000
235.49	-0.000
235.70	-0.000
235.91	-0.000
236.13	-0.000
236.34	-0.000
236.56	-0.000
236.77	-0.000
236.98	-0.000
237.20	-0.000
237.41	-0.000
237.62	-0.000
237.84	-0.000
238.05	-0.000
238.26	-0.000
238.48	-0.000
238.69	-0.000
238.91	-0.000
239.12	-0.000
239.33	-0.000
239.55	-0.000
239.76	-0.000
239.97	-0.000
240.19	-0.000
240.40	-0.000
240.61	-0.000
240.83	-0.000
241.04	-0.000
241.25	-0.000
241.47	-0.000
241.68	-0.000
241.89	-0.000
242.11	-0.000
242.32	-0.000
242.53	-0.000
242.75	-0.000
242.96	-0.000
243.17	-0.000
243.39	-0.000
243.60	-0.000
243.81	-0.000
244.03	-0.000
244.24	-0.000
244.45	-0.000
244.67	-0.000
244.88	-0.000
245.09	-0.000
245.31	-0.000
245.52	-0.000
245.73	-0.000
245.95	-0.000
246.16	-0.000
246.37	-0.000
246.59	-0.000
246.80	-0.000
247.01	-0.000
247.23	-0.000
247.44	-0.000
247.65	-0.000
247.87	-0.000
248.08	-0.000
248.29	-0.000
248.51	-0.000
248.72	-0.000
248.93	-0.000
249.15	-0.000
249.36	-0.000
249.57	-0.000
249.78	-0.000
250.00	-0.000
250.21	-0.000
250.42	-0.000
250.64	-0.000
250.85	-0.000
251.06	-0.000
251.28	-0.000
251.49	-0.000
251.70	-0.000
251.92	-0.000
252.13	-0.000
252.34	-0.000
252.55	-0.000
252.77	-0.000
252.98	-0.000
253.19	-0.000
253.41	-0.000
253.62	-0.000
253.83	-0.000
254.05	-0.000
254.26	-0.000
254.47	-0.000
254.68	-0.000
254.90	-0.000
255.11	-0.000
255.32	-0.000
255.54	-0.000
255.75	-0.000
255.96	-0.000
256.17	-0.000
256.39	-0.000
256.60	-0.000
256.81	-0.000
257.03	-0.000
257.24	-0.000
257.45	-0.000
257.66	-0.000
257.88	-0.000
258.09	-0.000
258.30	-0.000
258.51	-0.000
258.73	-0.000
258.94	-0.000
259.15	-0.000
259.37	-0.000
259.58	-0.000
259.79	-0.000
260.00	-0.000
260.22	-0.000
260.43	-0.000
260.64	-0.000
260.85	-0.000
261.07	-0.000
261.28	-0.000
261.49	-0.000
261.71	-0.000
261.92	-0.000
262.13	-0.000
262.34	-0.000
262.56	-0.000
262.77	-0.000
262.98	-0.000
263.19	-0.000
263.41	-0.000
263.62	-0.000
263.83	-0.000
264.04	-0.000
264.26	-0.000
264.47	-0.000
264.68	-0.000
264.89	-0.000
265.11	-0.000
265.32	-0.000
265.53	-0.000
265.74	-0.000
265.96	-0.000
266.17	-0.000
266.38	-0.000
266.59	-0.000
266.81	-0.000
267.02	-0.000
267.23	-0.000
267.44	-0.000
267.65	-0.000
267.87	-0.000
268.08	-0.000
268.29	-0.000
268.50	-0.000
268.72	-0.000
268.93	-0.000
269.14	-0.000
269.35	-0.000
269.57	-0.000
269.78	-0.000
269.99	-0.000
270.20	-0.000
270.41	-0.000
270.63	-0.000
270.84	-0.000
271.05	-0.000
271.26	-0.000
271.48	-0.000
271.69	-0.000
271.90	-0.000
272.11	-0.000
272.32	-0.000
272.54	-0.000
272.75	-0.000
272.96	-0.000
273.17	-0.000
273.39	-0.000
273.60	-0.000
273.81	-0.000
274.02	-0.000
274.23	-0.000
274.45	-0.000
274.66	-0.000
274.87	-0.000
275.08	-0.000
275.29	-0.000
275.51	-0.000
275.72	-0.000
275.93	-0.000
276.14	-0.000
276.35	-0.000
276.57	-0.000
276.78	-0.000
276.99	-0.000
277.20	-0.000
277.41	-0.000
277.63	-0.000
277.84	-0.000
278.05	-0.000
278.26	-0.000
278.47	-0.000
278.69	-0.000
278.90	-0.000
279.11	-0.000
279.32	-0.000
279.53	-0.000
279.74	-0.000
279.96	-0.000
280.17	-0.000
280.38	-0.000
280.59	-0.000
280.80	-0.000
281.02	-0.000
281.23	-0.000
281.44	-0.000
281.65	-0.000
281.86	-0.000
282.07	-0.000
282.29	-0.000
282.50	-0.000
282.71	-0.000
282.92	-0.000
283.13	-0.000
283.35	-0.000
283.56	-0.000
283.77	-0.000
283.98	-0.000
284.19	-0.000
284.40	-0.000
284.62	-0.000
284.83	-0.000
285.04	-0.000
285.25	-0.000
285.46	-0.000
285.67	-0.000
285.88	-0.000
286.10	-0.000
286.31	-0.000
286.52	-0.000
286.73	-0.000
286.94	-0.000
287.15	-0.000
287.37	-0.000
287.58	-0.000
287.79	-0.000
288.00	-0.000
288.21	-0.000
288.42	-0.000
288.63	-0.000
288.85	-0.000
289.06	-0.000
289.27	-0.000
289.48	-0.000
289.69	-0.000
289.90	-0.000
290.11	-0.000
290.33	-0.000
290.54	-0.000
290.75	-0.000
290.96	-0.000
291.17	-0.000
291.38	-0.000
291.59	-0.000
291.81	-0.000
292.02	-0.000
292.23	-0.000
292.44	-0.000
292.65	-0.000
292.86	-0.000
293.07	-0.000
293.28	2.723
293.50	-0.000
293.71	-0.000
293.92	-0.000
294.13	-0.000
294.34	-0.000
294.55	-0.000
294.76	-0.000
294.97	-0.000
295.19	-0.000
295.40	-0.000
295.61	-0.000
295.82	-0.000
296.03	3.116
296.24	3.316
296.45	1.956
296.66	1.696
296.87	1.705
297.09	1.755
297.30	1.899
297.51	1.630
297.72	1.604
297.93	1.673
298.14	1.650
298.35	1.617
298.56	1.607
298.77	1.702
298.99	1.672
299.20	1.658
299.41	1.640
299.62	1.589
299.83	1.585
300.04	1.537
300.25	1.532
300.46	1.555
300.67	1.535
300.88	1.490
301.10	1.493
301.31	1.560
301.52	1.504
301.73	1.461
301.94	1.469
302.15	1.472
302.36	1.435
302.57	1.379
302.78	1.385
302.99	1.417
303.20	1.438
303.41	1.360
303.63	1.340
303.84	1.347
304.05	1.347
304.26	1.295
304.47	1.304
304.68	1.304
304.89	1.294
305.10	1.260
305.31	1.247
305.52	1.285
305.73	1.277
305.94	1.245
306.15	1.233
306.37	1.247
306.58	1.255
306.79	1.229
307.00	1.247
307.21	1.283
307.42	1.278
307.63	1.248
307.84	1.215
308.05	1.251
308.26	1.253
308.47	1.236
308.68	1.235
308.89	1.231
309.10	1.229
309.31	1.196
309.52	1.185
309.73	1.200
309.95	1.195
310.16	1.172
310.37	1.158
310.58	1.173
310.79	1.172
311.00	1.168
311.21	1.170
311.42	1.170
311.63	1.165
311.84	1.149
312.05	1.146
312.26	1.166
312.47	1.176
312.68	1.156
312.89	1.142
313.10	1.146
313.31	1.121
313.52	1.124
313.73	1.126
313.94	1.126
314.15	1.109
314.36	1.091
314.57	1.084
314.78	1.073
314.99	1.067
315.21	1.053
315.42	1.060
315.63	1.072
315.84	1.051
316.05	1.038
316.26	1.044
316.47	1.062
316.68	1.060
316.89	1.043
317.10	1.063
317.31	1.068
317.52	1.073
317.73	1.051
317.94	1.051
318.15	1.091
318.36	1.091
318.57	1.078
318.78	1.064
318.99	1.093
319.20	1.089
319.41	1.057
319.62	1.058
319.83	1.069
320.04	1.066
320.25	1.053
320.46	1.021
320.67	1.021
320.88	1.017
321.09	1.007
321.30	0.995
321.51	1.009
321.72	1.007
321.93	0.992
322.14	0.986
322.35	1.011
322.56	1.013
322.77	1.002
322.98	1.014
323.19	1.020
323.40	1.026
323.61	1.005
323.82	0.999
324.03	1.005
324.24	1.003
324.45	0.990
324.66	0.971
324.87	0.968
325.08	0.968
325.29	0.951
325.50	0.944
325.71	0.949
325.92	0.957
326.13	0.946
326.34	0.945
326.55	0.950
326.76	0.948
326.97	0.939
327.18	0.934
327.39	0.957
327.60	0.959
327.80	0.960
328.01	0.959
328.22	0.956
328.43	0.959
328.64	0.949
328.85	0.953
329.06	0.955
329.27	0.954
329.48	0.949
329.69	0.931
329.90	0.941
330.11	0.934
330.32	0.927
330.53	0.921
330.74	0.922
330.95	0.921
331.16	0.908
331.37	0.915
331.58	0.915
331.79	0.915
332.00	0.907
332.21	0.901
332.42	0.906
332.63	0.898
332.83	0.896
333.04	0.899
333.25	0.909
333.46	0.908
333.67	0.895
333.88	0.897
334.09	0.906
334.30	0.902
334.51	0.893
334.72	0.888
334.93	0.890
335.14	0.889
335.35	0.882
335.56	0.876
335.77	0.884
335.98	0.883
336.18	0.878
336.39	0.871
336.60	0.874
336.81	0.872
337.02	0.873
337.23	0.878
337.44	0.880
337.65	0.881
337.86	0.872
338.07	0.867
338.28	0.871
338.49	0.869
338.70	0.863
338.91	0.871
339.11	0.877
339.32	0.873
339.53	0.862
339.74	0.860
339.95	0.856
340.16	0.854
340.37	0.847
340.58	0.846
340.79	0.849
341.00	0.848
341.21	0.838
341.41	0.838
341.62	0.839
341.83	0.838
342.04	0.834
342.25	0.845
342.46	0.848
342.67	0.848
342.88	0.841
343.09	0.840
343.30	0.846
343.50	0.848
343.71	0.840
343.92	0.839
344.13	0.844
344.34	0.843
344.55	0.827
344.76	0.826
344.97	0.830
345.18	0.830
345.38	0.826
345.59	0.822
345.80	0.822
346.01	0.820
346.22	0.816
346.43	0.810
346.64	0.818
346.85	0.817
347.06	0.811
347.26	0.811
347.47	0.814
347.68	0.811
347.89	0.807
348.10	0.802
348.31	0.807
348.52	0.806
348.73	0.804
348.93	0.801
349.14	0.803
349.35	0.803
349.56	0.797
349.77	0.792
349.98	0.798
350.19	0.795
350.39	0.790
350.60	0.786
350.81	0.801
351.02	0.799
351.23	0.795
351.44	0.797
351.65	0.800
351.86	0.798
352.06	0.797
352.27	0.797
352.48	0.797
352.69	0.797
352.90	0.793
353.11	0.780
353.31	0.787
353.52	0.783
353.73	0.776
353.94	0.777
354.15	0.782
354.36	0.782
354.57	0.773
354.77	0.776
354.98	0.775
355.19	0.775
355.40	0.775
355.61	0.782
355.82	0.785
356.02	0.784
356.23	0.777
356.44	0.778
356.65	0.781
356.86	0.781
357.07	0.775
357.27	0.777
357.48	0.780
357.69	0.774
357.90	0.759
358.11	0.756
358.32	0.760
358.52	0.762
358.73	0.753
358.94	0.755
359.15	0.760
359.36	0.762
359.56	0.758
359.77	0.755
359.98	0.761
360.19	0.761
360.40	0.758
360.61	0.758
360.81	0.757
361.02	0.758
361.23	0.750
361.44	0.748
361.65	0.747
361.85	0.747
362.06	0.745
362.27	0.747
362.48	0.748
362.69	0.750
362.89	0.744
363.10	0.746
363.31	0.751
363.52	0.753
363.73	0.750
363.93	0.750
364.14	0.752
364.35	0.754
364.56	0.745
364.77	0.747
364.97	0.748
365.18	0.748
365.39	0.743
365.60	0.740
365.81	0.741
366.01	0.741
366.22	0.738
366.43	0.738
366.64	0.739
366.84	0.745
367.05	0.742
367.26	0.742
367.47	0.743
367.68	0.744
367.88	0.741
368.09	0.739
368.30	0.740
368.51	0.739
368.71	0.738
368.92	0.743
369.13	0.739
369.34	0.738
369.55	0.738
369.75	0.738
369.96	0.745
370.17	0.744
370.38	0.741
370.58	0.741
370.79	0.746
371.00	0.745
371.21	0.736
371.41	0.742
371.62	0.746
371.83	0.742
372.04	0.740
372.24	0.733
372.45	0.734
372.66	0.733
372.87	0.731
373.07	0.728
373.28	0.728
373.49	0.732
373.70	0.723
373.90	0.721
374.11	0.729
374.32	0.728
374.53	0.728
374.73	0.728
374.94	0.730
375.15	0.730
375.36	0.728
375.56	0.736
375.77	0.736
375.98	0.736
376.19	0.734
376.39	0.728
376.60	0.732
376.81	0.732
377.02	0.731
377.22	0.730
377.43	0.730
377.64	0.729
377.84	0.721
378.05	0.726
378.26	0.732
378.47	0.731
378.67	0.729
378.88	0.726
379.09	0.726
379.30	0.726
379.50	0.724
379.71	0.726
379.92	0.729
380.12	0.728
380.33	0.720
380.54	0.717
380.75	0.723
380.95	0.724
381.16	0.722
381.37	0.721
381.57	0.723
381.78	0.724
381.99	0.724
382.20	0.723
382.40	0.726
382.61	0.726
382.82	0.724
383.02	0.717
383.23	0.719
383.44	0.719
383.64	0.718
383.85	0.719
384.06	0.722
384.27	0.720
384.47	0.718
384.68	0.719
384.89	0.724
385.09	0.723
385.30	0.724
385.51	0.723
385.71	0.727
385.92	0.728
386.13	0.728
386.33	0.731
386.54	0.731
386.75	0.730
386.95	0.726
387.16	0.722
387.37	0.724
387.58	0.724
387.78	0.723
387.99	0.720
388.20	0.721
388.40	0.718
388.61	0.713
388.82	0.717
389.02	0.719
389.23	0.719
389.44	0.717
389.64	0.718
389.85	0.729
390.06	0.729
390.26	0.730
390.47	0.730
390.68	0.732
390.88	0.731
391.09	0.727
391.30	0.726
391.50	0.727
391.71	0.727
391.92	0.724
392.12	0.716
392.33	0.717
392.53	0.717
392.74	0.717
392.95	0.716
393.15	0.718
393.36	0.720
393.57	0.718
393.77	0.721
393.98	0.722
394.19	0.722
394.39	0.721
394.60	0.722
394.81	0.724
395.01	0.721
395.22	0.720
395.43	0.722
395.63	0.726
395.84	0.727
396.04	0.724
396.25	0.726
396.46	0.728
396.66	0.727
396.87	0.725
397.08	0.721
397.28	0.724
397.49	0.725
397.69	0.722
397.90	0.717
398.11	0.718
398.31	0.719
398.52	0.716
398.73	0.718
398.93	0.717
399.14	0.716
399.34	0.716
399.55	0.717
399.76	0.717
399.96	0.717
400.17	0.716
400.37	0.714
400.58	0.720
400.79	0.722
400.99	0.719
401.20	0.724
401.41	0.727
401.61	0.728
401.82	0.733
402.02	0.733
402.23	0.734
402.44	0.734
402.64	0.735
402.85	0.729
403.05	0.728
403.26	0.727
403.47	0.721
403.67	0.721
403.88	0.721
404.08	0.716
404.29	0.715
404.50	0.714
404.70	0.714
404.91	0.713
405.11	0.711
405.32	0.711
405.52	0.711
405.73	0.711
405.94	0.709
406.14	0.711
406.35	0.712
406.55	0.712
406.76	0.710
406.97	0.712
407.17	0.715
407.38	0.714
407.58	0.714
407.79	0.716
407.99	0.719
408.20	0.720
408.41	0.716
408.61	0.714
408.82	0.715
409.02	0.715
409.23	0.713
409.43	0.711
409.64	0.712
409.84	0.712
410.05	0.709
410.26	0.707
410.46	0.706
410.67	0.705
410.87	0.707
411.08	0.709
411.28	0.711
411.49	0.712
411.69	0.710
411.90	0.712
412.11	0.713
412.31	0.714
412.52	0.713
412.72	0.714
412.93	0.715
413.13	0.714
413.34	0.710
413.54	0.711
413.75	0.713
413.95	0.712
414.16	0.708
414.37	0.711
414.57	0.712
414.78	0.714
414.98	0.712
415.19	0.713
415.39	0.710
415.60	0.712
415.80	0.711
416.01	0.710
416.21	0.712
416.42	0.712
416.62	0.707
416.83	0.707
417.03	0.707
417.24	0.707
417.44	0.706
417.65	0.705
417.86	0.706
418.06	0.704
418.27	0.702
418.47	0.704
418.68	0.704
418.88	0.704
419.09	0.702
419.29	0.703
419.50	0.702
419.70	0.701
419.91	0.700
420.11	0.698
420.32	0.700
420.52	0.700
420.73	0.698
420.93	0.699
421.14	0.701
421.34	0.700
421.55	0.697
421.75	0.697
421.96	0.698
422.16	0.698
422.37	0.698
422.57	0.695
422.78	0.696
422.98	0.693
423.19	0.691
423.39	0.689
423.60	0.693
423.80	0.694
424.01	0.693
424.21	0.695
424.42	0.695
424.62	0.695
424.83	0.694
425.03	0.694
425.23	0.696
425.44	0.696
425.64	0.696
425.85	0.695
426.05	0.695
426.26	0.696
426.46	0.693
426.67	0.692
426.87	0.697
427.08	0.698
427.28	0.696
427.49	0.696
427.69	0.697
427.90	0.696
428.10	0.693
428.31	0.693
428.51	0.695
428.71	0.694
428.92	0.695
429.12	0.692
429.33	0.693
429.53	0.698
429.74	0.702
429.94	0.702
430.15	0.701
430.35	0.701
430.56	0.698
430.76	0.696
430.96	0.697
431.17	0.694
431.37	0.690
431.58	0.688
431.78	0.684
431.99	0.677
432.19	0.680
432.40	0.681
432.60	0.682
432.80	0.685
433.01	0.684
433.21	0.684
433.42	0.686
433.62	0.686
433.83	0.686
434.03	0.689
434.23	0.692
434.44	0.690
434.64	0.688
434.85	0.693
435.05	0.694
435.26	0.694
435.46	0.693
435.66	0.693
435.87	0.693
436.07	0.693
436.28	0.689
436.48	0.685
436.69	0.685
436.89	0.685
437.09	0.679
437.30	0.678
437.50	0.677
437.71	0.689
437.91	0.688
438.11	0.689
438.32	0.692
438.52	0.692
438.73	0.692
438.93	0.690
439.13	0.689
439.34	0.693
439.54	0.690
439.75	0.691
439.95	0.681
440.15	0.685
440.36	0.684
440.56	0.681
440.77	0.682
440.97	0.683
441.17	0.682
441.38	0.683
441.58	0.680
441.79	0.680
441.99	0.678
442.19	0.677
442.40	0.674
442.60	0.674
442.81	0.671
443.01	0.672
443.21	0.672
443.42	0.672
443.62	0.671
443.82	0.670
444.03	0.671
444.23	0.672
444.44	0.672
444.64	0.671
444.84	0.672
445.05	0.672
445.25	0.670
445.45	0.670
445.66	0.672
445.86	0.671
446.06	0.672
446.27	0.671
446.47	0.673
446.68	0.671
446.88	0.670
447.08	0.669
447.29	0.671
447.49	0.671
447.69	0.670
447.90	0.669
448.10	0.672
448.30	0.670
448.51	0.671
448.71	0.669
448.91	0.671
449.12	0.670
449.32	0.671
449.52	0.670
449.73	0.673
449.93	0.673
450.14	0.674
450.34	0.673
450.54	0.675
450.75	0.673
450.95	0.672
451.15	0.671
451.36	0.674
451.56	0.672
451.76	0.671
451.97	0.668
452.17	0.668
452.37	0.666
452.58	0.662
452.78	0.662
452.98	0.664
453.19	0.663
453.39	0.664
453.59	0.663
453.79	0.663
454.00	0.664
454.20	0.663
454.40	0.664
454.61	0.666
454.81	0.667
455.01	0.665
455.22	0.666
455.42	0.667
455.62	0.665
455.83	0.664
456.03	0.667
456.23	0.668
456.44	0.669
456.64	0.667
456.84	0.667
457.04	0.667
457.25	0.666
457.45	0.664
457.65	0.663
457.86	0.664
458.06	0.663
458.26	0.658
458.47	0.657
458.67	0.658
458.87	0.658
459.07	0.656
459.28	0.658
459.48	0.660
459.68	0.659
459.89	0.659
460.09	0.657
460.29	0.658
460.49	0.660
460.70	0.659
460.90	0.659
461.10	0.660
461.31	0.659
461.51	0.657
461.71	0.659
461.91	0.660
462.12	0.660
462.32	0.658
462.52	0.659
462.72	0.662
462.93	0.662
463.13	0.661
463.33	0.662
463.53	0.663
463.74	0.662
463.94	0.658
464.14	0.659
464.35	0.660
464.55	0.660
464.75	0.658
464.95	0.656
465.16	0.657
465.36	0.656
465.56	0.655
465.76	0.654
465.97	0.655
466.17	0.656
466.37	0.654
466.57	0.655
466.78	0.655
466.98	0.656
467.18	0.654
467.38	0.653
467.59	0.654
467.79	0.656
467.99	0.656
468.19	0.657
468.39	0.659
468.60	0.659
468.80	0.658
469.00	0.659
469.20	0.660
469.41	0.660
469.61	0.660
469.81	0.660
470.01	0.659
470.22	0.659
470.42	0.657
470.62	0.654
470.82	0.655
471.02	0.655
471.23	0.652
471.43	0.653
471.63	0.655
471.83	0.654
472.04	0.653
472.24	0.652
472.44	0.658
472.64	0.658
472.84	0.657
473.05	0.657
473.25	0.660
473.45	0.659
473.65	0.657
473.85	0.658
474.06	0.659
474.26	0.658
474.46	0.660
474.66	0.656
474.86	0.656
475.07	0.656
475.27	0.654
475.47	0.652
475.67	0.652
475.87	0.654
476.08	0.650
476.28	0.651
476.48	0.652
476.68	0.650
476.88	0.649
477.09	0.650
477.29	0.651
477.49	0.651
477.69	0.651
477.89	0.651
478.09	0.650
478.30	0.653
478.50	0.651
478.70	0.650
478.90	0.651
479.10	0.653
479.31	0.654
479.51	0.652
479.71	0.653
479.91	0.653
480.11	0.651
480.31	0.651
480.52	0.650
480.72	0.650
480.92	0.648
481.12	0.647
481.32	0.645
481.52	0.642
481.72	0.642
481.93	0.646
482.13	0.647
482.33	0.647
482.53	0.645
482.73	0.646
482.93	0.648
483.14	0.648
483.34	0.647
483.54	0.648
483.74	0.647
483.94	0.646
484.14	0.642
484.34	0.642
484.55	0.643
484.75	0.643
484.95	0.641
485.15	0.640
485.35	0.640
485.55	0.640
485.75	0.638
485.96	0.638
486.16	0.640
486.36	0.639
486.56	0.638
486.76	0.637
486.96	0.638
487.16	0.637
487.36	0.635
487.57	0.635
487.77	0.636
487.97	0.636
488.17	0.634
488.37	0.633
488.57	0.634
488.77	0.634
488.97	0.632
489.18	0.631
489.38	0.634
489.58	0.634
489.78	0.634
489.98	0.634
490.18	0.633
490.38	0.634
490.58	0.633
490.78	0.634
490.98	0.636
491.19	0.636
491.39	0.636
491.59	0.635
491.79	0.638
491.99	0.638
492.19	0.638
492.39	0.641
492.59	0.641
492.79	0.643
492.99	0.643
493.20	0.643
493.40	0.643
493.60	0.644
493.80	0.643
494.00	0.640
494.20	0.640
494.40	0.640
494.60	0.637
494.80	0.641
495.00	0.641
495.20	0.639
495.40	0.638
495.61	0.640
495.81	0.639
496.01	0.643
496.21	0.644
496.41	0.643
496.61	0.644
496.81	0.643
497.01	0.638
497.21	0.637
497.41	0.637
497.61	0.637
497.81	0.635
498.01	0.635
498.21	0.632
498.41	0.631
498.61	0.630
498.82	0.632
499.02	0.633
499.22	0.634
499.42	0.633
499.62	0.635
499.82	0.635
500.02	0.637
500.22	0.636
500.42	0.638
500.62	0.639
500.82	0.639
501.02	0.637
501.22	0.637
501.42	0.637
501.62	0.639
501.82	0.639
502.02	0.639
502.22	0.638
502.42	0.640
502.62	0.637
502.82	0.637
503.02	0.637
503.22	0.637
503.42	0.635
503.63	0.635
503.83	0.633
504.03	0.631
504.23	0.630
504.43	0.630
504.63	0.631
504.83	0.631
505.03	0.630
505.23	0.632
505.43	0.634
505.63	0.635
505.83	0.635
506.03	0.636
506.23	0.638
506.43	0.639
506.63	0.638
506.83	0.637
507.03	0.638
507.23	0.639
507.43	0.636
507.63	0.637
507.83	0.638
508.03	0.638
508.23	0.637
508.43	0.636
508.63	0.637
508.83	0.637
509.03	0.639
509.23	0.638
509.43	0.639
509.63	0.640
509.83	0.638
510.03	0.640
510.23	0.641
510.43	0.642
510.63	0.643
510.83	0.643
511.03	0.644
511.23	0.642
511.43	0.641
511.63	0.642
511.83	0.644
512.03	0.644
512.22	0.641
512.42	0.641
512.62	0.642
512.82	0.641
513.02	0.640
513.22	0.640
513.42	0.641
513.62	0.644
513.82	0.642
514.02	0.641
514.22	0.643
514.42	0.643
514.62	0.642
514.82	0.642
515.02	0.644
515.22	0.647
515.42	0.647
515.62	0.649
515.82	0.648
516.02	0.649
516.22	0.649
516.42	0.650
516.62	0.653
516.82	0.654
517.01	0.652
517.21	0.651
517.41	0.655
517.61	0.655
517.81	0.652
518.01	0.651
518.21	0.651
518.41	0.649
518.61	0.648
518.81	0.648
519.01	0.649
519.21	0.649
519.41	0.648
519.61	0.643
519.81	0.645
520.00	0.645
520.20	0.645
520.40	0.648
520.60	0.649
520.80	0.649
521.00	0.649
521.20	0.651
521.40	0.655
521.60	0.656
521.80	0.655
522.00	0.655
522.20	0.657
522.39	0.656
522.59	0.654
522.79	0.655
522.99	0.657
523.19	0.655
523.39	0.653
523.59	0.651
523.79	0.654
523.99	0.657
524.19	0.656
524.38	0.655
524.58	0.656
524.78	0.656
524.98	0.654
525.18	0.657
525.38	0.657
525.58	0.658
525.78	0.656
525.98	0.654
526.18	0.654
526.37	0.653
526.57	0.655
526.77	0.655
526.97	0.656
527.17	0.656
527.37	0.653
527.57	0.655
527.77	0.656
527.96	0.657
528.16	0.656
528.36	0.657
528.56	0.659
528.76	0.656
528.96	0.655
529.16	0.657
529.36	0.660
529.55	0.659
529.75	0.657
529.95	0.657
530.15	0.658
530.35	0.661
530.55	0.658
530.75	0.658
530.94	0.660
531.14	0.661
531.34	0.659
531.54	0.656
531.74	0.660
531.94	0.663
532.13	0.661
532.33	0.663
532.53	0.662
532.73	0.662
532.93	0.660
533.13	0.661
533.33	0.661
533.52	0.661
533.72	0.664
533.92	0.661
534.12	0.659
534.32	0.659
534.52	0.658
534.71	0.659
534.91	0.661
535.11	0.662
535.31	0.661
535.51	0.663
535.71	0.665
535.90	0.662
536.10	0.664
536.30	0.666
536.50	0.667
536.70	0.667
536.89	0.665
537.09	0.665
537.29	0.667
537.49	0.668
537.69	0.666
537.89	0.666
538.08	0.666
538.28	0.664
538.48	0.665
538.68	0.666
538.88	0.668
539.07	0.668
539.27	0.666
539.47	0.665
539.67	0.665
539.87	0.666
540.06	0.664
540.26	0.665
540.46	0.667
540.66	0.664
540.86	0.661
541.05	0.661
541.25	0.663
541.45	0.663
541.65	0.662
541.84	0.664
542.04	0.665
542.24	0.666
542.44	0.665
542.64	0.666
542.83	0.669
543.03	0.669
543.23	0.667
543.43	0.668
543.62	0.669
543.82	0.669
544.02	0.668
544.22	0.668
544.42	0.671
544.61	0.671
544.81	0.668
545.01	0.666
545.21	0.668
545.40	0.669
545.60	0.667
545.80	0.670
546.00	0.670
546.19	0.669
546.39	0.668
546.59	0.665
546.79	0.666
546.98	0.667
547.18	0.666
547.38	0.667
547.58	0.669
547.77	0.669
547.97	0.666
548.17	0.667
548.37	0.668
548.56	0.668
548.76	0.668
548.96	0.670
549.16	0.672
549.35	0.672
549.55	0.669
549.75	0.670
549.95	0.674
550.14	0.674
550.34	0.672
550.54	0.677
550.73	0.681
550.93	0.681
551.13	0.678
551.33	0.677
551.52	0.678
551.72	0.679
551.92	0.677
552.12	0.678
552.31	0.678
552.51	0.678
552.71	0.673
552.90	0.674
553.10	0.674
553.30	0.675
553.50	0.673
553.69	0.675
553.89	0.675
554.09	0.676
554.28	0.672
554.48	0.674
554.68	0.676
554.87	0.676
555.07	0.672
555.27	0.672
555.47	0.673
555.66	0.674
555.86	0.673
556.06	0.674
556.25	0.675
556.45	0.682
556.65	0.681
556.84	0.684
557.04	0.687
557.24	0.689
557.43	0.689
557.63	0.692
557.83	0.694
558.02	0.695
558.22	0.699
558.42	0.700
558.61	0.693
558.81	0.693
559.01	0.689
559.21	0.689
559.40	0.690
559.60	0.690
559.80	0.686
559.99	0.687
560.19	0.690
560.39	0.684
560.58	0.682
560.78	0.682
560.97	0.685
561.17	0.684
561.37	0.681
561.56	0.682
561.76	0.683
561.96	0.683
562.15	0.680
562.35	0.681
562.55	0.683
562.74	0.682
562.94	0.681
563.14	0.679
563.33	0.680
563.53	0.680
563.73	0.677
563.92	0.679
564.12	0.682
564.31	0.684
564.51	0.683
564.71	0.685
564.90	0.687
565.10	0.688
565.30	0.692
565.49	0.692
565.69	0.694
565.89	0.695
566.08	0.692
566.28	0.694
566.47	0.696
566.67	0.693
566.87	0.691
567.06	0.693
567.26	0.698
567.46	0.694
567.65	0.694
567.85	0.696
568.04	0.699
568.24	0.698
568.44	0.695
568.63	0.693
568.83	0.695
569.02	0.693
569.22	0.689
569.42	0.685
569.61	0.687
569.81	0.685
570.00	0.683
570.20	0.685
570.40	0.685
570.59	0.685
570.79	0.683
570.98	0.681
571.18	0.683
571.38	0.683
571.57	0.680
571.77	0.678
571.96	0.681
572.16	0.678
572.35	0.673
572.55	0.675
572.75	0.672
572.94	0.672
573.14	0.671
573.33	0.671
573.53	0.672
573.73	0.671
573.92	0.670
574.12	0.668
574.31	0.671
574.51	0.672
574.70	0.669
574.90	0.671
575.09	0.673
575.29	0.673
575.49	0.670
575.68	0.672
575.88	0.672
576.07	0.674
576.27	0.672
576.46	0.670
576.66	0.669
576.86	0.669
577.05	0.666
577.25	0.665
577.44	0.666
577.64	0.666
577.83	0.664
578.03	0.666
578.22	0.666
578.42	0.665
578.61	0.663
578.81	0.664
579.00	0.664
579.20	0.664
579.40	0.662
579.59	0.661
579.79	0.661
579.98	0.660
580.18	0.659
580.37	0.659
580.57	0.662
580.76	0.666
580.96	0.665
581.15	0.666
581.35	0.667
581.54	0.667
581.74	0.667
581.93	0.669
582.13	0.669
582.32	0.666
582.52	0.664
582.71	0.664
582.91	0.659
583.10	0.659
583.30	0.658
583.49	0.657
583.69	0.661
583.88	0.662
584.08	0.661
584.27	0.664
584.47	0.667
584.66	0.668
584.86	0.667
585.05	0.670
585.25	0.672
585.44	0.672
585.64	0.671
585.83	0.667
586.03	0.666
586.22	0.664
586.42	0.660
586.61	0.661
586.81	0.663
587.00	0.663
587.20	0.659
587.39	0.660
587.59	0.661
587.78	0.662
587.98	0.663
588.17	0.664
588.37	0.667
588.56	0.669
588.76	0.665
588.95	0.665
589.15	0.668
589.34	0.671
589.54	0.670
589.73	0.671
589.92	0.674
590.12	0.675
590.31	0.673
590.51	0.678
590.70	0.679
590.90	0.680
591.09	0.679
591.29	0.677
591.48	0.677
591.68	0.678
591.87	0.677
592.06	0.676
592.26	0.678
592.45	0.678
592.65	0.671
592.84	0.671
593.04	0.673
593.23	0.675
593.43	0.672
593.62	0.672
593.81	0.672
594.01	0.671
594.20	0.668
594.40	0.667
594.59	0.669
594.79	0.670
594.98	0.669
595.17	0.668
595.37	0.668
595.56	0.670
595.76	0.670
595.95	0.672
596.14	0.675
596.34	0.676
596.53	0.676
596.73	0.678
596.92	0.679
597.12	0.682
597.31	0.682
597.50	0.681
597.70	0.683
597.89	0.683
598.09	0.679
598.28	0.680
598.47	0.682
598.67	0.681
598.86	0.677
599.06	0.678
599.25	0.678
599.44	0.677
599.64	0.675
599.83	0.672
600.03	0.675
600.22	0.675
600.41	0.675
600.61	0.673
600.80	0.675
601.00	0.676
601.19	0.672
601.38	0.670
601.58	0.672
601.77	0.673
601.96	0.676
602.16	0.676
602.35	0.684
602.55	0.682
602.74	0.683
602.93	0.684
603.13	0.689
603.32	0.691
603.51	0.691
603.71	0.695
603.90	0.696
604.09	0.697
604.29	0.694
604.48	0.689
604.68	0.690
604.87	0.689
605.06	0.685
605.26	0.682
605.45	0.682
605.64	0.681
605.84	0.676
606.03	0.676
606.22	0.674
606.42	0.673
606.61	0.670
606.80	0.670
607.00	0.671
607.19	0.672
607.38	0.671
607.58	0.672
607.77	0.674
607.96	0.674
608.16	0.672
608.35	0.677
608.54	0.680
608.74	0.683
608.93	0.687
609.12	0.690
609.32	0.692
609.51	0.695
609.70	0.694
609.90	0.696
610.09	0.701
610.28	0.706
610.48	0.700
610.67	0.702
610.86	0.703
611.06	0.697
611.25	0.695
611.44	0.696
611.64	0.697
611.83	0.699
612.02	0.696
612.21	0.695
612.41	0.694
612.60	0.693
612.79	0.689
612.99	0.689
613.18	0.691
613.37	0.688
613.57	0.686
613.76	0.687
613.95	0.685
614.14	0.684
614.34	0.681
614.53	0.682
614.72	0.684
614.92	0.684
615.11	0.682
615.30	0.679
615.49	0.680
615.69	0.682
615.88	0.678
616.07	0.680
616.26	0.681
616.46	0.682
616.65	0.679
616.84	0.678
617.04	0.679
617.23	0.682
617.42	0.682
617.61	0.685
617.81	0.686
618.00	0.688
618.19	0.687
618.38	0.691
618.58	0.695
618.77	0.695
618.96	0.695
619.15	0.697
619.35	0.699
619.54	0.700
619.73	0.696
619.92	0.698
620.12	0.701
620.31	0.702
620.50	0.697
620.69	0.697
620.89	0.699
621.08	0.700
621.27	0.700
621.46	0.699
621.66	0.702
621.85	0.701
622.04	0.699
622.23	0.700
622.43	0.700
622.62	0.699
622.81	0.698
623.00	0.698
623.19	0.701
623.39	0.700
623.58	0.698
623.77	0.697
623.96	0.699
624.16	0.699
624.35	0.694
624.54	0.697
624.73	0.700
624.92	0.698
625.12	0.696
625.31	0.697
625.50	0.700
625.69	0.701
625.88	0.697
626.08	0.698
626.27	0.699
626.46	0.699
626.65	0.696
626.84	0.697
627.04	0.702
627.23	0.702
627.42	0.698
627.61	0.699
627.80	0.701
628.00	0.701
628.19	0.700
628.38	0.702
628.57	0.704
628.76	0.704
628.96	0.700
629.15	0.702
629.34	0.704
629.53	0.704
629.72	0.698
629.91	0.700
630.11	0.705
630.30	0.706
630.49	0.708
630.68	0.709
630.87	0.712
631.06	0.714
631.26	0.709
631.45	0.711
631.64	0.718
631.83	0.721
632.02	0.718
632.21	0.716
632.41	0.722
632.60	0.717
632.79	0.715
632.98	0.716
633.17	0.717
633.36	0.718
633.55	0.715
633.75	0.711
633.94	0.713
634.13	0.712
634.32	0.710
634.51	0.704
634.70	0.706
634.89	0.706
635.09	0.703
635.28	0.704
635.47	0.705
635.66	0.707
635.85	0.703
636.04	0.704
636.23	0.708
636.43	0.710
636.62	0.709
636.81	0.708
637.00	0.710
637.19	0.714
637.38	0.710
637.57	0.709
637.76	0.711
637.95	0.712
638.15	0.710
638.34	0.707
638.53	0.710
638.72	0.712
638.91	0.709
639.10	0.707
639.29	0.706
639.48	0.707
639.67	0.708
639.87	0.706
640.06	0.710
640.25	0.709
640.44	0.711
640.63	0.712
640.82	0.713
641.01	0.712
641.20	0.712
641.39	0.715
641.58	0.716
641.78	0.715
641.97	0.711
642.16	0.726
642.35	0.727
642.54	0.726
642.73	0.720
642.92	0.720
643.11	0.724
643.30	0.723
643.49	0.718
643.68	0.721
643.87	0.722
644.06	0.723
644.25	0.703
644.45	0.705
644.64	0.705
644.83	0.705
645.02	0.702
645.21	0.701
645.40	0.703
645.59	0.703
645.78	0.698
645.97	0.701
646.16	0.702
646.35	0.700
646.54	0.698
646.73	0.700
646.92	0.702
647.11	0.701
647.30	0.698
647.49	0.699
647.68	0.699
647.88	0.697
648.07	0.690
648.26	0.693
648.45	0.696
648.64	0.693
648.83	0.689
649.02	0.692
649.21	0.702
649.40	0.700
649.59	0.696
649.78	0.697
649.97	0.710
650.16	0.709
650.35	0.704
650.54	0.705
650.73	0.713
650.92	0.710
651.11	0.704
651.30	0.701
651.49	0.705
651.68	0.705
651.87	0.703
652.06	0.692
652.25	0.696
652.44	0.700
652.63	0.700
652.82	0.700
653.01	0.702
653.20	0.700
653.39	0.690
653.58	0.688
653.77	0.687
653.96	0.682
654.15	0.675
654.34	0.672
654.53	0.668
654.72	0.661
654.91	0.652
655.10	0.647
655.29	0.645
655.48	0.643
655.67	0.637
655.86	0.635
656.05	0.633
656.24	0.633
656.43	0.628
656.62	0.626
656.81	0.626
657.00	0.622
657.19	0.619
657.38	0.618
657.57	0.616
657.76	0.618
657.95	0.616
658.14	0.619
658.33	0.621
658.51	0.625
658.70	0.625
658.89	0.627
659.08	0.636
659.27	0.645
659.46	0.646
659.65	0.653
659.84	0.656
660.03	0.660
660.22	0.661
660.41	0.664
660.60	0.664
660.79	0.666
660.98	0.672
661.17	0.671
661.36	0.669
661.55	0.670
661.74	0.668
661.92	0.672
662.11	0.674
662.30	0.673
662.49	0.668
662.68	0.667
662.87	0.669
663.06	0.664
663.25	0.665
663.44	0.665
663.63	0.665
663.82	0.663
664.01	0.658
664.20	0.656
664.38	0.658
664.57	0.658
664.76	0.658
664.95	0.658
665.14	0.662
665.33	0.657
665.52	0.664
665.71	0.668
665.90	0.668
666.09	0.669
666.28	0.667
666.46	0.664
666.65	0.665
666.84	0.663
667.03	0.658
667.22	0.655
667.41	0.659
667.60	0.649
667.79	0.642
667.98	0.644
668.16	0.645
668.35	0.645
668.54	0.643
668.73	0.642
668.92	0.643
669.11	0.643
669.30	0.638
669.49	0.634
669.67	0.637
669.86	0.639
670.05	0.636
670.24	0.634
670.43	0.632
670.62	0.631
670.81	0.627
671.00	0.628
671.18	0.628
671.37	0.627
671.56	0.625
671.75	0.623
671.94	0.620
672.13	0.618
672.32	0.614
672.50	0.612
672.69	0.612
672.88	0.612
673.07	0.608
673.26	0.610
673.45	0.611
673.63	0.610
673.82	0.607
674.01	0.609
674.20	0.608
674.39	0.608
674.58	0.608
674.76	0.608
674.95	0.607
675.14	0.606
675.33	0.603
675.52	0.602
675.71	0.602
675.89	0.601
676.08	0.598
676.27	0.598
676.46	0.598
676.65	0.598
676.84	0.597
677.02	0.599
677.21	0.600
677.40	0.600
677.59	0.598
677.78	0.598
677.96	0.601
678.15	0.601
678.34	0.599
678.53	0.600
678.72	0.599
678.90	0.597
679.09	0.592
679.28	0.589
679.47	0.589
679.66	0.587
679.84	0.584
680.03	0.581
680.22	0.580
680.41	0.581
680.60	0.578
680.78	0.577
680.97	0.579
681.16	0.579
681.35	0.578
681.53	0.577
681.72	0.578
681.91	0.580
682.10	0.579
682.29	0.581
682.47	0.578
682.66	0.577
682.85	0.575
683.04	0.573
683.22	0.573
683.41	0.575
683.60	0.573
683.79	0.574
683.97	0.573
684.16	0.572
684.35	0.569
684.54	0.570
684.72	0.572
684.91	0.573
685.10	0.571
685.29	0.572
685.47	0.569
685.66	0.569
685.85	0.566
686.04	0.565
686.22	0.567
686.41	0.570
686.60	0.566
686.79	0.569
686.97	0.570
687.16	0.571
687.35	0.569
687.54	0.573
687.72	0.576
687.91	0.576
688.10	0.577
688.29	0.577
688.47	0.575
688.66	0.575
688.85	0.571
689.03	0.569
689.22	0.574
689.41	0.574
689.60	0.569
689.78	0.567
689.97	0.567
690.16	0.565
690.34	0.561
690.53	0.561
690.72	0.561
690.91	0.559
691.09	0.558
691.28	0.552
691.47	0.549
691.65	0.548
691.84	0.545
692.03	0.544
692.21	0.542
692.40	0.542
692.59	0.539
692.77	0.537
692.96	0.538
693.15	0.538
693.34	0.536
693.52	0.537
693.71	0.538
693.90	0.539
694.08	0.540
694.27	0.540
694.46	0.550
694.64	0.551
694.83	0.551
695.02	0.551
695.20	0.550
695.39	0.550
695.58	0.549
695.76	0.549
695.95	0.548
696.14	0.548
696.32	0.546
696.51	0.536
696.70	0.536
696.88	0.537
697.07	0.535
697.26	0.536
697.44	0.538
697.63	0.537
697.81	0.535
698.00	0.535
698.19	0.535
698.37	0.535
698.56	0.535
698.75	0.535
698.93	0.534
699.12	0.534
699.31	0.533
699.49	0.532
699.68	0.533
699.87	0.536
700.05	0.536
700.24	0.535
700.42	0.536
700.61	0.535
700.80	0.534
700.98	0.534
701.17	0.535
701.36	0.534
701.54	0.533
701.73	0.534
701.91	0.532
702.10	0.531
702.29	0.529
702.47	0.528
702.66	0.529
702.84	0.530
703.03	0.529
703.22	0.530
703.40	0.530
703.59	0.531
703.77	0.531
703.96	0.530
704.15	0.531
704.33	0.531
704.52	0.530
704.70	0.530
704.89	0.529
705.08	0.528
705.26	0.525
705.45	0.525
705.63	0.524
705.82	0.521
706.00	0.520
706.19	0.520
706.38	0.520
706.56	0.519
706.75	0.517
706.93	0.516
707.12	0.517
707.30	0.517
707.49	0.515
707.68	0.513
707.86	0.512
708.05	0.512
708.23	0.509
708.42	0.508
708.60	0.510
708.79	0.510
708.98	0.509
709.16	0.508
709.35	0.510
709.53	0.514
709.72	0.513
709.90	0.515
710.09	0.517
710.27	0.520
710.46	0.524
710.64	0.523
710.83	0.525
711.02	0.526
711.20	0.526
711.39	0.524
711.57	0.521
711.76	0.522
711.94	0.521
712.13	0.521
712.31	0.521
712.50	0.516
712.68	0.514
712.87	0.515
713.05	0.515
713.24	0.516
713.42	0.515
713.61	0.515
713.79	0.516
713.98	0.516
714.16	0.517
714.35	0.517
714.54	0.518
714.72	0.517
714.91	0.515
715.09	0.521
715.28	0.523
715.46	0.523
715.65	0.521
715.83	0.520
716.02	0.522
716.20	0.518
716.39	0.518
716.57	0.519
716.76	0.521
716.94	0.521
717.12	0.514
717.31	0.516
717.49	0.519
717.68	0.521
717.86	0.520
718.05	0.522
718.23	0.523
718.42	0.525
718.60	0.526
718.79	0.534
718.97	0.536
719.16	0.537
719.34	0.534
719.53	0.534
719.71	0.533
719.90	0.535
720.08	0.532
720.27	0.532
720.45	0.533
720.63	0.532
720.82	0.526
721.00	0.529
721.19	0.532
721.37	0.532
721.56	0.531
721.74	0.534
721.93	0.542
722.11	0.548
722.30	0.548
722.48	0.552
722.66	0.553
722.85	0.552
723.03	0.551
723.22	0.550
723.40	0.552
723.59	0.552
723.77	0.556
723.95	0.549
724.14	0.551
724.32	0.552
724.51	0.551
724.69	0.553
724.88	0.554
725.06	0.553
725.24	0.553
725.43	0.555
725.61	0.558
725.80	0.553
725.98	0.552
726.16	0.549
726.35	0.556
726.53	0.554
726.72	0.553
726.90	0.562
727.09	0.563
727.27	0.568
727.45	0.565
727.64	0.574
727.82	0.582
728.01	0.585
728.19	0.584
728.37	0.589
728.56	0.593
728.74	0.599
728.92	0.588
729.11	0.591
729.29	0.589
729.48	0.591
729.66	0.581
729.84	0.581
730.03	0.583
730.21	0.586
730.40	0.578
730.58	0.579
730.76	0.579
730.95	0.581
731.13	0.582
731.31	0.595
731.50	0.604
731.68	0.606
731.86	0.604
732.05	0.618
732.23	0.620
732.42	0.622
732.60	0.625
732.78	0.629
732.97	0.645
733.15	0.651
733.33	0.640
733.52	0.646
733.70	0.656
733.88	0.665
734.07	0.652
734.25	0.675
734.43	0.683
734.62	0.685
734.80	0.679
734.98	0.672
735.17	0.678
735.35	0.685
735.53	0.675
735.72	0.677
735.90	0.694
736.08	0.711
736.27	0.692
736.45	0.700
736.63	0.711
736.82	0.723
737.00	0.724
737.18	0.731
737.37	0.758
737.55	0.779
737.73	0.775
737.92	0.781
738.10	0.775
738.28	0.793
738.46	0.784
738.65	0.794
738.83	0.808
739.01	0.855
739.20	0.849
739.38	0.832
739.56	0.823
739.75	0.829
739.93	0.799
740.11	0.828
740.29	0.822
740.48	0.828
740.66	0.810
740.84	0.807
741.03	0.772
741.21	0.784
741.39	0.769
741.57	0.780
741.76	0.793
741.94	0.798
742.12	0.761
742.31	0.765
742.49	0.781
742.67	0.803
742.85	0.814
743.04	0.817
743.22	0.826
743.40	0.876
743.58	0.862
743.77	0.875
743.95	0.900
744.13	0.945
744.31	0.934
744.50	0.927
744.68	0.924
744.86	0.909
745.04	0.921
745.23	0.975
745.41	0.952
745.59	0.955
745.77	0.923
745.96	0.919
746.14	0.926
746.32	0.924
746.50	0.915
746.69	0.900
746.87	0.903
747.05	0.893
747.23	0.829
747.42	0.818
747.60	0.840
747.78	0.847
747.96	0.873
748.14	0.832
748.33	0.855
748.51	0.851
748.69	0.846
748.87	0.870
749.06	0.865
749.24	0.865
749.42	0.851
749.60	0.838
749.78	0.846
749.97	0.803
750.15	0.798
750.33	0.801
750.51	0.822
750.69	0.830
750.88	0.835
751.06	0.842
751.24	0.863
751.42	0.858
751.60	0.852
751.79	0.914
751.97	0.949
752.15	0.949
752.33	0.923
752.51	0.980
752.69	0.987
752.88	0.960
753.06	0.999
753.24	0.978
753.42	1.005
753.60	1.142
753.78	1.023
753.97	1.050
754.15	1.064
754.33	1.088
754.51	0.988
754.69	0.976
754.87	1.002
755.06	0.942
755.24	0.945
755.42	0.949
755.60	0.860
755.78	0.869
755.96	0.818
756.15	0.816
756.33	0.818
756.51	0.833
756.69	0.820
756.87	0.788
757.05	0.803
757.23	0.788
757.42	0.762
757.60	0.762
757.78	0.753
757.96	0.753
758.14	0.741
758.32	0.728
758.50	0.737
758.69	0.735
758.87	0.727
759.05	0.730
759.23	0.738
759.41	0.739
759.59	0.730
759.77	0.748
759.95	0.772
760.13	0.818
760.32	0.815
760.50	0.811
760.68	0.834
760.86	0.837
761.04	0.817
761.22	0.822
761.40	0.866
761.58	0.869
761.76	0.848
761.95	0.826
762.13	0.784
762.31	0.786
762.49	0.762
762.67	0.777
762.85	0.787
763.03	0.780
763.21	0.764
763.39	0.744
763.57	0.745
763.75	0.738
763.94	0.728
764.12	0.729
764.30	0.747
764.48	0.751
764.66	0.720
764.84	0.717
765.02	0.751
765.20	0.760
765.38	0.744
765.56	0.750
765.74	0.784
765.92	0.784
766.10	0.788
766.28	0.783
766.46	0.803
766.65	0.804
766.83	0.793
767.01	0.780
767.19	0.783
767.37	0.783
767.55	0.772
767.73	0.757
767.91	0.760
768.09	0.753
768.27	0.747
768.45	0.740
768.63	0.742
768.81	0.745
768.99	0.721
769.17	0.739
769.35	0.747
769.53	0.745
769.71	0.726
769.89	0.733
770.07	0.736
770.25	0.719
770.43	0.698
770.61	0.718
770.79	0.722
770.97	0.728
771.15	0.704
771.33	0.708
771.51	0.708
771.69	0.717
771.87	0.724
772.05	0.729
772.24	0.734
772.42	0.743
772.60	0.726
772.78	0.777
772.96	0.803
773.14	0.798
773.32	0.780
773.49	0.789
773.67	0.790
773.85	0.771
774.03	0.761
774.21	0.788
774.39	0.798
774.57	0.819
774.75	0.758
774.93	0.754
775.11	0.773
775.29	0.779
775.47	0.781
775.65	0.786
775.83	0.801
776.01	0.824
776.19	0.784
776.37	0.783
776.55	0.778
776.73	0.776
776.91	0.771
777.09	0.757
777.27	0.753
777.45	0.743
777.63	0.726
777.81	0.723
777.99	0.712
778.17	0.710
778.35	0.692
778.53	0.682
778.71	0.686
778.89	0.673
779.07	0.665
779.24	0.671
779.42	0.671
779.60	0.687
779.78	0.685
779.96	0.686
780.14	0.694
780.32	0.712
780.50	0.697
780.68	0.697
780.86	0.691
781.04	0.707
781.22	0.709
781.40	0.717
781.58	0.708
781.75	0.701
781.93	0.687
782.11	0.685
782.29	0.673
782.47	0.672
782.65	0.662
782.83	0.686
783.01	0.678
783.19	0.674
783.37	0.661
783.55	0.666
783.72	0.682
783.90	0.691
784.08	0.687
784.26	0.699
784.44	0.720
784.62	0.723
784.80	0.696
784.98	0.702
785.16	0.708
785.33	0.722
785.51	0.709
785.69	0.694
785.87	0.692
786.05	0.702
786.23	0.696
786.41	0.692
786.59	0.699
786.77	0.698
786.94	0.686
787.12	0.686
787.30	0.687
787.48	0.684
787.66	0.676
787.84	0.677
788.02	0.668
788.19	0.668
788.37	0.658
788.55	0.658
788.73	0.659
788.91	0.655
789.09	0.642
789.27	0.632
789.44	0.642
789.62	0.648
789.80	0.655
789.98	0.678
790.16	0.663
790.34	0.659
790.51	0.647
790.69	0.663
790.87	0.667
791.05	0.665
791.23	0.660
791.41	0.660
791.58	0.667
791.76	0.648
791.94	0.621
792.12	0.628
792.30	0.631
792.48	0.629
792.65	0.623
792.83	0.628
793.01	0.634
793.19	0.633
793.37	0.621
793.54	0.618
793.72	0.628
793.90	0.626
794.08	0.619
794.26	0.619
794.43	0.626
794.61	0.613
794.79	0.603
794.97	0.602
795.15	0.605
795.32	0.608
795.50	0.596
795.68	0.592
795.86	0.597
796.04	0.598
796.21	0.592
796.39	0.590
796.57	0.600
796.75	0.609
796.92	0.609
797.10	0.614
797.28	0.615
797.46	0.619
797.64	0.621
797.81	0.627
797.99	0.630
798.17	0.634
798.35	0.631
798.52	0.634
798.70	0.629
798.88	0.638
799.06	0.637
799.23	0.640
799.41	0.648
799.59	0.643
799.77	0.634
799.94	0.642
800.12	0.650
800.30	0.666
800.48	0.667
800.65	0.667
800.83	0.655
801.01	0.648
801.19	0.650
801.36	0.645
801.54	0.646
801.72	0.654
801.90	0.641
802.07	0.636
802.25	0.621
802.43	0.606
802.60	0.603
802.78	0.610
802.96	0.613
803.14	0.607
803.31	0.606
803.49	0.607
803.67	0.603
803.84	0.609
804.02	0.603
804.20	0.606
804.38	0.610
804.55	0.611
804.73	0.599
804.91	0.599
805.08	0.611
805.26	0.607
805.44	0.669
805.61	0.672
805.79	0.670
805.97	0.669
806.15	0.663
806.32	0.658
806.50	0.663
806.68	0.663
806.85	0.657
807.03	0.648
807.21	0.661
807.38	0.597
807.56	0.589
807.74	0.598
807.91	0.604
808.09	0.606
808.27	0.624
808.44	0.646
808.62	0.653
808.80	0.654
808.97	0.650
809.15	0.646
809.33	0.661
809.50	0.667
809.68	0.653
809.86	0.660
810.03	0.687
810.21	0.667
810.39	0.652
810.56	0.660
810.74	0.680
810.91	0.747
811.09	0.736
811.27	0.753
811.44	0.759
811.62	0.761
811.80	0.747
811.97	0.720
812.15	0.721
812.33	0.715
812.50	0.702
812.68	0.693
812.85	0.640
813.03	0.644
813.21	0.617
813.38	0.611
813.56	0.614
813.74	0.623
813.91	0.630
814.09	0.658
814.26	0.651
814.44	0.651
814.62	0.641
814.79	0.644
814.97	0.647
815.14	0.648
815.32	0.650
815.50	0.663
815.67	0.665
815.85	0.657
816.02	0.647
816.20	0.657
816.38	0.672
816.55	0.677
816.73	0.677
816.90	0.685
817.08	0.713
817.26	0.720
817.43	0.705
817.61	0.726
817.78	0.746
817.96	0.726
818.13	0.716
818.31	0.714
818.49	0.724
818.66	0.716
818.84	0.706
819.01	0.686
819.19	0.691
819.36	0.694
819.54	0.671
819.71	0.708
819.89	0.717
820.07	0.728
820.24	0.725
820.42	0.728
820.59	0.743
820.77	0.765
820.94	0.756
821.12	0.771
821.29	0.780
821.47	0.780
821.64	0.724
821.82	0.732
822.00	0.730
822.17	0.727
822.35	0.720
822.52	0.724
822.70	0.712
822.87	0.720
823.05	0.705
823.22	0.716
823.40	0.737
823.57	0.755
823.75	0.746
823.92	0.769
824.10	0.784
824.27	0.817
824.45	0.807
824.62	0.861
824.80	0.878
824.97	0.892
825.15	0.885
825.32	0.899
825.50	0.902
825.67	0.912
825.85	0.894
826.02	0.912
826.20	0.933
826.37	1.042
826.55	0.968
826.72	1.135
826.90	1.190
827.07	1.225
827.25	1.179
827.42	1.309
827.60	1.407
827.77	1.529
827.95	1.494
828.12	1.587
828.30	1.312
828.47	1.430
828.65	1.142
828.82	1.179
829.00	1.212
829.17	1.270
829.34	1.263
829.52	1.282
829.69	-0.000
829.87	-0.000
830.04	-0.000
830.22	-0.000
830.39	-0.000
830.57	-0.000
830.74	-0.000
830.92	-0.000
831.09	-0.000
831.26	-0.000
831.44	-0.000
831.61	-0.000
831.79	-0.000
831.96	-0.000
832.14	-0.000
832.31	-0.000
832.49	-0.000
832.66	-0.000
832.83	-0.000
833.01	-0.000
833.18	-0.000
833.36	-0.000
833.53	-0.000
833.70	-0.000
833.88	-0.000
834.05	-0.000
834.23	-0.000
834.40	-0.000
834.58	-0.000
834.75	-0.000
834.92	-0.000
835.10	-0.000
835.27	-0.000
835.45	-0.000
835.62	-0.000
835.79	-0.000
835.97	-0.000
836.14	-0.000
836.32	-0.000
836.49	-0.000
836.66	-0.000
836.84	-0.000
837.01	-0.000
837.18	-0.000
837.36	-0.000
837.53	-0.000
837.71	-0.000
837.88	-0.000
838.05	-0.000
838.23	-0.000
838.40	-0.000
838.58	-0.000
838.75	-0.000
838.92	-0.000
839.10	-0.000
839.27	-0.000
839.44	-0.000
839.62	-0.000
839.79	-0.000
839.96	-0.000
840.14	-0.000
840.31	-0.000
840.48	-0.000
840.66	-0.000
840.83	-0.000
841.01	-0.000
841.18	-0.000
841.35	-0.000
841.53	-0.000
841.70	-0.000
841.87	-0.000
842.05	-0.000
842.22	-0.000
842.39	-0.000
842.57	-0.000
842.74	-0.000
842.91	-0.000
843.09	-0.000
843.26	-0.000
843.43	-0.000
843.60	-0.000
843.78	-0.000
843.95	-0.000
844.12	-0.000
844.30	-0.000
844.47	-0.000
844.64	-0.000
844.82	-0.000
844.99	-0.000
845.16	-0.000
845.34	-0.000
845.51	-0.000
845.68	-0.000
845.85	-0.000
846.03	-0.000
846.20	-0.000
846.37	-0.000
846.55	-0.000
846.72	-0.000
846.89	-0.000
847.06	-0.000
847.24	-0.000
847.41	-0.000
847.58	-0.000
847.76	-0.000
847.93	-0.000
848.10	-0.000
848.27	-0.000
848.45	-0.000
848.62	-0.000
848.79	-0.000
848.97	-0.000
849.14	-0.000
849.31	-0.000
849.48	-0.000
849.66	-0.000
849.83	-0.000
850.00	-0.000
850.17	-0.000
850.35	-0.000
850.52	-0.000
850.69	-0.000
850.86	-0.000
851.04	-0.000
851.21	-0.000
851.38	-0.000
851.55	-0.000
851.72	-0.000
851.90	-0.000
852.07	-0.000
852.24	-0.000
852.41	-0.000
852.59	-0.000
852.76	-0.000
852.93	-0.000
853.10	-0.000
853.28	-0.000
853.45	-0.000
853.62	-0.000
853.79	-0.000
853.96	-0.000
854.14	-0.000
854.31	-0.000
854.48	-0.000
854.65	-0.000
854.82	-0.000
855.00	-0.000
855.17	-0.000
855.34	-0.000
855.51	-0.000
855.68	-0.000
855.86	-0.000
856.03	-0.000
856.20	-0.000
856.37	-0.000
856.54	-0.000
856.72	-0.000
856.89	-0.000
857.06	-0.000
857.23	-0.000
857.40	-0.000
857.57	-0.000
857.75	-0.000
857.92	-0.000
858.09	-0.000
858.26	-0.000
858.43	-0.000
858.60	-0.000
858.78	-0.000
858.95	-0.000
859.12	-0.000
859.29	-0.000
859.46	-0.000
859.63	-0.000
859.81	-0.000
859.98	-0.000
860.15	-0.000
860.32	-0.000
860.49	-0.000
860.66	-0.000
860.83	-0.000
861.01	-0.000
861.18	-0.000
861.35	-0.000
861.52	-0.000
861.69	-0.000
861.86	-0.000
862.03	-0.000
862.21	-0.000
862.38	-0.000
862.55	-0.000
862.72	-0.000
862.89	-0.000
863.06	-0.000
863.23	-0.000
863.40	-0.000
863.58	-0.000
863.75	-0.000
863.92	-0.000
864.09	-0.000
864.26	-0.000
864.43	-0.000
864.60	-0.000
864.77	-0.000
864.94	-0.000
865.11	-0.000
865.29	-0.000
865.46	-0.000
865.63	-0.000
865.80	-0.000
865.97	-0.000
866.14	-0.000
866.31	-0.000
866.48	-0.000
866.65	-0.000
866.82	-0.000
866.99	-0.000
867.16	-0.000
867.34	-0.000
867.51	-0.000
867.68	-0.000
867.85	-0.000
868.02	-0.000
868.19	-0.000
868.36	-0.000
868.53	-0.000
868.70	-0.000
868.87	-0.000
869.04	-0.000
869.21	-0.000
869.38	-0.000
869.55	-0.000
869.72	-0.000
869.89	-0.000
870.06	-0.000
870.24	-0.000
870.41	-0.000
870.58	-0.000
870.75	-0.000
870.92	-0.000
871.09	-0.000
871.26	-0.000
871.43	-0.000
871.60	-0.000
871.77	-0.000
871.94	-0.000
872.11	-0.000
872.28	-0.000
872.45	-0.000
872.62	-0.000
872.79	-0.000
872.96	-0.000
873.13	-0.000
873.30	-0.000
873.47	-0.000
873.64	-0.000
873.81	-0.000
873.98	-0.000
874.15	-0.000
874.32	-0.000
874.49	-0.000
874.66	-0.000
874.83	-0.000
875.00	-0.000
875.17	-0.000
875.34	-0.000
875.51	-0.000
875.68	-0.000
875.85	-0.000
876.02	-0.000
876.19	-0.000
876.36	-0.000
876.53	-0.000
876.70	-0.000
876.87	-0.000
877.04	-0.000
877.21	-0.000
877.38	-0.000
877.55	-0.000
877.72	-0.000
877.89	-0.000
878.06	-0.000
878.23	-0.000
878.39	-0.000
878.56	-0.000
878.73	-0.000
878.90	-0.000
879.07	-0.000
879.24	-0.000
879.41	-0.000
879.58	-0.000
879.75	-0.000
879.92	-0.000
880.09	-0.000
880.26	-0.000
880.43	-0.000
880.60	-0.000
880.77	-0.000
880.94	-0.000
881.11	-0.000
881.27	-0.000
881.44	-0.000
881.61	-0.000
881.78	-0.000
881.95	-0.000
882.12	-0.000
882.29	-0.000
882.46	-0.000
882.63	-0.000
882.80	-0.000
882.97	-0.000
883.14	-0.000
883.30	-0.000
883.47	-0.000
883.64	-0.000
883.81	-0.000
883.98	-0.000
884.15	-0.000
884.32	-0.000
884.49	-0.000
884.66	-0.000
884.82	-0.000
884.99	-0.000
885.16	-0.000
885.33	-0.000
885.50	-0.000
885.67	-0.000
885.84	-0.000
886.01	-0.000
886.17	-0.000
886.34	-0.000
886.51	-0.000
886.68	-0.000
886.85	-0.000
887.02	-0.000
887.19	-0.000
887.36	-0.000
887.52	-0.000
887.69	-0.000
887.86	-0.000
888.03	-0.000
888.20	-0.000
888.37	-0.000
888.54	-0.000
888.70	-0.000
888.87	-0.000
889.04	-0.000
889.21	-0.000
889.38	-0.000
889.55	-0.000
889.71	-0.000
889.88	-0.000
890.05	-0.000
890.22	-0.000
890.39	-0.000
>>>>>End Processed Spectral Data<<<<<
