SpectraSuite Data File
++++++++++++++++++++++++++++++++++++
Date: Fri Jun 19 14:24:37 CEST 2015
User: introlabs
Dark Spectrum Present: Yes
Reference Spectrum Present: Yes
Number of Sampled Component Spectra: 1
Spectrometers: USB4H08886
Integration Time (usec): 745692 (USB4H08886)
Spectra Averaged: 5 (USB4H08886)
Boxcar Smoothing: 5 (USB4H08886)
Correct for Electrical Dark: Yes (USB4H08886)
Strobe/Lamp Enabled: No (USB4H08886)
Correct for Detector Non-linearity: Yes (USB4H08886)
Correct for Stray Light: Yes (USB4H08886)
Number of Pixels in Processed Spectrum: 3648
>>>>>Begin Processed Spectral Data<<<<<
178.14	-0.000
178.36	-0.000
178.57	-0.000
178.79	-0.000
179.01	-0.000
179.22	-0.000
179.44	-0.000
179.65	-0.000
179.87	-0.000
180.08	-0.000
180.30	-0.000
180.52	-0.000
180.73	-0.000
180.95	-0.000
181.16	-0.000
181.38	-0.000
181.59	-0.000
181.81	-0.000
182.03	-0.000
182.24	-0.000
182.46	-0.000
182.67	-0.000
182.89	-0.000
183.10	-0.000
183.32	-0.000
183.54	-0.000
183.75	-0.000
183.97	-0.000
184.18	-0.000
184.40	-0.000
184.61	-0.000
184.83	-0.000
185.04	-0.000
185.26	-0.000
185.48	-0.000
185.69	-0.000
185.91	-0.000
186.12	-0.000
186.34	-0.000
186.55	-0.000
186.77	-0.000
186.98	-0.000
187.20	-0.000
187.42	-0.000
187.63	-0.000
187.85	-0.000
188.06	-0.000
188.28	-0.000
188.49	-0.000
188.71	-0.000
188.92	-0.000
189.14	-0.000
189.36	-0.000
189.57	-0.000
189.79	-0.000
190.00	-0.000
190.22	-0.000
190.43	-0.000
190.65	-0.000
190.86	-0.000
191.08	-0.000
191.29	-0.000
191.51	-0.000
191.72	-0.000
191.94	-0.000
192.16	-0.000
192.37	-0.000
192.59	-0.000
192.80	-0.000
193.02	-0.000
193.23	-0.000
193.45	-0.000
193.66	-0.000
193.88	-0.000
194.09	-0.000
194.31	-0.000
194.52	-0.000
194.74	-0.000
194.95	-0.000
195.17	-0.000
195.38	-0.000
195.60	-0.000
195.81	-0.000
196.03	-0.000
196.25	-0.000
196.46	-0.000
196.68	-0.000
196.89	-0.000
197.11	-0.000
197.32	-0.000
197.54	-0.000
197.75	-0.000
197.97	-0.000
198.18	-0.000
198.40	-0.000
198.61	-0.000
198.83	-0.000
199.04	-0.000
199.26	-0.000
199.47	-0.000
199.69	-0.000
199.90	-0.000
200.12	-0.000
200.33	-0.000
200.55	-0.000
200.76	-0.000
200.98	-0.000
201.19	-0.000
201.41	-0.000
201.62	-0.000
201.84	-0.000
202.05	-0.000
202.27	-0.000
202.48	-0.000
202.70	-0.000
202.91	-0.000
203.13	-0.000
203.34	-0.000
203.56	-0.000
203.77	-0.000
203.99	-0.000
204.20	-0.000
204.42	-0.000
204.63	-0.000
204.85	-0.000
205.06	-0.000
205.28	-0.000
205.49	-0.000
205.71	-0.000
205.92	-0.000
206.14	-0.000
206.35	-0.000
206.56	-0.000
206.78	-0.000
206.99	-0.000
207.21	-0.000
207.42	-0.000
207.64	-0.000
207.85	-0.000
208.07	-0.000
208.28	-0.000
208.50	-0.000
208.71	-0.000
208.93	-0.000
209.14	-0.000
209.36	-0.000
209.57	-0.000
209.79	-0.000
210.00	-0.000
210.22	-0.000
210.43	-0.000
210.64	-0.000
210.86	-0.000
211.07	-0.000
211.29	-0.000
211.50	-0.000
211.72	-0.000
211.93	-0.000
212.15	-0.000
212.36	-0.000
212.58	-0.000
212.79	-0.000
213.01	-0.000
213.22	-0.000
213.43	-0.000
213.65	-0.000
213.86	-0.000
214.08	-0.000
214.29	-0.000
214.51	-0.000
214.72	-0.000
214.94	-0.000
215.15	-0.000
215.36	-0.000
215.58	-0.000
215.79	-0.000
216.01	-0.000
216.22	-0.000
216.44	-0.000
216.65	-0.000
216.87	-0.000
217.08	-0.000
217.29	-0.000
217.51	-0.000
217.72	-0.000
217.94	-0.000
218.15	-0.000
218.37	-0.000
218.58	-0.000
218.80	-0.000
219.01	-0.000
219.22	-0.000
219.44	-0.000
219.65	-0.000
219.87	-0.000
220.08	-0.000
220.30	-0.000
220.51	-0.000
220.72	-0.000
220.94	-0.000
221.15	-0.000
221.37	-0.000
221.58	-0.000
221.79	-0.000
222.01	-0.000
222.22	-0.000
222.44	-0.000
222.65	-0.000
222.87	-0.000
223.08	-0.000
223.29	-0.000
223.51	-0.000
223.72	-0.000
223.94	-0.000
224.15	-0.000
224.36	-0.000
224.58	-0.000
224.79	-0.000
225.01	-0.000
225.22	-0.000
225.44	-0.000
225.65	-0.000
225.86	-0.000
226.08	-0.000
226.29	-0.000
226.51	-0.000
226.72	-0.000
226.93	-0.000
227.15	-0.000
227.36	-0.000
227.58	-0.000
227.79	-0.000
228.00	-0.000
228.22	-0.000
228.43	-0.000
228.65	-0.000
228.86	-0.000
229.07	-0.000
229.29	-0.000
229.50	-0.000
229.72	-0.000
229.93	-0.000
230.14	-0.000
230.36	-0.000
230.57	-0.000
230.78	-0.000
231.00	-0.000
231.21	-0.000
231.43	-0.000
231.64	-0.000
231.85	-0.000
232.07	-0.000
232.28	-0.000
232.50	-0.000
232.71	-0.000
232.92	-0.000
233.14	-0.000
233.35	-0.000
233.56	-0.000
233.78	-0.000
233.99	-0.000
234.21	-0.000
234.42	-0.000
234.63	-0.000
234.85	-0.000
235.06	-0.000
235.27	-0.000
235.49	-0.000
235.70	-0.000
235.91	-0.000
236.13	-0.000
236.34	-0.000
236.56	-0.000
236.77	-0.000
236.98	-0.000
237.20	-0.000
237.41	-0.000
237.62	-0.000
237.84	-0.000
238.05	-0.000
238.26	-0.000
238.48	-0.000
238.69	-0.000
238.91	-0.000
239.12	-0.000
239.33	-0.000
239.55	-0.000
239.76	-0.000
239.97	-0.000
240.19	-0.000
240.40	-0.000
240.61	-0.000
240.83	-0.000
241.04	-0.000
241.25	-0.000
241.47	-0.000
241.68	-0.000
241.89	-0.000
242.11	-0.000
242.32	-0.000
242.53	-0.000
242.75	-0.000
242.96	-0.000
243.17	-0.000
243.39	-0.000
243.60	-0.000
243.81	-0.000
244.03	-0.000
244.24	-0.000
244.45	-0.000
244.67	-0.000
244.88	-0.000
245.09	-0.000
245.31	-0.000
245.52	-0.000
245.73	-0.000
245.95	-0.000
246.16	-0.000
246.37	-0.000
246.59	-0.000
246.80	-0.000
247.01	-0.000
247.23	-0.000
247.44	-0.000
247.65	-0.000
247.87	-0.000
248.08	-0.000
248.29	-0.000
248.51	-0.000
248.72	-0.000
248.93	-0.000
249.15	-0.000
249.36	-0.000
249.57	-0.000
249.78	-0.000
250.00	-0.000
250.21	-0.000
250.42	-0.000
250.64	-0.000
250.85	-0.000
251.06	-0.000
251.28	-0.000
251.49	-0.000
251.70	-0.000
251.92	-0.000
252.13	-0.000
252.34	-0.000
252.55	-0.000
252.77	-0.000
252.98	-0.000
253.19	-0.000
253.41	-0.000
253.62	-0.000
253.83	-0.000
254.05	-0.000
254.26	-0.000
254.47	-0.000
254.68	-0.000
254.90	-0.000
255.11	-0.000
255.32	-0.000
255.54	-0.000
255.75	-0.000
255.96	-0.000
256.17	-0.000
256.39	-0.000
256.60	-0.000
256.81	-0.000
257.03	-0.000
257.24	-0.000
257.45	-0.000
257.66	-0.000
257.88	-0.000
258.09	-0.000
258.30	-0.000
258.51	-0.000
258.73	-0.000
258.94	-0.000
259.15	-0.000
259.37	-0.000
259.58	-0.000
259.79	-0.000
260.00	-0.000
260.22	-0.000
260.43	-0.000
260.64	-0.000
260.85	-0.000
261.07	-0.000
261.28	-0.000
261.49	-0.000
261.71	-0.000
261.92	-0.000
262.13	-0.000
262.34	-0.000
262.56	-0.000
262.77	-0.000
262.98	-0.000
263.19	-0.000
263.41	-0.000
263.62	-0.000
263.83	-0.000
264.04	-0.000
264.26	-0.000
264.47	-0.000
264.68	-0.000
264.89	-0.000
265.11	-0.000
265.32	-0.000
265.53	-0.000
265.74	-0.000
265.96	-0.000
266.17	-0.000
266.38	-0.000
266.59	-0.000
266.81	-0.000
267.02	-0.000
267.23	-0.000
267.44	-0.000
267.65	-0.000
267.87	-0.000
268.08	-0.000
268.29	-0.000
268.50	-0.000
268.72	-0.000
268.93	-0.000
269.14	-0.000
269.35	-0.000
269.57	-0.000
269.78	-0.000
269.99	-0.000
270.20	-0.000
270.41	-0.000
270.63	-0.000
270.84	-0.000
271.05	-0.000
271.26	-0.000
271.48	-0.000
271.69	-0.000
271.90	-0.000
272.11	-0.000
272.32	-0.000
272.54	-0.000
272.75	-0.000
272.96	-0.000
273.17	-0.000
273.39	-0.000
273.60	-0.000
273.81	-0.000
274.02	-0.000
274.23	-0.000
274.45	-0.000
274.66	-0.000
274.87	-0.000
275.08	-0.000
275.29	-0.000
275.51	-0.000
275.72	-0.000
275.93	-0.000
276.14	-0.000
276.35	-0.000
276.57	-0.000
276.78	-0.000
276.99	-0.000
277.20	-0.000
277.41	-0.000
277.63	-0.000
277.84	-0.000
278.05	-0.000
278.26	-0.000
278.47	-0.000
278.69	-0.000
278.90	-0.000
279.11	-0.000
279.32	-0.000
279.53	-0.000
279.74	-0.000
279.96	-0.000
280.17	-0.000
280.38	-0.000
280.59	-0.000
280.80	-0.000
281.02	-0.000
281.23	-0.000
281.44	-0.000
281.65	-0.000
281.86	-0.000
282.07	-0.000
282.29	-0.000
282.50	-0.000
282.71	-0.000
282.92	-0.000
283.13	-0.000
283.35	-0.000
283.56	-0.000
283.77	-0.000
283.98	-0.000
284.19	-0.000
284.40	-0.000
284.62	-0.000
284.83	-0.000
285.04	-0.000
285.25	-0.000
285.46	-0.000
285.67	-0.000
285.88	-0.000
286.10	-0.000
286.31	-0.000
286.52	-0.000
286.73	-0.000
286.94	-0.000
287.15	-0.000
287.37	-0.000
287.58	-0.000
287.79	-0.000
288.00	-0.000
288.21	-0.000
288.42	-0.000
288.63	-0.000
288.85	-0.000
289.06	-0.000
289.27	-0.000
289.48	-0.000
289.69	-0.000
289.90	-0.000
290.11	-0.000
290.33	-0.000
290.54	-0.000
290.75	-0.000
290.96	-0.000
291.17	-0.000
291.38	-0.000
291.59	-0.000
291.81	-0.000
292.02	-0.000
292.23	-0.000
292.44	-0.000
292.65	-0.000
292.86	-0.000
293.07	-0.000
293.28	-0.000
293.50	-0.000
293.71	-0.000
293.92	-0.000
294.13	-0.000
294.34	-0.000
294.55	-0.000
294.76	-0.000
294.97	-0.000
295.19	-0.000
295.40	-0.000
295.61	-0.000
295.82	-0.000
296.03	-0.000
296.24	-0.000
296.45	2.138
296.66	1.772
296.87	1.788
297.09	1.876
297.30	2.098
297.51	1.706
297.72	1.679
297.93	1.777
298.14	1.727
298.35	1.684
298.56	1.667
298.77	1.815
298.99	1.785
299.20	1.749
299.41	1.726
299.62	1.680
299.83	1.672
300.04	1.601
300.25	1.599
300.46	1.653
300.67	1.615
300.88	1.554
301.10	1.553
301.31	1.631
301.52	1.573
301.73	1.509
301.94	1.510
302.15	1.527
302.36	1.479
302.57	1.412
302.78	1.420
302.99	1.466
303.20	1.485
303.41	1.389
303.63	1.370
303.84	1.378
304.05	1.377
304.26	1.318
304.47	1.324
304.68	1.330
304.89	1.319
305.10	1.279
305.31	1.270
305.52	1.314
305.73	1.310
305.94	1.268
306.15	1.261
306.37	1.285
306.58	1.292
306.79	1.260
307.00	1.282
307.21	1.325
307.42	1.318
307.63	1.274
307.84	1.241
308.05	1.278
308.26	1.280
308.47	1.253
308.68	1.248
308.89	1.247
309.10	1.246
309.31	1.203
309.52	1.195
309.73	1.210
309.95	1.206
310.16	1.177
310.37	1.166
310.58	1.184
310.79	1.183
311.00	1.178
311.21	1.183
311.42	1.185
311.63	1.182
311.84	1.160
312.05	1.158
312.26	1.182
312.47	1.192
312.68	1.166
312.89	1.149
313.10	1.156
313.31	1.130
313.52	1.131
313.73	1.134
313.94	1.139
314.15	1.124
314.36	1.102
314.57	1.094
314.78	1.084
314.99	1.080
315.21	1.069
315.42	1.075
315.63	1.089
315.84	1.065
316.05	1.048
316.26	1.054
316.47	1.072
316.68	1.068
316.89	1.049
317.10	1.068
317.31	1.074
317.52	1.074
317.73	1.052
317.94	1.050
318.15	1.093
318.36	1.092
318.57	1.073
318.78	1.061
318.99	1.096
319.20	1.096
319.41	1.062
319.62	1.063
319.83	1.078
320.04	1.073
320.25	1.059
320.46	1.027
320.67	1.031
320.88	1.029
321.09	1.015
321.30	0.999
321.51	1.014
321.72	1.013
321.93	0.996
322.14	0.987
322.35	1.014
322.56	1.014
322.77	1.000
322.98	1.012
323.19	1.020
323.40	1.026
323.61	1.005
323.82	0.999
324.03	1.004
324.24	1.003
324.45	0.989
324.66	0.970
324.87	0.968
325.08	0.968
325.29	0.948
325.50	0.941
325.71	0.946
325.92	0.955
326.13	0.941
326.34	0.942
326.55	0.949
326.76	0.949
326.97	0.940
327.18	0.936
327.39	0.962
327.60	0.962
327.80	0.962
328.01	0.961
328.22	0.962
328.43	0.963
328.64	0.952
328.85	0.957
329.06	0.959
329.27	0.957
329.48	0.951
329.69	0.932
329.90	0.943
330.11	0.936
330.32	0.929
330.53	0.922
330.74	0.924
330.95	0.922
331.16	0.907
331.37	0.916
331.58	0.917
331.79	0.916
332.00	0.908
332.21	0.901
332.42	0.905
332.63	0.897
332.83	0.892
333.04	0.894
333.25	0.907
333.46	0.905
333.67	0.890
333.88	0.894
334.09	0.904
334.30	0.900
334.51	0.892
334.72	0.887
334.93	0.891
335.14	0.891
335.35	0.883
335.56	0.877
335.77	0.886
335.98	0.885
336.18	0.878
336.39	0.871
336.60	0.876
336.81	0.874
337.02	0.872
337.23	0.877
337.44	0.880
337.65	0.882
337.86	0.872
338.07	0.867
338.28	0.873
338.49	0.870
338.70	0.862
338.91	0.868
339.11	0.875
339.32	0.872
339.53	0.859
339.74	0.856
339.95	0.853
340.16	0.852
340.37	0.843
340.58	0.842
340.79	0.846
341.00	0.846
341.21	0.835
341.41	0.835
341.62	0.837
341.83	0.838
342.04	0.834
342.25	0.844
342.46	0.849
342.67	0.848
342.88	0.841
343.09	0.840
343.30	0.847
343.50	0.850
343.71	0.840
343.92	0.839
344.13	0.843
344.34	0.842
344.55	0.826
344.76	0.825
344.97	0.828
345.18	0.827
345.38	0.824
345.59	0.819
345.80	0.819
346.01	0.817
346.22	0.812
346.43	0.806
346.64	0.814
346.85	0.814
347.06	0.807
347.26	0.807
347.47	0.810
347.68	0.807
347.89	0.803
348.10	0.798
348.31	0.805
348.52	0.805
348.73	0.802
348.93	0.799
349.14	0.802
349.35	0.801
349.56	0.796
349.77	0.791
349.98	0.796
350.19	0.793
350.39	0.788
350.60	0.785
350.81	0.801
351.02	0.800
351.23	0.795
351.44	0.797
351.65	0.801
351.86	0.798
352.06	0.797
352.27	0.797
352.48	0.799
352.69	0.798
352.90	0.792
353.11	0.777
353.31	0.784
353.52	0.781
353.73	0.772
353.94	0.773
354.15	0.780
354.36	0.779
354.57	0.771
354.77	0.773
354.98	0.773
355.19	0.773
355.40	0.772
355.61	0.778
355.82	0.783
356.02	0.783
356.23	0.777
356.44	0.777
356.65	0.781
356.86	0.782
357.07	0.775
357.27	0.778
357.48	0.781
357.69	0.777
357.90	0.762
358.11	0.757
358.32	0.760
358.52	0.764
358.73	0.753
358.94	0.755
359.15	0.759
359.36	0.760
359.56	0.754
359.77	0.751
359.98	0.758
360.19	0.758
360.40	0.755
360.61	0.756
360.81	0.754
361.02	0.755
361.23	0.747
361.44	0.745
361.65	0.747
361.85	0.747
362.06	0.745
362.27	0.747
362.48	0.747
362.69	0.750
362.89	0.743
363.10	0.744
363.31	0.749
363.52	0.752
363.73	0.747
363.93	0.747
364.14	0.749
364.35	0.751
364.56	0.740
364.77	0.743
364.97	0.746
365.18	0.746
365.39	0.742
365.60	0.738
365.81	0.739
366.01	0.738
366.22	0.735
366.43	0.735
366.64	0.737
366.84	0.743
367.05	0.739
367.26	0.738
367.47	0.741
367.68	0.741
367.88	0.738
368.09	0.736
368.30	0.738
368.51	0.737
368.71	0.737
368.92	0.741
369.13	0.739
369.34	0.737
369.55	0.736
369.75	0.736
369.96	0.742
370.17	0.741
370.38	0.739
370.58	0.738
370.79	0.744
371.00	0.743
371.21	0.733
371.41	0.738
371.62	0.742
371.83	0.738
372.04	0.735
372.24	0.729
372.45	0.730
372.66	0.730
372.87	0.727
373.07	0.722
373.28	0.723
373.49	0.726
373.70	0.718
373.90	0.718
374.11	0.727
374.32	0.727
374.53	0.725
374.73	0.726
374.94	0.729
375.15	0.729
375.36	0.728
375.56	0.737
375.77	0.737
375.98	0.737
376.19	0.734
376.39	0.728
376.60	0.732
376.81	0.732
377.02	0.730
377.22	0.728
377.43	0.728
377.64	0.728
377.84	0.718
378.05	0.723
378.26	0.729
378.47	0.728
378.67	0.726
378.88	0.723
379.09	0.724
379.30	0.724
379.50	0.722
379.71	0.724
379.92	0.727
380.12	0.727
380.33	0.718
380.54	0.715
380.75	0.721
380.95	0.721
381.16	0.719
381.37	0.719
381.57	0.721
381.78	0.722
381.99	0.722
382.20	0.721
382.40	0.723
382.61	0.724
382.82	0.720
383.02	0.713
383.23	0.717
383.44	0.717
383.64	0.715
383.85	0.717
384.06	0.720
384.27	0.717
384.47	0.715
384.68	0.715
384.89	0.720
385.09	0.720
385.30	0.719
385.51	0.718
385.71	0.722
385.92	0.722
386.13	0.721
386.33	0.723
386.54	0.724
386.75	0.723
386.95	0.719
387.16	0.715
387.37	0.718
387.58	0.718
387.78	0.716
387.99	0.713
388.20	0.716
388.40	0.713
388.61	0.710
388.82	0.713
389.02	0.715
389.23	0.715
389.44	0.714
389.64	0.713
389.85	0.724
390.06	0.724
390.26	0.725
390.47	0.723
390.68	0.725
390.88	0.724
391.09	0.719
391.30	0.718
391.50	0.719
391.71	0.718
391.92	0.715
392.12	0.708
392.33	0.709
392.53	0.708
392.74	0.708
392.95	0.707
393.15	0.710
393.36	0.712
393.57	0.710
393.77	0.713
393.98	0.716
394.19	0.716
394.39	0.715
394.60	0.716
394.81	0.718
395.01	0.717
395.22	0.715
395.43	0.716
395.63	0.721
395.84	0.722
396.04	0.718
396.25	0.719
396.46	0.721
396.66	0.719
396.87	0.716
397.08	0.714
397.28	0.716
397.49	0.717
397.69	0.714
397.90	0.709
398.11	0.710
398.31	0.710
398.52	0.707
398.73	0.708
398.93	0.707
399.14	0.706
399.34	0.705
399.55	0.707
399.76	0.707
399.96	0.708
400.17	0.706
400.37	0.705
400.58	0.712
400.79	0.713
400.99	0.711
401.20	0.716
401.41	0.719
401.61	0.720
401.82	0.725
402.02	0.724
402.23	0.725
402.44	0.724
402.64	0.724
402.85	0.718
403.05	0.717
403.26	0.716
403.47	0.710
403.67	0.708
403.88	0.709
404.08	0.704
404.29	0.702
404.50	0.702
404.70	0.703
404.91	0.702
405.11	0.699
405.32	0.700
405.52	0.700
405.73	0.700
405.94	0.698
406.14	0.701
406.35	0.703
406.55	0.703
406.76	0.700
406.97	0.701
407.17	0.704
407.38	0.704
407.58	0.702
407.79	0.705
407.99	0.707
408.20	0.708
408.41	0.704
408.61	0.702
408.82	0.703
409.02	0.703
409.23	0.701
409.43	0.700
409.64	0.701
409.84	0.701
410.05	0.697
410.26	0.696
410.46	0.696
410.67	0.695
410.87	0.696
411.08	0.697
411.28	0.699
411.49	0.700
411.69	0.698
411.90	0.699
412.11	0.701
412.31	0.703
412.52	0.701
412.72	0.702
412.93	0.703
413.13	0.701
413.34	0.698
413.54	0.699
413.75	0.701
413.95	0.700
414.16	0.697
414.37	0.699
414.57	0.699
414.78	0.702
414.98	0.699
415.19	0.700
415.39	0.699
415.60	0.701
415.80	0.700
416.01	0.698
416.21	0.700
416.42	0.700
416.62	0.694
416.83	0.695
417.03	0.695
417.24	0.695
417.44	0.692
417.65	0.691
417.86	0.692
418.06	0.690
418.27	0.688
418.47	0.690
418.68	0.690
418.88	0.691
419.09	0.689
419.29	0.689
419.50	0.690
419.70	0.690
419.91	0.688
420.11	0.686
420.32	0.688
420.52	0.688
420.73	0.686
420.93	0.687
421.14	0.689
421.34	0.687
421.55	0.684
421.75	0.684
421.96	0.686
422.16	0.686
422.37	0.686
422.57	0.683
422.78	0.685
422.98	0.681
423.19	0.679
423.39	0.678
423.60	0.682
423.80	0.683
424.01	0.681
424.21	0.683
424.42	0.684
424.62	0.684
424.83	0.683
425.03	0.683
425.23	0.686
425.44	0.686
425.64	0.686
425.85	0.685
426.05	0.686
426.26	0.687
426.46	0.683
426.67	0.682
426.87	0.687
427.08	0.687
427.28	0.685
427.49	0.686
427.69	0.687
427.90	0.686
428.10	0.683
428.31	0.683
428.51	0.685
428.71	0.684
428.92	0.685
429.12	0.682
429.33	0.682
429.53	0.686
429.74	0.690
429.94	0.691
430.15	0.690
430.35	0.691
430.56	0.688
430.76	0.687
430.96	0.688
431.17	0.685
431.37	0.682
431.58	0.681
431.78	0.677
431.99	0.670
432.19	0.672
432.40	0.673
432.60	0.674
432.80	0.676
433.01	0.674
433.21	0.674
433.42	0.676
433.62	0.676
433.83	0.676
434.03	0.677
434.23	0.681
434.44	0.680
434.64	0.678
434.85	0.683
435.05	0.684
435.26	0.684
435.46	0.683
435.66	0.682
435.87	0.683
436.07	0.683
436.28	0.679
436.48	0.676
436.69	0.675
436.89	0.675
437.09	0.669
437.30	0.668
437.50	0.668
437.71	0.680
437.91	0.679
438.11	0.680
438.32	0.685
438.52	0.685
438.73	0.684
438.93	0.682
439.13	0.682
439.34	0.686
439.54	0.683
439.75	0.683
439.95	0.673
440.15	0.678
440.36	0.676
440.56	0.673
440.77	0.675
440.97	0.675
441.17	0.674
441.38	0.676
441.58	0.673
441.79	0.673
441.99	0.671
442.19	0.670
442.40	0.667
442.60	0.667
442.81	0.664
443.01	0.664
443.21	0.665
443.42	0.665
443.62	0.663
443.82	0.662
444.03	0.664
444.23	0.663
444.44	0.663
444.64	0.662
444.84	0.664
445.05	0.664
445.25	0.661
445.45	0.662
445.66	0.664
445.86	0.663
446.06	0.664
446.27	0.664
446.47	0.667
446.68	0.665
446.88	0.664
447.08	0.664
447.29	0.666
447.49	0.666
447.69	0.665
447.90	0.664
448.10	0.667
448.30	0.665
448.51	0.666
448.71	0.664
448.91	0.666
449.12	0.664
449.32	0.666
449.52	0.664
449.73	0.668
449.93	0.667
450.14	0.668
450.34	0.667
450.54	0.669
450.75	0.666
450.95	0.666
451.15	0.665
451.36	0.668
451.56	0.665
451.76	0.663
451.97	0.660
452.17	0.661
452.37	0.659
452.58	0.656
452.78	0.656
452.98	0.658
453.19	0.658
453.39	0.659
453.59	0.657
453.79	0.658
454.00	0.659
454.20	0.658
454.40	0.658
454.61	0.661
454.81	0.661
455.01	0.660
455.22	0.660
455.42	0.662
455.62	0.659
455.83	0.659
456.03	0.662
456.23	0.664
456.44	0.664
456.64	0.663
456.84	0.663
457.04	0.664
457.25	0.663
457.45	0.660
457.65	0.658
457.86	0.660
458.06	0.659
458.26	0.654
458.47	0.653
458.67	0.654
458.87	0.655
459.07	0.652
459.28	0.653
459.48	0.656
459.68	0.656
459.89	0.654
460.09	0.652
460.29	0.653
460.49	0.655
460.70	0.654
460.90	0.654
461.10	0.654
461.31	0.654
461.51	0.651
461.71	0.653
461.91	0.654
462.12	0.655
462.32	0.654
462.52	0.655
462.72	0.657
462.93	0.658
463.13	0.656
463.33	0.657
463.53	0.659
463.74	0.658
463.94	0.654
464.14	0.655
464.35	0.656
464.55	0.656
464.75	0.654
464.95	0.652
465.16	0.653
465.36	0.652
465.56	0.651
465.76	0.650
465.97	0.651
466.17	0.652
466.37	0.650
466.57	0.651
466.78	0.651
466.98	0.650
467.18	0.648
467.38	0.647
467.59	0.649
467.79	0.651
467.99	0.650
468.19	0.652
468.39	0.654
468.60	0.655
468.80	0.653
469.00	0.654
469.20	0.656
469.41	0.656
469.61	0.656
469.81	0.656
470.01	0.655
470.22	0.656
470.42	0.653
470.62	0.651
470.82	0.653
471.02	0.652
471.23	0.650
471.43	0.650
471.63	0.653
471.83	0.652
472.04	0.650
472.24	0.649
472.44	0.654
472.64	0.655
472.84	0.652
473.05	0.651
473.25	0.655
473.45	0.654
473.65	0.653
473.85	0.652
474.06	0.654
474.26	0.654
474.46	0.655
474.66	0.651
474.86	0.652
475.07	0.652
475.27	0.650
475.47	0.648
475.67	0.649
475.87	0.650
476.08	0.647
476.28	0.648
476.48	0.650
476.68	0.648
476.88	0.646
477.09	0.647
477.29	0.649
477.49	0.649
477.69	0.647
477.89	0.647
478.09	0.647
478.30	0.649
478.50	0.646
478.70	0.646
478.90	0.647
479.10	0.649
479.31	0.650
479.51	0.648
479.71	0.648
479.91	0.649
480.11	0.648
480.31	0.648
480.52	0.647
480.72	0.647
480.92	0.646
481.12	0.645
481.32	0.642
481.52	0.641
481.72	0.641
481.93	0.644
482.13	0.645
482.33	0.645
482.53	0.642
482.73	0.643
482.93	0.644
483.14	0.644
483.34	0.643
483.54	0.644
483.74	0.643
483.94	0.642
484.14	0.638
484.34	0.638
484.55	0.639
484.75	0.639
484.95	0.638
485.15	0.637
485.35	0.637
485.55	0.637
485.75	0.635
485.96	0.636
486.16	0.638
486.36	0.637
486.56	0.635
486.76	0.635
486.96	0.636
487.16	0.635
487.36	0.633
487.57	0.633
487.77	0.633
487.97	0.634
488.17	0.632
488.37	0.631
488.57	0.632
488.77	0.632
488.97	0.630
489.18	0.630
489.38	0.633
489.58	0.634
489.78	0.633
489.98	0.632
490.18	0.632
490.38	0.633
490.58	0.632
490.78	0.632
490.98	0.634
491.19	0.635
491.39	0.634
491.59	0.632
491.79	0.635
491.99	0.635
492.19	0.635
492.39	0.638
492.59	0.638
492.79	0.639
492.99	0.639
493.20	0.639
493.40	0.639
493.60	0.640
493.80	0.639
494.00	0.636
494.20	0.637
494.40	0.637
494.60	0.634
494.80	0.638
495.00	0.637
495.20	0.636
495.40	0.635
495.61	0.637
495.81	0.637
496.01	0.640
496.21	0.641
496.41	0.640
496.61	0.641
496.81	0.640
497.01	0.635
497.21	0.635
497.41	0.636
497.61	0.635
497.81	0.633
498.01	0.633
498.21	0.631
498.41	0.630
498.61	0.629
498.82	0.631
499.02	0.633
499.22	0.634
499.42	0.633
499.62	0.634
499.82	0.635
500.02	0.636
500.22	0.634
500.42	0.636
500.62	0.636
500.82	0.637
501.02	0.634
501.22	0.635
501.42	0.635
501.62	0.636
501.82	0.636
502.02	0.637
502.22	0.636
502.42	0.639
502.62	0.636
502.82	0.636
503.02	0.636
503.22	0.636
503.42	0.634
503.63	0.634
503.83	0.632
504.03	0.631
504.23	0.629
504.43	0.629
504.63	0.630
504.83	0.630
505.03	0.630
505.23	0.632
505.43	0.633
505.63	0.633
505.83	0.633
506.03	0.634
506.23	0.636
506.43	0.637
506.63	0.635
506.83	0.633
507.03	0.636
507.23	0.636
507.43	0.633
507.63	0.634
507.83	0.635
508.03	0.636
508.23	0.635
508.43	0.633
508.63	0.635
508.83	0.636
509.03	0.638
509.23	0.637
509.43	0.638
509.63	0.638
509.83	0.637
510.03	0.640
510.23	0.641
510.43	0.642
510.63	0.642
510.83	0.641
511.03	0.642
511.23	0.639
511.43	0.639
511.63	0.640
511.83	0.642
512.03	0.642
512.22	0.639
512.42	0.638
512.62	0.639
512.82	0.639
513.02	0.639
513.22	0.639
513.42	0.641
513.62	0.643
513.82	0.642
514.02	0.641
514.22	0.643
514.42	0.643
514.62	0.643
514.82	0.643
515.02	0.646
515.22	0.648
515.42	0.647
515.62	0.649
515.82	0.648
516.02	0.649
516.22	0.649
516.42	0.651
516.62	0.653
516.82	0.654
517.01	0.652
517.21	0.651
517.41	0.654
517.61	0.654
517.81	0.650
518.01	0.650
518.21	0.650
518.41	0.648
518.61	0.647
518.81	0.647
519.01	0.648
519.21	0.648
519.41	0.647
519.61	0.642
519.81	0.644
520.00	0.645
520.20	0.645
520.40	0.648
520.60	0.650
520.80	0.649
521.00	0.649
521.20	0.650
521.40	0.655
521.60	0.655
521.80	0.654
522.00	0.655
522.20	0.657
522.39	0.657
522.59	0.652
522.79	0.653
522.99	0.656
523.19	0.654
523.39	0.652
523.59	0.650
523.79	0.653
523.99	0.655
524.19	0.653
524.38	0.652
524.58	0.653
524.78	0.655
524.98	0.653
525.18	0.655
525.38	0.656
525.58	0.657
525.78	0.654
525.98	0.653
526.18	0.653
526.37	0.653
526.57	0.655
526.77	0.655
526.97	0.655
527.17	0.656
527.37	0.652
527.57	0.654
527.77	0.656
527.96	0.656
528.16	0.655
528.36	0.655
528.56	0.658
528.76	0.655
528.96	0.654
529.16	0.656
529.36	0.660
529.55	0.659
529.75	0.656
529.95	0.656
530.15	0.658
530.35	0.661
530.55	0.658
530.75	0.658
530.94	0.660
531.14	0.659
531.34	0.657
531.54	0.655
531.74	0.658
531.94	0.661
532.13	0.659
532.33	0.660
532.53	0.659
532.73	0.659
532.93	0.657
533.13	0.658
533.33	0.659
533.52	0.659
533.72	0.663
533.92	0.662
534.12	0.660
534.32	0.660
534.52	0.659
534.71	0.660
534.91	0.663
535.11	0.665
535.31	0.662
535.51	0.664
535.71	0.666
535.90	0.662
536.10	0.663
536.30	0.665
536.50	0.666
536.70	0.666
536.89	0.664
537.09	0.663
537.29	0.664
537.49	0.665
537.69	0.662
537.89	0.663
538.08	0.663
538.28	0.662
538.48	0.662
538.68	0.664
538.88	0.666
539.07	0.666
539.27	0.664
539.47	0.664
539.67	0.664
539.87	0.666
540.06	0.664
540.26	0.665
540.46	0.667
540.66	0.664
540.86	0.661
541.05	0.662
541.25	0.663
541.45	0.663
541.65	0.661
541.84	0.662
542.04	0.663
542.24	0.664
542.44	0.663
542.64	0.664
542.83	0.667
543.03	0.668
543.23	0.665
543.43	0.666
543.62	0.667
543.82	0.667
544.02	0.666
544.22	0.666
544.42	0.669
544.61	0.670
544.81	0.666
545.01	0.664
545.21	0.667
545.40	0.668
545.60	0.666
545.80	0.669
546.00	0.670
546.19	0.669
546.39	0.668
546.59	0.666
546.79	0.667
546.98	0.668
547.18	0.667
547.38	0.668
547.58	0.670
547.77	0.671
547.97	0.667
548.17	0.669
548.37	0.669
548.56	0.669
548.76	0.669
548.96	0.671
549.16	0.673
549.35	0.673
549.55	0.670
549.75	0.670
549.95	0.674
550.14	0.674
550.34	0.672
550.54	0.677
550.73	0.680
550.93	0.681
551.13	0.677
551.33	0.676
551.52	0.677
551.72	0.679
551.92	0.676
552.12	0.677
552.31	0.678
552.51	0.678
552.71	0.673
552.90	0.672
553.10	0.673
553.30	0.673
553.50	0.672
553.69	0.674
553.89	0.674
554.09	0.674
554.28	0.671
554.48	0.672
554.68	0.675
554.87	0.675
555.07	0.671
555.27	0.671
555.47	0.673
555.66	0.674
555.86	0.672
556.06	0.674
556.25	0.675
556.45	0.682
556.65	0.680
556.84	0.684
557.04	0.688
557.24	0.689
557.43	0.690
557.63	0.693
557.83	0.694
558.02	0.695
558.22	0.699
558.42	0.699
558.61	0.692
558.81	0.693
559.01	0.688
559.21	0.688
559.40	0.689
559.60	0.689
559.80	0.685
559.99	0.687
560.19	0.690
560.39	0.684
560.58	0.681
560.78	0.682
560.97	0.685
561.17	0.684
561.37	0.682
561.56	0.683
561.76	0.684
561.96	0.683
562.15	0.680
562.35	0.682
562.55	0.684
562.74	0.684
562.94	0.682
563.14	0.681
563.33	0.682
563.53	0.681
563.73	0.679
563.92	0.680
564.12	0.683
564.31	0.686
564.51	0.683
564.71	0.685
564.90	0.687
565.10	0.687
565.30	0.689
565.49	0.690
565.69	0.693
565.89	0.693
566.08	0.690
566.28	0.691
566.47	0.693
566.67	0.692
566.87	0.690
567.06	0.692
567.26	0.699
567.46	0.694
567.65	0.694
567.85	0.695
568.04	0.698
568.24	0.697
568.44	0.694
568.63	0.692
568.83	0.693
569.02	0.692
569.22	0.686
569.42	0.683
569.61	0.686
569.81	0.685
570.00	0.682
570.20	0.683
570.40	0.685
570.59	0.685
570.79	0.682
570.98	0.680
571.18	0.682
571.38	0.682
571.57	0.678
571.77	0.676
571.96	0.680
572.16	0.678
572.35	0.673
572.55	0.674
572.75	0.672
572.94	0.672
573.14	0.671
573.33	0.671
573.53	0.672
573.73	0.672
573.92	0.669
574.12	0.667
574.31	0.670
574.51	0.671
574.70	0.667
574.90	0.669
575.09	0.671
575.29	0.672
575.49	0.669
575.68	0.669
575.88	0.671
576.07	0.672
576.27	0.670
576.46	0.669
576.66	0.668
576.86	0.668
577.05	0.665
577.25	0.663
577.44	0.664
577.64	0.665
577.83	0.662
578.03	0.664
578.22	0.663
578.42	0.662
578.61	0.660
578.81	0.661
579.00	0.662
579.20	0.661
579.40	0.660
579.59	0.659
579.79	0.660
579.98	0.659
580.18	0.659
580.37	0.659
580.57	0.662
580.76	0.666
580.96	0.664
581.15	0.665
581.35	0.667
581.54	0.666
581.74	0.665
581.93	0.667
582.13	0.668
582.32	0.665
582.52	0.663
582.71	0.663
582.91	0.659
583.10	0.658
583.30	0.657
583.49	0.656
583.69	0.660
583.88	0.662
584.08	0.660
584.27	0.663
584.47	0.666
584.66	0.667
584.86	0.666
585.05	0.668
585.25	0.670
585.44	0.670
585.64	0.669
585.83	0.665
586.03	0.666
586.22	0.664
586.42	0.660
586.61	0.662
586.81	0.664
587.00	0.664
587.20	0.662
587.39	0.663
587.59	0.664
587.78	0.666
587.98	0.666
588.17	0.667
588.37	0.670
588.56	0.672
588.76	0.668
588.95	0.668
589.15	0.672
589.34	0.674
589.54	0.672
589.73	0.673
589.92	0.676
590.12	0.676
590.31	0.674
590.51	0.679
590.70	0.681
590.90	0.681
591.09	0.680
591.29	0.678
591.48	0.678
591.68	0.679
591.87	0.676
592.06	0.676
592.26	0.679
592.45	0.678
592.65	0.672
592.84	0.671
593.04	0.674
593.23	0.675
593.43	0.673
593.62	0.673
593.81	0.673
594.01	0.673
594.20	0.670
594.40	0.669
594.59	0.672
594.79	0.673
594.98	0.671
595.17	0.670
595.37	0.671
595.56	0.673
595.76	0.672
595.95	0.674
596.14	0.677
596.34	0.678
596.53	0.676
596.73	0.677
596.92	0.678
597.12	0.681
597.31	0.680
597.50	0.680
597.70	0.682
597.89	0.682
598.09	0.678
598.28	0.679
598.47	0.681
598.67	0.680
598.86	0.677
599.06	0.679
599.25	0.679
599.44	0.677
599.64	0.674
599.83	0.672
600.03	0.675
600.22	0.676
600.41	0.675
600.61	0.674
600.80	0.676
601.00	0.677
601.19	0.672
601.38	0.671
601.58	0.674
601.77	0.675
601.96	0.677
602.16	0.677
602.35	0.685
602.55	0.684
602.74	0.684
602.93	0.685
603.13	0.690
603.32	0.691
603.51	0.691
603.71	0.694
603.90	0.696
604.09	0.696
604.29	0.694
604.48	0.688
604.68	0.689
604.87	0.688
605.06	0.684
605.26	0.680
605.45	0.682
605.64	0.681
605.84	0.676
606.03	0.675
606.22	0.674
606.42	0.673
606.61	0.669
606.80	0.669
607.00	0.671
607.19	0.672
607.38	0.670
607.58	0.671
607.77	0.674
607.96	0.674
608.16	0.672
608.35	0.677
608.54	0.681
608.74	0.684
608.93	0.689
609.12	0.692
609.32	0.694
609.51	0.697
609.70	0.696
609.90	0.698
610.09	0.703
610.28	0.708
610.48	0.701
610.67	0.703
610.86	0.703
611.06	0.697
611.25	0.695
611.44	0.696
611.64	0.696
611.83	0.699
612.02	0.694
612.21	0.693
612.41	0.691
612.60	0.690
612.79	0.686
612.99	0.687
613.18	0.690
613.37	0.687
613.57	0.684
613.76	0.686
613.95	0.684
614.14	0.684
614.34	0.681
614.53	0.682
614.72	0.685
614.92	0.685
615.11	0.682
615.30	0.678
615.49	0.680
615.69	0.683
615.88	0.679
616.07	0.680
616.26	0.682
616.46	0.684
616.65	0.680
616.84	0.679
617.04	0.681
617.23	0.684
617.42	0.685
617.61	0.689
617.81	0.689
618.00	0.691
618.19	0.690
618.38	0.694
618.58	0.697
618.77	0.699
618.96	0.698
619.15	0.700
619.35	0.702
619.54	0.702
619.73	0.697
619.92	0.699
620.12	0.704
620.31	0.704
620.50	0.698
620.69	0.697
620.89	0.700
621.08	0.700
621.27	0.700
621.46	0.699
621.66	0.704
621.85	0.704
622.04	0.701
622.23	0.701
622.43	0.702
622.62	0.701
622.81	0.700
623.00	0.699
623.19	0.703
623.39	0.703
623.58	0.700
623.77	0.698
623.96	0.701
624.16	0.701
624.35	0.696
624.54	0.700
624.73	0.704
624.92	0.703
625.12	0.700
625.31	0.700
625.50	0.703
625.69	0.703
625.88	0.699
626.08	0.699
626.27	0.701
626.46	0.701
626.65	0.698
626.84	0.698
627.04	0.703
627.23	0.703
627.42	0.698
627.61	0.700
627.80	0.704
628.00	0.704
628.19	0.702
628.38	0.705
628.57	0.707
628.76	0.706
628.96	0.703
629.15	0.703
629.34	0.707
629.53	0.708
629.72	0.702
629.91	0.703
630.11	0.708
630.30	0.708
630.49	0.711
630.68	0.712
630.87	0.715
631.06	0.717
631.26	0.712
631.45	0.714
631.64	0.722
631.83	0.724
632.02	0.720
632.21	0.719
632.41	0.726
632.60	0.720
632.79	0.718
632.98	0.718
633.17	0.719
633.36	0.721
633.55	0.718
633.75	0.714
633.94	0.716
634.13	0.715
634.32	0.712
634.51	0.706
634.70	0.709
634.89	0.709
635.09	0.706
635.28	0.706
635.47	0.708
635.66	0.710
635.85	0.705
636.04	0.706
636.23	0.711
636.43	0.712
636.62	0.712
636.81	0.710
637.00	0.713
637.19	0.717
637.38	0.714
637.57	0.713
637.76	0.715
637.95	0.716
638.15	0.713
638.34	0.710
638.53	0.713
638.72	0.714
638.91	0.711
639.10	0.708
639.29	0.708
639.48	0.709
639.67	0.708
639.87	0.707
640.06	0.712
640.25	0.711
640.44	0.712
640.63	0.714
640.82	0.717
641.01	0.717
641.20	0.715
641.39	0.718
641.58	0.721
641.78	0.720
641.97	0.716
642.16	0.730
642.35	0.731
642.54	0.729
642.73	0.723
642.92	0.721
643.11	0.726
643.30	0.726
643.49	0.720
643.68	0.722
643.87	0.723
644.06	0.725
644.25	0.704
644.45	0.707
644.64	0.710
644.83	0.711
645.02	0.707
645.21	0.706
645.40	0.707
645.59	0.707
645.78	0.700
645.97	0.703
646.16	0.704
646.35	0.704
646.54	0.702
646.73	0.702
646.92	0.704
647.11	0.703
647.30	0.699
647.49	0.702
647.68	0.702
647.88	0.701
648.07	0.693
648.26	0.697
648.45	0.699
648.64	0.696
648.83	0.693
649.02	0.695
649.21	0.705
649.40	0.705
649.59	0.699
649.78	0.700
649.97	0.715
650.16	0.714
650.35	0.708
650.54	0.710
650.73	0.718
650.92	0.715
651.11	0.708
651.30	0.706
651.49	0.711
651.68	0.711
651.87	0.708
652.06	0.697
652.25	0.700
652.44	0.703
652.63	0.699
652.82	0.699
653.01	0.700
653.20	0.698
653.39	0.686
653.58	0.684
653.77	0.684
653.96	0.679
654.15	0.671
654.34	0.670
654.53	0.665
654.72	0.660
654.91	0.650
655.10	0.646
655.29	0.644
655.48	0.642
655.67	0.636
655.86	0.634
656.05	0.632
656.24	0.632
656.43	0.627
656.62	0.625
656.81	0.626
657.00	0.623
657.19	0.621
657.38	0.621
657.57	0.621
657.76	0.624
657.95	0.622
658.14	0.625
658.33	0.628
658.51	0.633
658.70	0.634
658.89	0.635
659.08	0.643
659.27	0.651
659.46	0.651
659.65	0.656
659.84	0.659
660.03	0.662
660.22	0.662
660.41	0.667
660.60	0.666
660.79	0.668
660.98	0.674
661.17	0.674
661.36	0.673
661.55	0.673
661.74	0.671
661.92	0.674
662.11	0.677
662.30	0.676
662.49	0.668
662.68	0.668
662.87	0.672
663.06	0.666
663.25	0.667
663.44	0.667
663.63	0.669
663.82	0.668
664.01	0.662
664.20	0.660
664.38	0.662
664.57	0.662
664.76	0.662
664.95	0.662
665.14	0.667
665.33	0.661
665.52	0.668
665.71	0.672
665.90	0.672
666.09	0.673
666.28	0.670
666.46	0.669
666.65	0.670
666.84	0.668
667.03	0.662
667.22	0.660
667.41	0.665
667.60	0.654
667.79	0.646
667.98	0.648
668.16	0.649
668.35	0.649
668.54	0.645
668.73	0.646
668.92	0.646
669.11	0.645
669.30	0.639
669.49	0.634
669.67	0.637
669.86	0.639
670.05	0.637
670.24	0.635
670.43	0.632
670.62	0.632
670.81	0.627
671.00	0.628
671.18	0.629
671.37	0.628
671.56	0.626
671.75	0.625
671.94	0.622
672.13	0.620
672.32	0.614
672.50	0.614
672.69	0.613
672.88	0.613
673.07	0.609
673.26	0.611
673.45	0.613
673.63	0.613
673.82	0.609
674.01	0.611
674.20	0.610
674.39	0.610
674.58	0.609
674.76	0.609
674.95	0.609
675.14	0.608
675.33	0.603
675.52	0.601
675.71	0.602
675.89	0.601
676.08	0.597
676.27	0.598
676.46	0.599
676.65	0.599
676.84	0.598
677.02	0.600
677.21	0.602
677.40	0.602
677.59	0.599
677.78	0.599
677.96	0.603
678.15	0.601
678.34	0.599
678.53	0.599
678.72	0.599
678.90	0.595
679.09	0.591
679.28	0.587
679.47	0.587
679.66	0.587
679.84	0.583
680.03	0.581
680.22	0.580
680.41	0.581
680.60	0.578
680.78	0.577
680.97	0.580
681.16	0.580
681.35	0.580
681.53	0.578
681.72	0.580
681.91	0.582
682.10	0.579
682.29	0.582
682.47	0.579
682.66	0.579
682.85	0.578
683.04	0.576
683.22	0.576
683.41	0.577
683.60	0.577
683.79	0.578
683.97	0.577
684.16	0.576
684.35	0.572
684.54	0.574
684.72	0.574
684.91	0.575
685.10	0.573
685.29	0.574
685.47	0.571
685.66	0.570
685.85	0.567
686.04	0.566
686.22	0.569
686.41	0.571
686.60	0.568
686.79	0.571
686.97	0.572
687.16	0.574
687.35	0.570
687.54	0.574
687.72	0.578
687.91	0.577
688.10	0.579
688.29	0.578
688.47	0.576
688.66	0.576
688.85	0.573
689.03	0.570
689.22	0.575
689.41	0.576
689.60	0.571
689.78	0.568
689.97	0.568
690.16	0.565
690.34	0.562
690.53	0.561
690.72	0.562
690.91	0.560
691.09	0.557
691.28	0.551
691.47	0.549
691.65	0.548
691.84	0.546
692.03	0.545
692.21	0.544
692.40	0.543
692.59	0.541
692.77	0.540
692.96	0.541
693.15	0.542
693.34	0.539
693.52	0.539
693.71	0.540
693.90	0.541
694.08	0.542
694.27	0.542
694.46	0.552
694.64	0.553
694.83	0.552
695.02	0.551
695.20	0.551
695.39	0.551
695.58	0.550
695.76	0.551
695.95	0.549
696.14	0.548
696.32	0.546
696.51	0.537
696.70	0.537
696.88	0.537
697.07	0.536
697.26	0.538
697.44	0.539
697.63	0.539
697.81	0.536
698.00	0.536
698.19	0.537
698.37	0.537
698.56	0.536
698.75	0.535
698.93	0.535
699.12	0.534
699.31	0.533
699.49	0.532
699.68	0.533
699.87	0.535
700.05	0.535
700.24	0.534
700.42	0.536
700.61	0.536
700.80	0.534
700.98	0.534
701.17	0.536
701.36	0.535
701.54	0.534
701.73	0.535
701.91	0.533
702.10	0.533
702.29	0.531
702.47	0.530
702.66	0.532
702.84	0.533
703.03	0.531
703.22	0.533
703.40	0.533
703.59	0.534
703.77	0.533
703.96	0.532
704.15	0.533
704.33	0.533
704.52	0.532
704.70	0.531
704.89	0.530
705.08	0.528
705.26	0.524
705.45	0.524
705.63	0.524
705.82	0.521
706.00	0.520
706.19	0.520
706.38	0.520
706.56	0.520
706.75	0.517
706.93	0.517
707.12	0.519
707.30	0.519
707.49	0.517
707.68	0.515
707.86	0.515
708.05	0.515
708.23	0.512
708.42	0.512
708.60	0.515
708.79	0.515
708.98	0.513
709.16	0.512
709.35	0.514
709.53	0.518
709.72	0.517
709.90	0.519
710.09	0.520
710.27	0.522
710.46	0.526
710.64	0.524
710.83	0.527
711.02	0.528
711.20	0.527
711.39	0.525
711.57	0.522
711.76	0.523
711.94	0.521
712.13	0.523
712.31	0.522
712.50	0.518
712.68	0.515
712.87	0.516
713.05	0.516
713.24	0.517
713.42	0.516
713.61	0.517
713.79	0.517
713.98	0.518
714.16	0.518
714.35	0.518
714.54	0.518
714.72	0.518
714.91	0.515
715.09	0.521
715.28	0.525
715.46	0.524
715.65	0.522
715.83	0.522
716.02	0.524
716.20	0.520
716.39	0.519
716.57	0.521
716.76	0.523
716.94	0.524
717.12	0.516
717.31	0.517
717.49	0.520
717.68	0.522
717.86	0.522
718.05	0.523
718.23	0.526
718.42	0.529
718.60	0.529
718.79	0.537
718.97	0.539
719.16	0.540
719.34	0.536
719.53	0.536
719.71	0.536
719.90	0.538
720.08	0.535
720.27	0.535
720.45	0.535
720.63	0.534
720.82	0.528
721.00	0.531
721.19	0.534
721.37	0.533
721.56	0.533
721.74	0.536
721.93	0.545
722.11	0.551
722.30	0.551
722.48	0.555
722.66	0.558
722.85	0.557
723.03	0.557
723.22	0.556
723.40	0.560
723.59	0.560
723.77	0.564
723.95	0.557
724.14	0.558
724.32	0.560
724.51	0.559
724.69	0.559
724.88	0.558
725.06	0.556
725.24	0.557
725.43	0.558
725.61	0.560
725.80	0.555
725.98	0.552
726.16	0.549
726.35	0.555
726.53	0.554
726.72	0.552
726.90	0.563
727.09	0.564
727.27	0.570
727.45	0.566
727.64	0.576
727.82	0.585
728.01	0.589
728.19	0.587
728.37	0.592
728.56	0.596
728.74	0.603
728.92	0.590
729.11	0.591
729.29	0.590
729.48	0.593
729.66	0.582
729.84	0.580
730.03	0.584
730.21	0.586
730.40	0.575
730.58	0.577
730.76	0.579
730.95	0.581
731.13	0.581
731.31	0.594
731.50	0.603
731.68	0.605
731.86	0.601
732.05	0.615
732.23	0.619
732.42	0.622
732.60	0.624
732.78	0.629
732.97	0.648
733.15	0.655
733.33	0.643
733.52	0.649
733.70	0.660
733.88	0.669
734.07	0.654
734.25	0.679
734.43	0.688
734.62	0.689
734.80	0.682
734.98	0.671
735.17	0.678
735.35	0.685
735.53	0.674
735.72	0.677
735.90	0.697
736.08	0.716
736.27	0.693
736.45	0.702
736.63	0.714
736.82	0.724
737.00	0.724
737.18	0.734
737.37	0.763
737.55	0.788
737.73	0.780
737.92	0.783
738.10	0.781
738.28	0.798
738.46	0.787
738.65	0.799
738.83	0.821
739.01	0.872
739.20	0.862
739.38	0.846
739.56	0.835
739.75	0.844
739.93	0.809
740.11	0.833
740.29	0.835
740.48	0.840
740.66	0.818
740.84	0.812
741.03	0.777
741.21	0.789
741.39	0.770
741.57	0.782
741.76	0.798
741.94	0.805
742.12	0.772
742.31	0.780
742.49	0.799
742.67	0.824
742.85	0.837
743.04	0.843
743.22	0.849
743.40	0.900
743.58	0.880
743.77	0.895
743.95	0.924
744.13	0.970
744.31	0.947
744.50	0.939
744.68	0.940
744.86	0.918
745.04	0.925
745.23	0.984
745.41	0.970
745.59	0.977
745.77	0.940
745.96	0.933
746.14	0.939
746.32	0.938
746.50	0.928
746.69	0.907
746.87	0.916
747.05	0.903
747.23	0.833
747.42	0.819
747.60	0.841
747.78	0.850
747.96	0.874
748.14	0.839
748.33	0.865
748.51	0.864
748.69	0.858
748.87	0.885
749.06	0.887
749.24	0.888
749.42	0.876
749.60	0.856
749.78	0.863
749.97	0.818
750.15	0.811
750.33	0.810
750.51	0.834
750.69	0.840
750.88	0.842
751.06	0.848
751.24	0.876
751.42	0.864
751.60	0.862
751.79	0.928
751.97	0.974
752.15	0.973
752.33	0.943
752.51	1.001
752.69	1.016
752.88	0.982
753.06	1.022
753.24	0.995
753.42	1.036
753.60	1.186
753.78	1.060
753.97	1.075
754.15	1.090
754.33	1.120
754.51	1.000
754.69	0.983
754.87	1.013
755.06	0.947
755.24	0.954
755.42	0.957
755.60	0.866
755.78	0.871
755.96	0.822
756.15	0.825
756.33	0.832
756.51	0.852
756.69	0.838
756.87	0.805
757.05	0.826
757.23	0.808
757.42	0.778
757.60	0.778
757.78	0.767
757.96	0.765
758.14	0.745
758.32	0.730
758.50	0.743
758.69	0.743
758.87	0.736
759.05	0.740
759.23	0.751
759.41	0.749
759.59	0.740
759.77	0.761
759.95	0.787
760.13	0.837
760.32	0.836
760.50	0.829
760.68	0.853
760.86	0.854
761.04	0.826
761.22	0.827
761.40	0.875
761.58	0.875
761.76	0.847
761.95	0.831
762.13	0.788
762.31	0.789
762.49	0.757
762.67	0.772
762.85	0.785
763.03	0.781
763.21	0.763
763.39	0.746
763.57	0.753
763.75	0.750
763.94	0.734
764.12	0.737
764.30	0.761
764.48	0.767
764.66	0.731
764.84	0.728
765.02	0.765
765.20	0.773
765.38	0.752
765.56	0.756
765.74	0.795
765.92	0.800
766.10	0.806
766.28	0.798
766.46	0.827
766.65	0.829
766.83	0.818
767.01	0.802
767.19	0.809
767.37	0.808
767.55	0.790
767.73	0.768
767.91	0.767
768.09	0.755
768.27	0.743
768.45	0.733
768.63	0.739
768.81	0.741
768.99	0.716
769.17	0.737
769.35	0.749
769.53	0.751
769.71	0.732
769.89	0.743
770.07	0.747
770.25	0.731
770.43	0.709
770.61	0.730
770.79	0.736
770.97	0.745
771.15	0.719
771.33	0.721
771.51	0.724
771.69	0.735
771.87	0.743
772.05	0.750
772.24	0.763
772.42	0.776
772.60	0.754
772.78	0.814
772.96	0.841
773.14	0.836
773.32	0.817
773.49	0.823
773.67	0.822
773.85	0.801
774.03	0.788
774.21	0.815
774.39	0.824
774.57	0.846
774.75	0.774
774.93	0.770
775.11	0.793
775.29	0.797
775.47	0.797
775.65	0.806
775.83	0.822
776.01	0.845
776.19	0.797
776.37	0.799
776.55	0.797
776.73	0.795
776.91	0.789
777.09	0.771
777.27	0.770
777.45	0.761
777.63	0.737
777.81	0.734
777.99	0.724
778.17	0.725
778.35	0.704
778.53	0.693
778.71	0.697
778.89	0.685
779.07	0.675
779.24	0.681
779.42	0.682
779.60	0.703
779.78	0.697
779.96	0.699
780.14	0.707
780.32	0.728
780.50	0.713
780.68	0.715
780.86	0.707
781.04	0.723
781.22	0.728
781.40	0.740
781.58	0.731
781.75	0.723
781.93	0.707
782.11	0.706
782.29	0.692
782.47	0.690
782.65	0.679
782.83	0.709
783.01	0.706
783.19	0.697
783.37	0.683
783.55	0.685
783.72	0.704
783.90	0.717
784.08	0.708
784.26	0.717
784.44	0.739
784.62	0.741
784.80	0.708
784.98	0.712
785.16	0.718
785.33	0.730
785.51	0.715
785.69	0.702
785.87	0.700
786.05	0.712
786.23	0.708
786.41	0.705
786.59	0.712
786.77	0.712
786.94	0.699
787.12	0.702
787.30	0.704
787.48	0.702
787.66	0.691
787.84	0.691
788.02	0.682
788.19	0.680
788.37	0.666
788.55	0.665
788.73	0.666
788.91	0.660
789.09	0.645
789.27	0.635
789.44	0.647
789.62	0.654
789.80	0.663
789.98	0.686
790.16	0.673
790.34	0.671
790.51	0.660
790.69	0.678
790.87	0.685
791.05	0.681
791.23	0.675
791.41	0.676
791.58	0.682
791.76	0.661
791.94	0.633
792.12	0.643
792.30	0.645
792.48	0.643
792.65	0.637
792.83	0.644
793.01	0.652
793.19	0.650
793.37	0.635
793.54	0.633
793.72	0.645
793.90	0.643
794.08	0.632
794.26	0.635
794.43	0.643
794.61	0.628
794.79	0.616
794.97	0.615
795.15	0.620
795.32	0.622
795.50	0.612
795.68	0.606
795.86	0.611
796.04	0.612
796.21	0.605
796.39	0.603
796.57	0.617
796.75	0.626
796.92	0.626
797.10	0.630
797.28	0.634
797.46	0.635
797.64	0.638
797.81	0.646
797.99	0.652
798.17	0.656
798.35	0.651
798.52	0.654
798.70	0.649
798.88	0.657
799.06	0.655
799.23	0.658
799.41	0.667
799.59	0.659
799.77	0.647
799.94	0.653
800.12	0.663
800.30	0.678
800.48	0.675
800.65	0.675
800.83	0.664
801.01	0.657
801.19	0.658
801.36	0.654
801.54	0.657
801.72	0.667
801.90	0.655
802.07	0.650
802.25	0.637
802.43	0.622
802.60	0.619
802.78	0.626
802.96	0.632
803.14	0.624
803.31	0.622
803.49	0.622
803.67	0.619
803.84	0.622
804.02	0.613
804.20	0.616
804.38	0.623
804.55	0.620
804.73	0.608
804.91	0.606
805.08	0.618
805.26	0.615
805.44	0.678
805.61	0.681
805.79	0.680
805.97	0.680
806.15	0.673
806.32	0.668
806.50	0.675
806.68	0.675
806.85	0.667
807.03	0.657
807.21	0.675
807.38	0.609
807.56	0.598
807.74	0.608
807.91	0.615
808.09	0.616
808.27	0.633
808.44	0.660
808.62	0.669
808.80	0.671
808.97	0.667
809.15	0.661
809.33	0.678
809.50	0.685
809.68	0.672
809.86	0.679
810.03	0.711
810.21	0.691
810.39	0.672
810.56	0.678
810.74	0.702
810.91	0.772
811.09	0.761
811.27	0.782
811.44	0.788
811.62	0.789
811.80	0.773
811.97	0.744
812.15	0.744
812.33	0.739
812.50	0.724
812.68	0.711
812.85	0.656
813.03	0.657
813.21	0.624
813.38	0.618
813.56	0.621
813.74	0.630
813.91	0.635
814.09	0.665
814.26	0.659
814.44	0.660
814.62	0.651
814.79	0.656
814.97	0.661
815.14	0.664
815.32	0.674
815.50	0.690
815.67	0.692
815.85	0.685
816.02	0.674
816.20	0.680
816.38	0.697
816.55	0.702
816.73	0.700
816.90	0.709
817.08	0.740
817.26	0.737
817.43	0.717
817.61	0.742
817.78	0.760
817.96	0.739
818.13	0.729
818.31	0.730
818.49	0.742
818.66	0.734
818.84	0.722
819.01	0.700
819.19	0.707
819.36	0.709
819.54	0.680
819.71	0.720
819.89	0.736
820.07	0.748
820.24	0.740
820.42	0.740
820.59	0.761
820.77	0.783
820.94	0.776
821.12	0.795
821.29	0.810
821.47	0.810
821.64	0.747
821.82	0.759
822.00	0.757
822.17	0.754
822.35	0.743
822.52	0.743
822.70	0.735
822.87	0.744
823.05	0.721
823.22	0.734
823.40	0.757
823.57	0.780
823.75	0.756
823.92	0.781
824.10	0.801
824.27	0.845
824.45	0.834
824.62	0.888
824.80	0.902
824.97	0.916
825.15	0.903
825.32	0.923
825.50	0.924
825.67	0.942
825.85	0.916
826.02	0.929
826.20	0.950
826.37	1.064
826.55	0.983
826.72	1.160
826.90	1.232
827.07	1.274
827.25	1.207
827.42	1.350
827.60	1.500
827.77	1.666
827.95	1.623
828.12	1.699
828.30	1.383
828.47	1.504
828.65	1.172
828.82	1.214
829.00	1.281
829.17	1.343
829.34	1.335
829.52	1.341
829.69	-0.000
829.87	-0.000
830.04	-0.000
830.22	-0.000
830.39	-0.000
830.57	-0.000
830.74	-0.000
830.92	-0.000
831.09	-0.000
831.26	-0.000
831.44	-0.000
831.61	-0.000
831.79	-0.000
831.96	-0.000
832.14	-0.000
832.31	-0.000
832.49	-0.000
832.66	-0.000
832.83	-0.000
833.01	-0.000
833.18	-0.000
833.36	-0.000
833.53	-0.000
833.70	-0.000
833.88	-0.000
834.05	-0.000
834.23	-0.000
834.40	-0.000
834.58	-0.000
834.75	-0.000
834.92	-0.000
835.10	-0.000
835.27	-0.000
835.45	-0.000
835.62	-0.000
835.79	-0.000
835.97	-0.000
836.14	-0.000
836.32	-0.000
836.49	-0.000
836.66	-0.000
836.84	-0.000
837.01	-0.000
837.18	-0.000
837.36	-0.000
837.53	-0.000
837.71	-0.000
837.88	-0.000
838.05	-0.000
838.23	-0.000
838.40	-0.000
838.58	-0.000
838.75	-0.000
838.92	-0.000
839.10	-0.000
839.27	-0.000
839.44	-0.000
839.62	-0.000
839.79	-0.000
839.96	-0.000
840.14	-0.000
840.31	-0.000
840.48	-0.000
840.66	-0.000
840.83	-0.000
841.01	-0.000
841.18	-0.000
841.35	-0.000
841.53	-0.000
841.70	-0.000
841.87	-0.000
842.05	-0.000
842.22	-0.000
842.39	-0.000
842.57	-0.000
842.74	-0.000
842.91	-0.000
843.09	-0.000
843.26	-0.000
843.43	-0.000
843.60	-0.000
843.78	-0.000
843.95	-0.000
844.12	-0.000
844.30	-0.000
844.47	-0.000
844.64	-0.000
844.82	-0.000
844.99	-0.000
845.16	-0.000
845.34	-0.000
845.51	-0.000
845.68	-0.000
845.85	-0.000
846.03	-0.000
846.20	-0.000
846.37	-0.000
846.55	-0.000
846.72	-0.000
846.89	-0.000
847.06	-0.000
847.24	-0.000
847.41	-0.000
847.58	-0.000
847.76	-0.000
847.93	-0.000
848.10	-0.000
848.27	-0.000
848.45	-0.000
848.62	-0.000
848.79	-0.000
848.97	-0.000
849.14	-0.000
849.31	-0.000
849.48	-0.000
849.66	-0.000
849.83	-0.000
850.00	-0.000
850.17	-0.000
850.35	-0.000
850.52	-0.000
850.69	-0.000
850.86	-0.000
851.04	-0.000
851.21	-0.000
851.38	-0.000
851.55	-0.000
851.72	-0.000
851.90	-0.000
852.07	-0.000
852.24	-0.000
852.41	-0.000
852.59	-0.000
852.76	-0.000
852.93	-0.000
853.10	-0.000
853.28	-0.000
853.45	-0.000
853.62	-0.000
853.79	-0.000
853.96	-0.000
854.14	-0.000
854.31	-0.000
854.48	-0.000
854.65	-0.000
854.82	-0.000
855.00	-0.000
855.17	-0.000
855.34	-0.000
855.51	-0.000
855.68	-0.000
855.86	-0.000
856.03	-0.000
856.20	-0.000
856.37	-0.000
856.54	-0.000
856.72	-0.000
856.89	-0.000
857.06	-0.000
857.23	-0.000
857.40	-0.000
857.57	-0.000
857.75	-0.000
857.92	-0.000
858.09	-0.000
858.26	-0.000
858.43	-0.000
858.60	-0.000
858.78	-0.000
858.95	-0.000
859.12	-0.000
859.29	-0.000
859.46	-0.000
859.63	-0.000
859.81	-0.000
859.98	-0.000
860.15	-0.000
860.32	-0.000
860.49	-0.000
860.66	-0.000
860.83	-0.000
861.01	-0.000
861.18	-0.000
861.35	-0.000
861.52	-0.000
861.69	-0.000
861.86	-0.000
862.03	-0.000
862.21	-0.000
862.38	-0.000
862.55	-0.000
862.72	-0.000
862.89	-0.000
863.06	-0.000
863.23	-0.000
863.40	-0.000
863.58	-0.000
863.75	-0.000
863.92	-0.000
864.09	-0.000
864.26	-0.000
864.43	-0.000
864.60	-0.000
864.77	-0.000
864.94	-0.000
865.11	-0.000
865.29	-0.000
865.46	-0.000
865.63	-0.000
865.80	-0.000
865.97	-0.000
866.14	-0.000
866.31	-0.000
866.48	-0.000
866.65	-0.000
866.82	-0.000
866.99	-0.000
867.16	-0.000
867.34	-0.000
867.51	-0.000
867.68	-0.000
867.85	-0.000
868.02	-0.000
868.19	-0.000
868.36	-0.000
868.53	-0.000
868.70	-0.000
868.87	-0.000
869.04	-0.000
869.21	-0.000
869.38	-0.000
869.55	-0.000
869.72	-0.000
869.89	-0.000
870.06	-0.000
870.24	-0.000
870.41	-0.000
870.58	-0.000
870.75	-0.000
870.92	-0.000
871.09	-0.000
871.26	-0.000
871.43	-0.000
871.60	-0.000
871.77	-0.000
871.94	-0.000
872.11	-0.000
872.28	-0.000
872.45	-0.000
872.62	-0.000
872.79	-0.000
872.96	-0.000
873.13	-0.000
873.30	-0.000
873.47	-0.000
873.64	-0.000
873.81	-0.000
873.98	-0.000
874.15	-0.000
874.32	-0.000
874.49	-0.000
874.66	-0.000
874.83	-0.000
875.00	-0.000
875.17	-0.000
875.34	-0.000
875.51	-0.000
875.68	-0.000
875.85	-0.000
876.02	-0.000
876.19	-0.000
876.36	-0.000
876.53	-0.000
876.70	-0.000
876.87	-0.000
877.04	-0.000
877.21	-0.000
877.38	-0.000
877.55	-0.000
877.72	-0.000
877.89	-0.000
878.06	-0.000
878.23	-0.000
878.39	-0.000
878.56	-0.000
878.73	-0.000
878.90	-0.000
879.07	-0.000
879.24	-0.000
879.41	-0.000
879.58	-0.000
879.75	-0.000
879.92	-0.000
880.09	-0.000
880.26	-0.000
880.43	-0.000
880.60	-0.000
880.77	-0.000
880.94	-0.000
881.11	-0.000
881.27	-0.000
881.44	-0.000
881.61	-0.000
881.78	-0.000
881.95	-0.000
882.12	-0.000
882.29	-0.000
882.46	-0.000
882.63	-0.000
882.80	-0.000
882.97	-0.000
883.14	-0.000
883.30	-0.000
883.47	-0.000
883.64	-0.000
883.81	-0.000
883.98	-0.000
884.15	-0.000
884.32	-0.000
884.49	-0.000
884.66	-0.000
884.82	-0.000
884.99	-0.000
885.16	-0.000
885.33	-0.000
885.50	-0.000
885.67	-0.000
885.84	-0.000
886.01	-0.000
886.17	-0.000
886.34	-0.000
886.51	-0.000
886.68	-0.000
886.85	-0.000
887.02	-0.000
887.19	-0.000
887.36	-0.000
887.52	-0.000
887.69	-0.000
887.86	-0.000
888.03	-0.000
888.20	-0.000
888.37	-0.000
888.54	-0.000
888.70	-0.000
888.87	-0.000
889.04	-0.000
889.21	-0.000
889.38	-0.000
889.55	-0.000
889.71	-0.000
889.88	-0.000
890.05	-0.000
890.22	-0.000
890.39	-0.000
>>>>>End Processed Spectral Data<<<<<
