SpectraSuite Data File
++++++++++++++++++++++++++++++++++++
Date: Fri Jun 19 12:45:56 CEST 2015
User: introlabs
Dark Spectrum Present: Yes
Reference Spectrum Present: Yes
Number of Sampled Component Spectra: 1
Spectrometers: USB4H08886
Integration Time (usec): 745692 (USB4H08886)
Spectra Averaged: 5 (USB4H08886)
Boxcar Smoothing: 5 (USB4H08886)
Correct for Electrical Dark: Yes (USB4H08886)
Strobe/Lamp Enabled: No (USB4H08886)
Correct for Detector Non-linearity: Yes (USB4H08886)
Correct for Stray Light: Yes (USB4H08886)
Number of Pixels in Processed Spectrum: 3648
>>>>>Begin Processed Spectral Data<<<<<
178.14	-0.000
178.36	-0.000
178.57	-0.000
178.79	-0.000
179.01	-0.000
179.22	-0.000
179.44	-0.000
179.65	-0.000
179.87	-0.000
180.08	-0.000
180.30	-0.000
180.52	-0.000
180.73	-0.000
180.95	-0.000
181.16	-0.000
181.38	-0.000
181.59	-0.000
181.81	-0.000
182.03	-0.000
182.24	-0.000
182.46	-0.000
182.67	-0.000
182.89	-0.000
183.10	-0.000
183.32	-0.000
183.54	-0.000
183.75	-0.000
183.97	-0.000
184.18	-0.000
184.40	-0.000
184.61	-0.000
184.83	-0.000
185.04	-0.000
185.26	-0.000
185.48	-0.000
185.69	-0.000
185.91	-0.000
186.12	-0.000
186.34	-0.000
186.55	-0.000
186.77	-0.000
186.98	-0.000
187.20	-0.000
187.42	-0.000
187.63	-0.000
187.85	-0.000
188.06	-0.000
188.28	-0.000
188.49	-0.000
188.71	-0.000
188.92	-0.000
189.14	-0.000
189.36	-0.000
189.57	-0.000
189.79	-0.000
190.00	-0.000
190.22	-0.000
190.43	-0.000
190.65	-0.000
190.86	-0.000
191.08	-0.000
191.29	-0.000
191.51	-0.000
191.72	-0.000
191.94	-0.000
192.16	-0.000
192.37	-0.000
192.59	-0.000
192.80	-0.000
193.02	-0.000
193.23	-0.000
193.45	-0.000
193.66	-0.000
193.88	-0.000
194.09	-0.000
194.31	-0.000
194.52	-0.000
194.74	-0.000
194.95	-0.000
195.17	-0.000
195.38	-0.000
195.60	-0.000
195.81	-0.000
196.03	-0.000
196.25	-0.000
196.46	-0.000
196.68	-0.000
196.89	-0.000
197.11	-0.000
197.32	-0.000
197.54	-0.000
197.75	-0.000
197.97	-0.000
198.18	-0.000
198.40	-0.000
198.61	-0.000
198.83	-0.000
199.04	-0.000
199.26	-0.000
199.47	-0.000
199.69	-0.000
199.90	-0.000
200.12	-0.000
200.33	-0.000
200.55	-0.000
200.76	-0.000
200.98	-0.000
201.19	-0.000
201.41	-0.000
201.62	-0.000
201.84	-0.000
202.05	-0.000
202.27	-0.000
202.48	-0.000
202.70	-0.000
202.91	-0.000
203.13	-0.000
203.34	-0.000
203.56	-0.000
203.77	-0.000
203.99	-0.000
204.20	-0.000
204.42	-0.000
204.63	-0.000
204.85	-0.000
205.06	-0.000
205.28	-0.000
205.49	-0.000
205.71	-0.000
205.92	-0.000
206.14	-0.000
206.35	-0.000
206.56	-0.000
206.78	-0.000
206.99	-0.000
207.21	-0.000
207.42	-0.000
207.64	-0.000
207.85	-0.000
208.07	-0.000
208.28	-0.000
208.50	-0.000
208.71	-0.000
208.93	-0.000
209.14	-0.000
209.36	-0.000
209.57	-0.000
209.79	-0.000
210.00	-0.000
210.22	-0.000
210.43	-0.000
210.64	-0.000
210.86	-0.000
211.07	-0.000
211.29	-0.000
211.50	-0.000
211.72	-0.000
211.93	-0.000
212.15	-0.000
212.36	-0.000
212.58	-0.000
212.79	-0.000
213.01	-0.000
213.22	-0.000
213.43	-0.000
213.65	-0.000
213.86	-0.000
214.08	-0.000
214.29	-0.000
214.51	-0.000
214.72	-0.000
214.94	-0.000
215.15	-0.000
215.36	-0.000
215.58	-0.000
215.79	-0.000
216.01	-0.000
216.22	-0.000
216.44	-0.000
216.65	-0.000
216.87	-0.000
217.08	-0.000
217.29	-0.000
217.51	-0.000
217.72	-0.000
217.94	-0.000
218.15	-0.000
218.37	-0.000
218.58	-0.000
218.80	-0.000
219.01	-0.000
219.22	-0.000
219.44	-0.000
219.65	-0.000
219.87	-0.000
220.08	-0.000
220.30	-0.000
220.51	-0.000
220.72	-0.000
220.94	-0.000
221.15	-0.000
221.37	-0.000
221.58	-0.000
221.79	-0.000
222.01	-0.000
222.22	-0.000
222.44	-0.000
222.65	-0.000
222.87	-0.000
223.08	-0.000
223.29	-0.000
223.51	-0.000
223.72	-0.000
223.94	-0.000
224.15	-0.000
224.36	-0.000
224.58	-0.000
224.79	-0.000
225.01	-0.000
225.22	-0.000
225.44	-0.000
225.65	-0.000
225.86	-0.000
226.08	-0.000
226.29	-0.000
226.51	-0.000
226.72	-0.000
226.93	-0.000
227.15	-0.000
227.36	-0.000
227.58	-0.000
227.79	-0.000
228.00	-0.000
228.22	-0.000
228.43	-0.000
228.65	-0.000
228.86	-0.000
229.07	-0.000
229.29	-0.000
229.50	-0.000
229.72	-0.000
229.93	-0.000
230.14	-0.000
230.36	-0.000
230.57	-0.000
230.78	-0.000
231.00	-0.000
231.21	-0.000
231.43	-0.000
231.64	-0.000
231.85	-0.000
232.07	-0.000
232.28	-0.000
232.50	-0.000
232.71	-0.000
232.92	-0.000
233.14	-0.000
233.35	-0.000
233.56	-0.000
233.78	-0.000
233.99	-0.000
234.21	-0.000
234.42	-0.000
234.63	-0.000
234.85	-0.000
235.06	-0.000
235.27	-0.000
235.49	-0.000
235.70	-0.000
235.91	-0.000
236.13	-0.000
236.34	-0.000
236.56	-0.000
236.77	-0.000
236.98	-0.000
237.20	-0.000
237.41	-0.000
237.62	-0.000
237.84	-0.000
238.05	-0.000
238.26	-0.000
238.48	-0.000
238.69	-0.000
238.91	-0.000
239.12	-0.000
239.33	-0.000
239.55	-0.000
239.76	-0.000
239.97	-0.000
240.19	-0.000
240.40	-0.000
240.61	-0.000
240.83	-0.000
241.04	-0.000
241.25	-0.000
241.47	-0.000
241.68	-0.000
241.89	-0.000
242.11	-0.000
242.32	-0.000
242.53	-0.000
242.75	-0.000
242.96	-0.000
243.17	-0.000
243.39	-0.000
243.60	-0.000
243.81	-0.000
244.03	-0.000
244.24	-0.000
244.45	-0.000
244.67	-0.000
244.88	-0.000
245.09	-0.000
245.31	-0.000
245.52	-0.000
245.73	-0.000
245.95	-0.000
246.16	-0.000
246.37	-0.000
246.59	-0.000
246.80	-0.000
247.01	-0.000
247.23	-0.000
247.44	-0.000
247.65	-0.000
247.87	-0.000
248.08	-0.000
248.29	-0.000
248.51	-0.000
248.72	-0.000
248.93	-0.000
249.15	-0.000
249.36	-0.000
249.57	-0.000
249.78	-0.000
250.00	-0.000
250.21	-0.000
250.42	-0.000
250.64	-0.000
250.85	-0.000
251.06	-0.000
251.28	-0.000
251.49	-0.000
251.70	-0.000
251.92	-0.000
252.13	-0.000
252.34	-0.000
252.55	-0.000
252.77	-0.000
252.98	-0.000
253.19	-0.000
253.41	-0.000
253.62	-0.000
253.83	-0.000
254.05	-0.000
254.26	-0.000
254.47	-0.000
254.68	-0.000
254.90	-0.000
255.11	-0.000
255.32	-0.000
255.54	-0.000
255.75	-0.000
255.96	-0.000
256.17	-0.000
256.39	-0.000
256.60	-0.000
256.81	-0.000
257.03	-0.000
257.24	-0.000
257.45	-0.000
257.66	-0.000
257.88	-0.000
258.09	-0.000
258.30	-0.000
258.51	-0.000
258.73	-0.000
258.94	-0.000
259.15	-0.000
259.37	-0.000
259.58	-0.000
259.79	-0.000
260.00	-0.000
260.22	-0.000
260.43	-0.000
260.64	-0.000
260.85	-0.000
261.07	-0.000
261.28	-0.000
261.49	-0.000
261.71	-0.000
261.92	-0.000
262.13	-0.000
262.34	-0.000
262.56	-0.000
262.77	-0.000
262.98	-0.000
263.19	-0.000
263.41	-0.000
263.62	-0.000
263.83	-0.000
264.04	-0.000
264.26	-0.000
264.47	-0.000
264.68	-0.000
264.89	-0.000
265.11	-0.000
265.32	-0.000
265.53	-0.000
265.74	-0.000
265.96	-0.000
266.17	-0.000
266.38	-0.000
266.59	-0.000
266.81	-0.000
267.02	-0.000
267.23	-0.000
267.44	-0.000
267.65	-0.000
267.87	-0.000
268.08	-0.000
268.29	-0.000
268.50	-0.000
268.72	-0.000
268.93	-0.000
269.14	-0.000
269.35	-0.000
269.57	-0.000
269.78	-0.000
269.99	-0.000
270.20	-0.000
270.41	-0.000
270.63	-0.000
270.84	-0.000
271.05	-0.000
271.26	-0.000
271.48	-0.000
271.69	-0.000
271.90	-0.000
272.11	-0.000
272.32	-0.000
272.54	-0.000
272.75	-0.000
272.96	-0.000
273.17	-0.000
273.39	-0.000
273.60	-0.000
273.81	-0.000
274.02	-0.000
274.23	-0.000
274.45	-0.000
274.66	-0.000
274.87	-0.000
275.08	-0.000
275.29	-0.000
275.51	-0.000
275.72	-0.000
275.93	-0.000
276.14	-0.000
276.35	-0.000
276.57	-0.000
276.78	-0.000
276.99	-0.000
277.20	-0.000
277.41	-0.000
277.63	-0.000
277.84	-0.000
278.05	-0.000
278.26	-0.000
278.47	-0.000
278.69	-0.000
278.90	-0.000
279.11	-0.000
279.32	-0.000
279.53	-0.000
279.74	-0.000
279.96	-0.000
280.17	-0.000
280.38	-0.000
280.59	-0.000
280.80	-0.000
281.02	-0.000
281.23	-0.000
281.44	-0.000
281.65	-0.000
281.86	-0.000
282.07	-0.000
282.29	-0.000
282.50	-0.000
282.71	-0.000
282.92	-0.000
283.13	-0.000
283.35	-0.000
283.56	-0.000
283.77	-0.000
283.98	-0.000
284.19	-0.000
284.40	-0.000
284.62	-0.000
284.83	-0.000
285.04	-0.000
285.25	-0.000
285.46	-0.000
285.67	-0.000
285.88	-0.000
286.10	-0.000
286.31	-0.000
286.52	-0.000
286.73	-0.000
286.94	-0.000
287.15	-0.000
287.37	-0.000
287.58	-0.000
287.79	-0.000
288.00	-0.000
288.21	-0.000
288.42	-0.000
288.63	-0.000
288.85	-0.000
289.06	-0.000
289.27	-0.000
289.48	-0.000
289.69	-0.000
289.90	-0.000
290.11	-0.000
290.33	-0.000
290.54	-0.000
290.75	-0.000
290.96	-0.000
291.17	-0.000
291.38	-0.000
291.59	-0.000
291.81	-0.000
292.02	-0.000
292.23	-0.000
292.44	-0.000
292.65	-0.000
292.86	-0.000
293.07	-0.000
293.28	-0.000
293.50	-0.000
293.71	-0.000
293.92	-0.000
294.13	-0.000
294.34	-0.000
294.55	-0.000
294.76	-0.000
294.97	-0.000
295.19	-0.000
295.40	-0.000
295.61	-0.000
295.82	-0.000
296.03	-0.000
296.24	-0.000
296.45	2.772
296.66	1.904
296.87	1.947
297.09	2.103
297.30	2.559
297.51	1.832
297.72	1.789
297.93	1.937
298.14	1.895
298.35	1.818
298.56	1.772
298.77	1.980
298.99	1.950
299.20	1.867
299.41	1.843
299.62	1.792
299.83	1.770
300.04	1.659
300.25	1.647
300.46	1.714
300.67	1.677
300.88	1.605
301.10	1.606
301.31	1.709
301.52	1.628
301.73	1.540
301.94	1.539
302.15	1.571
302.36	1.524
302.57	1.443
302.78	1.443
302.99	1.494
303.20	1.505
303.41	1.402
303.63	1.378
303.84	1.390
304.05	1.391
304.26	1.328
304.47	1.337
304.68	1.345
304.89	1.336
305.10	1.289
305.31	1.277
305.52	1.324
305.73	1.315
305.94	1.269
306.15	1.260
306.37	1.283
306.58	1.288
306.79	1.246
307.00	1.266
307.21	1.307
307.42	1.300
307.63	1.256
307.84	1.225
308.05	1.263
308.26	1.261
308.47	1.234
308.68	1.228
308.89	1.230
309.10	1.230
309.31	1.187
309.52	1.176
309.73	1.192
309.95	1.187
310.16	1.157
310.37	1.146
310.58	1.166
310.79	1.166
311.00	1.162
311.21	1.163
311.42	1.168
311.63	1.161
311.84	1.142
312.05	1.140
312.26	1.168
312.47	1.176
312.68	1.149
312.89	1.135
313.10	1.142
313.31	1.117
313.52	1.115
313.73	1.117
313.94	1.121
314.15	1.102
314.36	1.078
314.57	1.068
314.78	1.059
314.99	1.054
315.21	1.039
315.42	1.041
315.63	1.053
315.84	1.031
316.05	1.015
316.26	1.024
316.47	1.046
316.68	1.042
316.89	1.022
317.10	1.043
317.31	1.048
317.52	1.051
317.73	1.030
317.94	1.030
318.15	1.074
318.36	1.071
318.57	1.053
318.78	1.041
318.99	1.077
319.20	1.074
319.41	1.038
319.62	1.038
319.83	1.050
320.04	1.045
320.25	1.030
320.46	0.998
320.67	1.001
320.88	0.996
321.09	0.980
321.30	0.966
321.51	0.981
321.72	0.980
321.93	0.965
322.14	0.959
322.35	0.987
322.56	0.988
322.77	0.975
322.98	0.986
323.19	0.997
323.40	1.003
323.61	0.981
323.82	0.976
324.03	0.984
324.24	0.981
324.45	0.966
324.66	0.947
324.87	0.946
325.08	0.946
325.29	0.925
325.50	0.918
325.71	0.925
325.92	0.931
326.13	0.917
326.34	0.917
326.55	0.925
326.76	0.924
326.97	0.912
327.18	0.906
327.39	0.931
327.60	0.932
327.80	0.929
328.01	0.928
328.22	0.930
328.43	0.931
328.64	0.918
328.85	0.922
329.06	0.925
329.27	0.924
329.48	0.920
329.69	0.902
329.90	0.912
330.11	0.906
330.32	0.898
330.53	0.891
330.74	0.894
330.95	0.893
331.16	0.878
331.37	0.885
331.58	0.885
331.79	0.883
332.00	0.873
332.21	0.866
332.42	0.870
332.63	0.861
332.83	0.856
333.04	0.857
333.25	0.869
333.46	0.868
333.67	0.855
333.88	0.859
334.09	0.869
334.30	0.866
334.51	0.859
334.72	0.856
334.93	0.860
335.14	0.858
335.35	0.851
335.56	0.846
335.77	0.855
335.98	0.854
336.18	0.845
336.39	0.839
336.60	0.844
336.81	0.841
337.02	0.839
337.23	0.843
337.44	0.847
337.65	0.849
337.86	0.837
338.07	0.833
338.28	0.838
338.49	0.837
338.70	0.829
338.91	0.834
339.11	0.842
339.32	0.839
339.53	0.827
339.74	0.824
339.95	0.822
340.16	0.821
340.37	0.813
340.58	0.810
340.79	0.816
341.00	0.816
341.21	0.805
341.41	0.806
341.62	0.809
341.83	0.810
342.04	0.805
342.25	0.816
342.46	0.822
342.67	0.822
342.88	0.815
343.09	0.813
343.30	0.820
343.50	0.823
343.71	0.813
343.92	0.812
344.13	0.816
344.34	0.815
344.55	0.799
344.76	0.796
344.97	0.800
345.18	0.799
345.38	0.796
345.59	0.790
345.80	0.791
346.01	0.788
346.22	0.783
346.43	0.778
346.64	0.787
346.85	0.787
347.06	0.781
347.26	0.783
347.47	0.787
347.68	0.782
347.89	0.779
348.10	0.774
348.31	0.782
348.52	0.780
348.73	0.778
348.93	0.774
349.14	0.777
349.35	0.776
349.56	0.769
349.77	0.765
349.98	0.771
350.19	0.767
350.39	0.762
350.60	0.758
350.81	0.775
351.02	0.772
351.23	0.767
351.44	0.770
351.65	0.773
351.86	0.770
352.06	0.769
352.27	0.769
352.48	0.772
352.69	0.771
352.90	0.765
353.11	0.752
353.31	0.759
353.52	0.757
353.73	0.748
353.94	0.750
354.15	0.757
354.36	0.757
354.57	0.748
354.77	0.750
354.98	0.751
355.19	0.751
355.40	0.750
355.61	0.755
355.82	0.760
356.02	0.760
356.23	0.752
356.44	0.754
356.65	0.756
356.86	0.757
357.07	0.750
357.27	0.753
357.48	0.757
357.69	0.753
357.90	0.739
358.11	0.736
358.32	0.740
358.52	0.743
358.73	0.733
358.94	0.736
359.15	0.741
359.36	0.742
359.56	0.737
359.77	0.733
359.98	0.741
360.19	0.740
360.40	0.736
360.61	0.736
360.81	0.736
361.02	0.737
361.23	0.727
361.44	0.726
361.65	0.727
361.85	0.727
362.06	0.725
362.27	0.727
362.48	0.728
362.69	0.731
362.89	0.725
363.10	0.727
363.31	0.731
363.52	0.734
363.73	0.730
363.93	0.731
364.14	0.733
364.35	0.735
364.56	0.725
364.77	0.727
364.97	0.729
365.18	0.730
365.39	0.725
365.60	0.721
365.81	0.723
366.01	0.723
366.22	0.719
366.43	0.718
366.64	0.719
366.84	0.725
367.05	0.722
367.26	0.722
367.47	0.724
367.68	0.723
367.88	0.720
368.09	0.718
368.30	0.720
368.51	0.720
368.71	0.719
368.92	0.723
369.13	0.721
369.34	0.720
369.55	0.718
369.75	0.718
369.96	0.726
370.17	0.726
370.38	0.722
370.58	0.722
370.79	0.727
371.00	0.726
371.21	0.717
371.41	0.723
371.62	0.727
371.83	0.722
372.04	0.719
372.24	0.712
372.45	0.714
372.66	0.715
372.87	0.711
373.07	0.708
373.28	0.709
373.49	0.712
373.70	0.702
373.90	0.702
374.11	0.712
374.32	0.712
374.53	0.711
374.73	0.711
374.94	0.714
375.15	0.713
375.36	0.711
375.56	0.719
375.77	0.720
375.98	0.720
376.19	0.716
376.39	0.709
376.60	0.713
376.81	0.713
377.02	0.711
377.22	0.709
377.43	0.710
377.64	0.710
377.84	0.700
378.05	0.704
378.26	0.711
378.47	0.711
378.67	0.708
378.88	0.705
379.09	0.706
379.30	0.706
379.50	0.703
379.71	0.706
379.92	0.709
380.12	0.708
380.33	0.700
380.54	0.696
380.75	0.703
380.95	0.703
381.16	0.700
381.37	0.700
381.57	0.701
381.78	0.702
381.99	0.700
382.20	0.699
382.40	0.702
382.61	0.702
382.82	0.698
383.02	0.692
383.23	0.696
383.44	0.695
383.64	0.693
383.85	0.696
384.06	0.699
384.27	0.697
384.47	0.694
384.68	0.695
384.89	0.701
385.09	0.701
385.30	0.699
385.51	0.697
385.71	0.701
385.92	0.702
386.13	0.699
386.33	0.701
386.54	0.703
386.75	0.702
386.95	0.698
387.16	0.693
387.37	0.695
387.58	0.695
387.78	0.693
387.99	0.690
388.20	0.693
388.40	0.690
388.61	0.686
388.82	0.689
389.02	0.691
389.23	0.691
389.44	0.689
389.64	0.689
389.85	0.700
390.06	0.700
390.26	0.700
390.47	0.699
390.68	0.702
390.88	0.700
391.09	0.695
391.30	0.694
391.50	0.695
391.71	0.695
391.92	0.692
392.12	0.685
392.33	0.686
392.53	0.686
392.74	0.685
392.95	0.684
393.15	0.686
393.36	0.688
393.57	0.686
393.77	0.689
393.98	0.691
394.19	0.689
394.39	0.688
394.60	0.690
394.81	0.691
395.01	0.689
395.22	0.687
395.43	0.687
395.63	0.691
395.84	0.692
396.04	0.687
396.25	0.689
396.46	0.691
396.66	0.690
396.87	0.687
397.08	0.684
397.28	0.687
397.49	0.688
397.69	0.684
397.90	0.680
398.11	0.681
398.31	0.682
398.52	0.677
398.73	0.678
398.93	0.677
399.14	0.676
399.34	0.675
399.55	0.675
399.76	0.675
399.96	0.676
400.17	0.674
400.37	0.672
400.58	0.679
400.79	0.681
400.99	0.679
401.20	0.684
401.41	0.686
401.61	0.687
401.82	0.692
402.02	0.691
402.23	0.692
402.44	0.692
402.64	0.691
402.85	0.686
403.05	0.685
403.26	0.683
403.47	0.677
403.67	0.676
403.88	0.677
404.08	0.670
404.29	0.668
404.50	0.668
404.70	0.669
404.91	0.668
405.11	0.664
405.32	0.665
405.52	0.666
405.73	0.666
405.94	0.664
406.14	0.666
406.35	0.668
406.55	0.669
406.76	0.666
406.97	0.667
407.17	0.669
407.38	0.669
407.58	0.666
407.79	0.668
407.99	0.671
408.20	0.671
408.41	0.667
408.61	0.665
408.82	0.667
409.02	0.667
409.23	0.664
409.43	0.664
409.64	0.665
409.84	0.665
410.05	0.662
410.26	0.660
410.46	0.660
410.67	0.660
410.87	0.661
411.08	0.662
411.28	0.664
411.49	0.665
411.69	0.663
411.90	0.665
412.11	0.667
412.31	0.668
412.52	0.665
412.72	0.666
412.93	0.668
413.13	0.667
413.34	0.662
413.54	0.663
413.75	0.665
413.95	0.664
414.16	0.661
414.37	0.664
414.57	0.665
414.78	0.668
414.98	0.665
415.19	0.666
415.39	0.664
415.60	0.667
415.80	0.666
416.01	0.664
416.21	0.666
416.42	0.666
416.62	0.660
416.83	0.660
417.03	0.660
417.24	0.660
417.44	0.658
417.65	0.656
417.86	0.656
418.06	0.655
418.27	0.653
418.47	0.654
418.68	0.655
418.88	0.656
419.09	0.654
419.29	0.655
419.50	0.656
419.70	0.656
419.91	0.655
420.11	0.653
420.32	0.655
420.52	0.655
420.73	0.654
420.93	0.654
421.14	0.656
421.34	0.655
421.55	0.651
421.75	0.651
421.96	0.653
422.16	0.653
422.37	0.651
422.57	0.648
422.78	0.650
422.98	0.647
423.19	0.644
423.39	0.643
423.60	0.647
423.80	0.649
424.01	0.648
424.21	0.650
424.42	0.652
424.62	0.653
424.83	0.652
425.03	0.653
425.23	0.655
425.44	0.656
425.64	0.656
425.85	0.655
426.05	0.656
426.26	0.657
426.46	0.653
426.67	0.652
426.87	0.657
427.08	0.657
427.28	0.654
427.49	0.655
427.69	0.656
427.90	0.655
428.10	0.652
428.31	0.651
428.51	0.653
428.71	0.652
428.92	0.653
429.12	0.650
429.33	0.652
429.53	0.655
429.74	0.659
429.94	0.659
430.15	0.659
430.35	0.660
430.56	0.657
430.76	0.656
430.96	0.658
431.17	0.656
431.37	0.653
431.58	0.651
431.78	0.648
431.99	0.642
432.19	0.644
432.40	0.645
432.60	0.646
432.80	0.649
433.01	0.647
433.21	0.647
433.42	0.649
433.62	0.650
433.83	0.649
434.03	0.652
434.23	0.654
434.44	0.653
434.64	0.651
434.85	0.656
435.05	0.657
435.26	0.657
435.46	0.655
435.66	0.655
435.87	0.655
436.07	0.656
436.28	0.651
436.48	0.648
436.69	0.648
436.89	0.648
437.09	0.642
437.30	0.642
437.50	0.643
437.71	0.655
437.91	0.654
438.11	0.655
438.32	0.660
438.52	0.660
438.73	0.659
438.93	0.658
439.13	0.658
439.34	0.661
439.54	0.658
439.75	0.658
439.95	0.649
440.15	0.653
440.36	0.651
440.56	0.649
440.77	0.650
440.97	0.650
441.17	0.648
441.38	0.650
441.58	0.648
441.79	0.648
441.99	0.646
442.19	0.645
442.40	0.644
442.60	0.644
442.81	0.641
443.01	0.642
443.21	0.643
443.42	0.642
443.62	0.640
443.82	0.641
444.03	0.643
444.23	0.643
444.44	0.643
444.64	0.642
444.84	0.644
445.05	0.644
445.25	0.641
445.45	0.642
445.66	0.646
445.86	0.645
446.06	0.646
446.27	0.646
446.47	0.649
446.68	0.647
446.88	0.646
447.08	0.645
447.29	0.647
447.49	0.647
447.69	0.646
447.90	0.645
448.10	0.649
448.30	0.646
448.51	0.647
448.71	0.645
448.91	0.648
449.12	0.647
449.32	0.648
449.52	0.647
449.73	0.651
449.93	0.650
450.14	0.651
450.34	0.649
450.54	0.652
450.75	0.650
450.95	0.649
451.15	0.649
451.36	0.652
451.56	0.649
451.76	0.648
451.97	0.646
452.17	0.646
452.37	0.645
452.58	0.642
452.78	0.642
452.98	0.644
453.19	0.644
453.39	0.644
453.59	0.643
453.79	0.644
454.00	0.644
454.20	0.643
454.40	0.643
454.61	0.646
454.81	0.647
455.01	0.644
455.22	0.645
455.42	0.647
455.62	0.644
455.83	0.644
456.03	0.647
456.23	0.649
456.44	0.650
456.64	0.649
456.84	0.648
457.04	0.649
457.25	0.649
457.45	0.646
457.65	0.644
457.86	0.646
458.06	0.644
458.26	0.639
458.47	0.639
458.67	0.639
458.87	0.640
459.07	0.637
459.28	0.639
459.48	0.641
459.68	0.642
459.89	0.640
460.09	0.639
460.29	0.641
460.49	0.642
460.70	0.641
460.90	0.641
461.10	0.643
461.31	0.642
461.51	0.639
461.71	0.641
461.91	0.642
462.12	0.643
462.32	0.642
462.52	0.644
462.72	0.647
462.93	0.647
463.13	0.645
463.33	0.645
463.53	0.647
463.74	0.647
463.94	0.643
464.14	0.644
464.35	0.646
464.55	0.645
464.75	0.643
464.95	0.641
465.16	0.643
465.36	0.642
465.56	0.641
465.76	0.640
465.97	0.641
466.17	0.641
466.37	0.639
466.57	0.640
466.78	0.642
466.98	0.642
467.18	0.639
467.38	0.638
467.59	0.640
467.79	0.642
467.99	0.641
468.19	0.642
468.39	0.645
468.60	0.645
468.80	0.643
469.00	0.644
469.20	0.645
469.41	0.646
469.61	0.645
469.81	0.645
470.01	0.645
470.22	0.646
470.42	0.644
470.62	0.641
470.82	0.643
471.02	0.642
471.23	0.640
471.43	0.640
471.63	0.642
471.83	0.641
472.04	0.640
472.24	0.639
472.44	0.644
472.64	0.644
472.84	0.642
473.05	0.642
473.25	0.645
473.45	0.644
473.65	0.642
473.85	0.643
474.06	0.645
474.26	0.645
474.46	0.646
474.66	0.642
474.86	0.643
475.07	0.643
475.27	0.641
475.47	0.638
475.67	0.640
475.87	0.641
476.08	0.637
476.28	0.638
476.48	0.640
476.68	0.638
476.88	0.636
477.09	0.638
477.29	0.640
477.49	0.640
477.69	0.639
477.89	0.639
478.09	0.639
478.30	0.642
478.50	0.638
478.70	0.638
478.90	0.638
479.10	0.640
479.31	0.641
479.51	0.638
479.71	0.640
479.91	0.640
480.11	0.638
480.31	0.638
480.52	0.637
480.72	0.637
480.92	0.636
481.12	0.635
481.32	0.633
481.52	0.631
481.72	0.631
481.93	0.634
482.13	0.635
482.33	0.635
482.53	0.632
482.73	0.633
482.93	0.635
483.14	0.634
483.34	0.633
483.54	0.634
483.74	0.634
483.94	0.633
484.14	0.629
484.34	0.629
484.55	0.629
484.75	0.630
484.95	0.628
485.15	0.628
485.35	0.628
485.55	0.628
485.75	0.626
485.96	0.627
486.16	0.629
486.36	0.628
486.56	0.627
486.76	0.628
486.96	0.628
487.16	0.628
487.36	0.625
487.57	0.625
487.77	0.626
487.97	0.627
488.17	0.624
488.37	0.623
488.57	0.625
488.77	0.625
488.97	0.623
489.18	0.623
489.38	0.625
489.58	0.626
489.78	0.625
489.98	0.624
490.18	0.624
490.38	0.625
490.58	0.623
490.78	0.624
490.98	0.626
491.19	0.626
491.39	0.625
491.59	0.623
491.79	0.626
491.99	0.627
492.19	0.626
492.39	0.629
492.59	0.629
492.79	0.632
492.99	0.631
493.20	0.632
493.40	0.632
493.60	0.634
493.80	0.632
494.00	0.630
494.20	0.631
494.40	0.630
494.60	0.628
494.80	0.632
495.00	0.631
495.20	0.630
495.40	0.629
495.61	0.630
495.81	0.630
496.01	0.634
496.21	0.634
496.41	0.633
496.61	0.634
496.81	0.633
497.01	0.628
497.21	0.627
497.41	0.628
497.61	0.628
497.81	0.625
498.01	0.626
498.21	0.624
498.41	0.622
498.61	0.622
498.82	0.624
499.02	0.626
499.22	0.627
499.42	0.626
499.62	0.627
499.82	0.628
500.02	0.629
500.22	0.628
500.42	0.629
500.62	0.630
500.82	0.631
501.02	0.629
501.22	0.629
501.42	0.629
501.62	0.631
501.82	0.630
502.02	0.630
502.22	0.630
502.42	0.632
502.62	0.629
502.82	0.630
503.02	0.631
503.22	0.631
503.42	0.628
503.63	0.628
503.83	0.626
504.03	0.625
504.23	0.623
504.43	0.624
504.63	0.625
504.83	0.624
505.03	0.623
505.23	0.625
505.43	0.626
505.63	0.627
505.83	0.627
506.03	0.629
506.23	0.631
506.43	0.632
506.63	0.631
506.83	0.630
507.03	0.632
507.23	0.632
507.43	0.630
507.63	0.630
507.83	0.631
508.03	0.631
508.23	0.630
508.43	0.628
508.63	0.630
508.83	0.630
509.03	0.631
509.23	0.630
509.43	0.631
509.63	0.631
509.83	0.630
510.03	0.632
510.23	0.634
510.43	0.635
510.63	0.635
510.83	0.635
511.03	0.637
511.23	0.635
511.43	0.634
511.63	0.636
511.83	0.639
512.03	0.639
512.22	0.635
512.42	0.635
512.62	0.636
512.82	0.636
513.02	0.635
513.22	0.635
513.42	0.637
513.62	0.639
513.82	0.637
514.02	0.636
514.22	0.638
514.42	0.638
514.62	0.638
514.82	0.638
515.02	0.641
515.22	0.644
515.42	0.642
515.62	0.645
515.82	0.644
516.02	0.644
516.22	0.644
516.42	0.645
516.62	0.647
516.82	0.648
517.01	0.646
517.21	0.645
517.41	0.649
517.61	0.649
517.81	0.646
518.01	0.645
518.21	0.645
518.41	0.643
518.61	0.642
518.81	0.643
519.01	0.644
519.21	0.644
519.41	0.643
519.61	0.638
519.81	0.641
520.00	0.641
520.20	0.641
520.40	0.645
520.60	0.646
520.80	0.645
521.00	0.645
521.20	0.646
521.40	0.651
521.60	0.652
521.80	0.650
522.00	0.650
522.20	0.653
522.39	0.652
522.59	0.649
522.79	0.651
522.99	0.653
523.19	0.652
523.39	0.649
523.59	0.646
523.79	0.650
523.99	0.652
524.19	0.651
524.38	0.649
524.58	0.651
524.78	0.651
524.98	0.649
525.18	0.652
525.38	0.652
525.58	0.653
525.78	0.650
525.98	0.648
526.18	0.649
526.37	0.649
526.57	0.650
526.77	0.650
526.97	0.651
527.17	0.652
527.37	0.647
527.57	0.650
527.77	0.652
527.96	0.653
528.16	0.652
528.36	0.653
528.56	0.655
528.76	0.652
528.96	0.651
529.16	0.652
529.36	0.656
529.55	0.657
529.75	0.653
529.95	0.653
530.15	0.654
530.35	0.656
530.55	0.653
530.75	0.654
530.94	0.656
531.14	0.657
531.34	0.655
531.54	0.653
531.74	0.657
531.94	0.660
532.13	0.658
532.33	0.660
532.53	0.659
532.73	0.658
532.93	0.656
533.13	0.657
533.33	0.657
533.52	0.658
533.72	0.660
533.92	0.658
534.12	0.656
534.32	0.657
534.52	0.655
534.71	0.657
534.91	0.661
535.11	0.662
535.31	0.660
535.51	0.662
535.71	0.664
535.90	0.661
536.10	0.662
536.30	0.664
536.50	0.665
536.70	0.665
536.89	0.662
537.09	0.661
537.29	0.663
537.49	0.664
537.69	0.661
537.89	0.662
538.08	0.661
538.28	0.660
538.48	0.659
538.68	0.660
538.88	0.662
539.07	0.663
539.27	0.660
539.47	0.660
539.67	0.661
539.87	0.662
540.06	0.661
540.26	0.663
540.46	0.665
540.66	0.663
540.86	0.660
541.05	0.660
541.25	0.662
541.45	0.663
541.65	0.661
541.84	0.663
542.04	0.663
542.24	0.664
542.44	0.662
542.64	0.663
542.83	0.666
543.03	0.667
543.23	0.664
543.43	0.664
543.62	0.666
543.82	0.667
544.02	0.665
544.22	0.665
544.42	0.668
544.61	0.669
544.81	0.665
545.01	0.664
545.21	0.667
545.40	0.667
545.60	0.665
545.80	0.668
546.00	0.669
546.19	0.668
546.39	0.666
546.59	0.663
546.79	0.665
546.98	0.665
547.18	0.664
547.38	0.666
547.58	0.669
547.77	0.669
547.97	0.664
548.17	0.666
548.37	0.667
548.56	0.668
548.76	0.667
548.96	0.669
549.16	0.672
549.35	0.672
549.55	0.668
549.75	0.668
549.95	0.673
550.14	0.673
550.34	0.670
550.54	0.675
550.73	0.679
550.93	0.680
551.13	0.676
551.33	0.675
551.52	0.675
551.72	0.676
551.92	0.674
552.12	0.674
552.31	0.676
552.51	0.676
552.71	0.670
552.90	0.670
553.10	0.672
553.30	0.673
553.50	0.672
553.69	0.674
553.89	0.675
554.09	0.675
554.28	0.672
554.48	0.674
554.68	0.676
554.87	0.677
555.07	0.673
555.27	0.673
555.47	0.675
555.66	0.675
555.86	0.673
556.06	0.675
556.25	0.677
556.45	0.685
556.65	0.682
556.84	0.685
557.04	0.689
557.24	0.690
557.43	0.690
557.63	0.692
557.83	0.695
558.02	0.696
558.22	0.699
558.42	0.700
558.61	0.693
558.81	0.693
559.01	0.688
559.21	0.688
559.40	0.689
559.60	0.689
559.80	0.685
559.99	0.686
560.19	0.688
560.39	0.682
560.58	0.679
560.78	0.679
560.97	0.684
561.17	0.682
561.37	0.680
561.56	0.681
561.76	0.683
561.96	0.683
562.15	0.679
562.35	0.681
562.55	0.683
562.74	0.684
562.94	0.682
563.14	0.680
563.33	0.681
563.53	0.682
563.73	0.679
563.92	0.681
564.12	0.684
564.31	0.686
564.51	0.683
564.71	0.684
564.90	0.688
565.10	0.688
565.30	0.691
565.49	0.691
565.69	0.694
565.89	0.694
566.08	0.691
566.28	0.692
566.47	0.693
566.67	0.692
566.87	0.689
567.06	0.691
567.26	0.698
567.46	0.693
567.65	0.692
567.85	0.693
568.04	0.696
568.24	0.695
568.44	0.692
568.63	0.691
568.83	0.693
569.02	0.691
569.22	0.686
569.42	0.682
569.61	0.685
569.81	0.683
570.00	0.680
570.20	0.681
570.40	0.683
570.59	0.683
570.79	0.680
570.98	0.679
571.18	0.681
571.38	0.681
571.57	0.677
571.77	0.675
571.96	0.679
572.16	0.677
572.35	0.671
572.55	0.672
572.75	0.670
572.94	0.670
573.14	0.668
573.33	0.668
573.53	0.668
573.73	0.668
573.92	0.666
574.12	0.663
574.31	0.667
574.51	0.668
574.70	0.665
574.90	0.667
575.09	0.670
575.29	0.670
575.49	0.667
575.68	0.668
575.88	0.670
576.07	0.671
576.27	0.669
576.46	0.667
576.66	0.667
576.86	0.666
577.05	0.663
577.25	0.661
577.44	0.664
577.64	0.663
577.83	0.661
578.03	0.661
578.22	0.661
578.42	0.660
578.61	0.658
578.81	0.659
579.00	0.659
579.20	0.659
579.40	0.658
579.59	0.656
579.79	0.657
579.98	0.657
580.18	0.656
580.37	0.657
580.57	0.659
580.76	0.664
580.96	0.662
581.15	0.663
581.35	0.665
581.54	0.665
581.74	0.664
581.93	0.665
582.13	0.667
582.32	0.665
582.52	0.663
582.71	0.662
582.91	0.659
583.10	0.659
583.30	0.657
583.49	0.657
583.69	0.661
583.88	0.663
584.08	0.661
584.27	0.663
584.47	0.667
584.66	0.667
584.86	0.665
585.05	0.667
585.25	0.670
585.44	0.670
585.64	0.668
585.83	0.664
586.03	0.665
586.22	0.664
586.42	0.660
586.61	0.661
586.81	0.664
587.00	0.664
587.20	0.661
587.39	0.662
587.59	0.664
587.78	0.666
587.98	0.666
588.17	0.667
588.37	0.670
588.56	0.672
588.76	0.667
588.95	0.668
589.15	0.672
589.34	0.674
589.54	0.672
589.73	0.673
589.92	0.676
590.12	0.676
590.31	0.673
590.51	0.677
590.70	0.679
590.90	0.680
591.09	0.677
591.29	0.675
591.48	0.676
591.68	0.677
591.87	0.674
592.06	0.674
592.26	0.677
592.45	0.676
592.65	0.670
592.84	0.670
593.04	0.673
593.23	0.675
593.43	0.672
593.62	0.672
593.81	0.673
594.01	0.673
594.20	0.670
594.40	0.670
594.59	0.673
594.79	0.674
594.98	0.673
595.17	0.672
595.37	0.673
595.56	0.675
595.76	0.674
595.95	0.674
596.14	0.677
596.34	0.678
596.53	0.675
596.73	0.677
596.92	0.678
597.12	0.680
597.31	0.680
597.50	0.679
597.70	0.681
597.89	0.680
598.09	0.676
598.28	0.677
598.47	0.680
598.67	0.679
598.86	0.675
599.06	0.677
599.25	0.678
599.44	0.676
599.64	0.674
599.83	0.671
600.03	0.675
600.22	0.677
600.41	0.676
600.61	0.674
600.80	0.676
601.00	0.677
601.19	0.672
601.38	0.671
601.58	0.674
601.77	0.675
601.96	0.677
602.16	0.677
602.35	0.687
602.55	0.684
602.74	0.683
602.93	0.685
603.13	0.690
603.32	0.691
603.51	0.690
603.71	0.693
603.90	0.695
604.09	0.694
604.29	0.691
604.48	0.685
604.68	0.687
604.87	0.686
605.06	0.682
605.26	0.679
605.45	0.681
605.64	0.680
605.84	0.675
606.03	0.675
606.22	0.674
606.42	0.674
606.61	0.670
606.80	0.671
607.00	0.673
607.19	0.674
607.38	0.672
607.58	0.673
607.77	0.677
607.96	0.677
608.16	0.675
608.35	0.680
608.54	0.684
608.74	0.687
608.93	0.691
609.12	0.694
609.32	0.698
609.51	0.701
609.70	0.699
609.90	0.701
610.09	0.706
610.28	0.711
610.48	0.703
610.67	0.705
610.86	0.706
611.06	0.700
611.25	0.697
611.44	0.697
611.64	0.697
611.83	0.700
612.02	0.695
612.21	0.694
612.41	0.693
612.60	0.692
612.79	0.688
612.99	0.688
613.18	0.690
613.37	0.688
613.57	0.685
613.76	0.687
613.95	0.686
614.14	0.686
614.34	0.683
614.53	0.684
614.72	0.688
614.92	0.688
615.11	0.685
615.30	0.682
615.49	0.684
615.69	0.687
615.88	0.683
616.07	0.684
616.26	0.687
616.46	0.688
616.65	0.685
616.84	0.684
617.04	0.685
617.23	0.690
617.42	0.690
617.61	0.694
617.81	0.695
618.00	0.697
618.19	0.694
618.38	0.698
618.58	0.702
618.77	0.702
618.96	0.701
619.15	0.704
619.35	0.705
619.54	0.705
619.73	0.701
619.92	0.703
620.12	0.707
620.31	0.708
620.50	0.702
620.69	0.702
620.89	0.707
621.08	0.706
621.27	0.706
621.46	0.705
621.66	0.710
621.85	0.710
622.04	0.706
622.23	0.707
622.43	0.708
622.62	0.708
622.81	0.706
623.00	0.705
623.19	0.710
623.39	0.709
623.58	0.705
623.77	0.703
623.96	0.707
624.16	0.706
624.35	0.701
624.54	0.703
624.73	0.709
624.92	0.706
625.12	0.704
625.31	0.704
625.50	0.708
625.69	0.709
625.88	0.704
626.08	0.705
626.27	0.707
626.46	0.708
626.65	0.704
626.84	0.703
627.04	0.709
627.23	0.709
627.42	0.704
627.61	0.706
627.80	0.711
628.00	0.712
628.19	0.709
628.38	0.712
628.57	0.716
628.76	0.715
628.96	0.711
629.15	0.713
629.34	0.716
629.53	0.716
629.72	0.709
629.91	0.709
630.11	0.716
630.30	0.717
630.49	0.719
630.68	0.718
630.87	0.724
631.06	0.727
631.26	0.720
631.45	0.723
631.64	0.732
631.83	0.735
632.02	0.731
632.21	0.728
632.41	0.736
632.60	0.730
632.79	0.728
632.98	0.729
633.17	0.730
633.36	0.733
633.55	0.728
633.75	0.723
633.94	0.726
634.13	0.726
634.32	0.723
634.51	0.717
634.70	0.720
634.89	0.720
635.09	0.714
635.28	0.715
635.47	0.717
635.66	0.720
635.85	0.715
636.04	0.716
636.23	0.721
636.43	0.723
636.62	0.721
636.81	0.719
637.00	0.724
637.19	0.728
637.38	0.724
637.57	0.723
637.76	0.726
637.95	0.727
638.15	0.723
638.34	0.719
638.53	0.724
638.72	0.726
638.91	0.722
639.10	0.719
639.29	0.720
639.48	0.721
639.67	0.720
639.87	0.718
640.06	0.724
640.25	0.723
640.44	0.724
640.63	0.723
640.82	0.726
641.01	0.727
641.20	0.725
641.39	0.727
641.58	0.731
641.78	0.730
641.97	0.725
642.16	0.740
642.35	0.742
642.54	0.741
642.73	0.734
642.92	0.734
643.11	0.739
643.30	0.738
643.49	0.732
643.68	0.734
643.87	0.737
644.06	0.738
644.25	0.716
644.45	0.718
644.64	0.721
644.83	0.721
645.02	0.716
645.21	0.715
645.40	0.718
645.59	0.718
645.78	0.711
645.97	0.714
646.16	0.715
646.35	0.715
646.54	0.711
646.73	0.711
646.92	0.714
647.11	0.713
647.30	0.708
647.49	0.710
647.68	0.711
647.88	0.710
648.07	0.701
648.26	0.704
648.45	0.706
648.64	0.702
648.83	0.700
649.02	0.702
649.21	0.715
649.40	0.713
649.59	0.707
649.78	0.708
649.97	0.725
650.16	0.724
650.35	0.718
650.54	0.720
650.73	0.729
650.92	0.727
651.11	0.719
651.30	0.716
651.49	0.722
651.68	0.723
651.87	0.718
652.06	0.707
652.25	0.711
652.44	0.711
652.63	0.707
652.82	0.705
653.01	0.705
653.20	0.703
653.39	0.689
653.58	0.686
653.77	0.685
653.96	0.681
654.15	0.672
654.34	0.670
654.53	0.667
654.72	0.662
654.91	0.652
655.10	0.649
655.29	0.647
655.48	0.645
655.67	0.640
655.86	0.637
656.05	0.636
656.24	0.635
656.43	0.630
656.62	0.629
656.81	0.631
657.00	0.630
657.19	0.628
657.38	0.629
657.57	0.629
657.76	0.631
657.95	0.630
658.14	0.634
658.33	0.638
658.51	0.643
658.70	0.644
658.89	0.644
659.08	0.653
659.27	0.659
659.46	0.659
659.65	0.666
659.84	0.670
660.03	0.672
660.22	0.673
660.41	0.676
660.60	0.676
660.79	0.678
660.98	0.683
661.17	0.682
661.36	0.681
661.55	0.682
661.74	0.679
661.92	0.681
662.11	0.684
662.30	0.682
662.49	0.675
662.68	0.674
662.87	0.677
663.06	0.671
663.25	0.671
663.44	0.672
663.63	0.673
663.82	0.672
664.01	0.666
664.20	0.665
664.38	0.668
664.57	0.668
664.76	0.667
664.95	0.668
665.14	0.675
665.33	0.670
665.52	0.676
665.71	0.680
665.90	0.681
666.09	0.682
666.28	0.679
666.46	0.677
666.65	0.679
666.84	0.677
667.03	0.670
667.22	0.668
667.41	0.671
667.60	0.660
667.79	0.653
667.98	0.655
668.16	0.657
668.35	0.656
668.54	0.652
668.73	0.653
668.92	0.655
669.11	0.654
669.30	0.647
669.49	0.643
669.67	0.645
669.86	0.648
670.05	0.645
670.24	0.642
670.43	0.640
670.62	0.639
670.81	0.632
671.00	0.634
671.18	0.635
671.37	0.634
671.56	0.631
671.75	0.630
671.94	0.627
672.13	0.625
672.32	0.619
672.50	0.619
672.69	0.620
672.88	0.621
673.07	0.615
673.26	0.617
673.45	0.619
673.63	0.619
673.82	0.615
674.01	0.616
674.20	0.617
674.39	0.617
674.58	0.616
674.76	0.616
674.95	0.615
675.14	0.614
675.33	0.610
675.52	0.609
675.71	0.609
675.89	0.608
676.08	0.604
676.27	0.604
676.46	0.604
676.65	0.604
676.84	0.603
677.02	0.605
677.21	0.608
677.40	0.607
677.59	0.603
677.78	0.605
677.96	0.608
678.15	0.607
678.34	0.604
678.53	0.605
678.72	0.605
678.90	0.602
679.09	0.597
679.28	0.593
679.47	0.594
679.66	0.594
679.84	0.590
680.03	0.588
680.22	0.586
680.41	0.589
680.60	0.585
680.78	0.584
680.97	0.588
681.16	0.589
681.35	0.587
681.53	0.585
681.72	0.587
681.91	0.589
682.10	0.587
682.29	0.590
682.47	0.588
682.66	0.587
682.85	0.585
683.04	0.583
683.22	0.583
683.41	0.584
683.60	0.583
683.79	0.584
683.97	0.583
684.16	0.581
684.35	0.577
684.54	0.579
684.72	0.579
684.91	0.580
685.10	0.577
685.29	0.579
685.47	0.577
685.66	0.576
685.85	0.572
686.04	0.572
686.22	0.575
686.41	0.577
686.60	0.574
686.79	0.576
686.97	0.578
687.16	0.579
687.35	0.576
687.54	0.580
687.72	0.584
687.91	0.584
688.10	0.585
688.29	0.584
688.47	0.583
688.66	0.583
688.85	0.579
689.03	0.576
689.22	0.581
689.41	0.581
689.60	0.576
689.78	0.573
689.97	0.574
690.16	0.571
690.34	0.567
690.53	0.566
690.72	0.567
690.91	0.564
691.09	0.562
691.28	0.556
691.47	0.555
691.65	0.554
691.84	0.551
692.03	0.550
692.21	0.548
692.40	0.548
692.59	0.546
692.77	0.545
692.96	0.547
693.15	0.548
693.34	0.545
693.52	0.545
693.71	0.546
693.90	0.547
694.08	0.547
694.27	0.549
694.46	0.559
694.64	0.560
694.83	0.559
695.02	0.557
695.20	0.558
695.39	0.558
695.58	0.558
695.76	0.559
695.95	0.559
696.14	0.558
696.32	0.555
696.51	0.545
696.70	0.545
696.88	0.546
697.07	0.545
697.26	0.546
697.44	0.547
697.63	0.546
697.81	0.543
698.00	0.543
698.19	0.543
698.37	0.543
698.56	0.542
698.75	0.542
698.93	0.541
699.12	0.541
699.31	0.539
699.49	0.539
699.68	0.540
699.87	0.542
700.05	0.542
700.24	0.541
700.42	0.542
700.61	0.542
700.80	0.540
700.98	0.540
701.17	0.542
701.36	0.541
701.54	0.540
701.73	0.541
701.91	0.539
702.10	0.538
702.29	0.536
702.47	0.534
702.66	0.536
702.84	0.537
703.03	0.535
703.22	0.537
703.40	0.537
703.59	0.539
703.77	0.538
703.96	0.538
704.15	0.539
704.33	0.539
704.52	0.539
704.70	0.538
704.89	0.539
705.08	0.537
705.26	0.532
705.45	0.532
705.63	0.532
705.82	0.529
706.00	0.527
706.19	0.526
706.38	0.527
706.56	0.526
706.75	0.523
706.93	0.522
707.12	0.524
707.30	0.525
707.49	0.522
707.68	0.521
707.86	0.520
708.05	0.520
708.23	0.517
708.42	0.518
708.60	0.521
708.79	0.521
708.98	0.519
709.16	0.518
709.35	0.520
709.53	0.524
709.72	0.522
709.90	0.524
710.09	0.526
710.27	0.529
710.46	0.532
710.64	0.530
710.83	0.533
711.02	0.534
711.20	0.531
711.39	0.530
711.57	0.528
711.76	0.529
711.94	0.526
712.13	0.527
712.31	0.526
712.50	0.522
712.68	0.518
712.87	0.519
713.05	0.520
713.24	0.521
713.42	0.520
713.61	0.521
713.79	0.521
713.98	0.522
714.16	0.522
714.35	0.522
714.54	0.523
714.72	0.523
714.91	0.520
715.09	0.527
715.28	0.531
715.46	0.531
715.65	0.528
715.83	0.528
716.02	0.532
716.20	0.528
716.39	0.526
716.57	0.528
716.76	0.531
716.94	0.531
717.12	0.523
717.31	0.523
717.49	0.527
717.68	0.529
717.86	0.528
718.05	0.529
718.23	0.532
718.42	0.535
718.60	0.535
718.79	0.544
718.97	0.547
719.16	0.547
719.34	0.545
719.53	0.544
719.71	0.544
719.90	0.546
720.08	0.542
720.27	0.543
720.45	0.542
720.63	0.542
720.82	0.535
721.00	0.538
721.19	0.543
721.37	0.542
721.56	0.543
721.74	0.546
721.93	0.554
722.11	0.561
722.30	0.559
722.48	0.564
722.66	0.565
722.85	0.563
723.03	0.563
723.22	0.561
723.40	0.564
723.59	0.564
723.77	0.567
723.95	0.561
724.14	0.564
724.32	0.567
724.51	0.566
724.69	0.568
724.88	0.570
725.06	0.567
725.24	0.567
725.43	0.569
725.61	0.572
725.80	0.566
725.98	0.564
726.16	0.561
726.35	0.567
726.53	0.564
726.72	0.562
726.90	0.573
727.09	0.574
727.27	0.580
727.45	0.575
727.64	0.583
727.82	0.593
728.01	0.598
728.19	0.593
728.37	0.598
728.56	0.604
728.74	0.610
728.92	0.597
729.11	0.601
729.29	0.600
729.48	0.603
729.66	0.592
729.84	0.590
730.03	0.595
730.21	0.598
730.40	0.587
730.58	0.588
730.76	0.590
730.95	0.591
731.13	0.590
731.31	0.604
731.50	0.614
731.68	0.617
731.86	0.613
732.05	0.627
732.23	0.632
732.42	0.638
732.60	0.640
732.78	0.645
732.97	0.666
733.15	0.674
733.33	0.659
733.52	0.667
733.70	0.681
733.88	0.690
734.07	0.673
734.25	0.698
734.43	0.708
734.62	0.710
734.80	0.703
734.98	0.695
735.17	0.703
735.35	0.713
735.53	0.700
735.72	0.702
735.90	0.728
736.08	0.749
736.27	0.722
736.45	0.732
736.63	0.749
736.82	0.760
737.00	0.758
737.18	0.771
737.37	0.806
737.55	0.832
737.73	0.824
737.92	0.829
738.10	0.828
738.28	0.854
738.46	0.840
738.65	0.854
738.83	0.882
739.01	0.942
739.20	0.926
739.38	0.910
739.56	0.901
739.75	0.902
739.93	0.857
740.11	0.885
740.29	0.890
740.48	0.898
740.66	0.872
740.84	0.863
741.03	0.827
741.21	0.838
741.39	0.814
741.57	0.829
741.76	0.858
741.94	0.867
742.12	0.824
742.31	0.828
742.49	0.852
742.67	0.876
742.85	0.891
743.04	0.898
743.22	0.917
743.40	0.974
743.58	0.950
743.77	0.964
743.95	1.008
744.13	1.067
744.31	1.042
744.50	1.032
744.68	1.036
744.86	1.009
745.04	1.018
745.23	1.088
745.41	1.080
745.59	1.084
745.77	1.040
745.96	1.027
746.14	1.046
746.32	1.042
746.50	1.024
746.69	1.001
746.87	1.024
747.05	1.004
747.23	0.917
747.42	0.899
747.60	0.937
747.78	0.943
747.96	0.970
748.14	0.916
748.33	0.953
748.51	0.950
748.69	0.941
748.87	0.971
749.06	0.975
749.24	0.974
749.42	0.956
749.60	0.931
749.78	0.946
749.97	0.893
750.15	0.888
750.33	0.889
750.51	0.928
750.69	0.933
750.88	0.935
751.06	0.950
751.24	0.989
751.42	0.973
751.60	0.963
751.79	1.049
751.97	1.117
752.15	1.111
752.33	1.064
752.51	1.140
752.69	1.176
752.88	1.125
753.06	1.167
753.24	1.133
753.42	1.198
753.60	1.446
753.78	1.213
753.97	1.240
754.15	1.279
754.33	1.321
754.51	1.131
754.69	1.105
754.87	1.152
755.06	1.063
755.24	1.059
755.42	1.066
755.60	0.955
755.78	0.966
755.96	0.898
756.15	0.899
756.33	0.908
756.51	0.927
756.69	0.908
756.87	0.866
757.05	0.888
757.23	0.866
757.42	0.825
757.60	0.820
757.78	0.810
757.96	0.808
758.14	0.785
758.32	0.770
758.50	0.788
758.69	0.786
758.87	0.778
759.05	0.784
759.23	0.799
759.41	0.801
759.59	0.792
759.77	0.816
759.95	0.851
760.13	0.907
760.32	0.899
760.50	0.895
760.68	0.929
760.86	0.930
761.04	0.899
761.22	0.902
761.40	0.962
761.58	0.964
761.76	0.928
761.95	0.904
762.13	0.860
762.31	0.862
762.49	0.824
762.67	0.841
762.85	0.860
763.03	0.848
763.21	0.824
763.39	0.799
763.57	0.801
763.75	0.796
763.94	0.778
764.12	0.777
764.30	0.805
764.48	0.808
764.66	0.766
764.84	0.764
765.02	0.810
765.20	0.818
765.38	0.798
765.56	0.810
765.74	0.857
765.92	0.860
766.10	0.866
766.28	0.858
766.46	0.895
766.65	0.899
766.83	0.885
767.01	0.868
767.19	0.884
767.37	0.881
767.55	0.862
767.73	0.840
767.91	0.846
768.09	0.834
768.27	0.816
768.45	0.806
768.63	0.811
768.81	0.809
768.99	0.774
769.17	0.797
769.35	0.820
769.53	0.818
769.71	0.794
769.89	0.805
770.07	0.814
770.25	0.798
770.43	0.771
770.61	0.803
770.79	0.814
770.97	0.829
771.15	0.791
771.33	0.794
771.51	0.799
771.69	0.811
771.87	0.814
772.05	0.822
772.24	0.833
772.42	0.844
772.60	0.811
772.78	0.878
772.96	0.910
773.14	0.906
773.32	0.872
773.49	0.877
773.67	0.875
773.85	0.853
774.03	0.836
774.21	0.872
774.39	0.889
774.57	0.914
774.75	0.829
774.93	0.826
775.11	0.855
775.29	0.863
775.47	0.866
775.65	0.879
775.83	0.902
776.01	0.926
776.19	0.867
776.37	0.869
776.55	0.872
776.73	0.871
776.91	0.863
777.09	0.844
777.27	0.845
777.45	0.831
777.63	0.806
777.81	0.803
777.99	0.792
778.17	0.792
778.35	0.767
778.53	0.755
778.71	0.761
778.89	0.747
779.07	0.731
779.24	0.740
779.42	0.743
779.60	0.763
779.78	0.755
779.96	0.762
780.14	0.774
780.32	0.795
780.50	0.777
780.68	0.774
780.86	0.767
781.04	0.787
781.22	0.788
781.40	0.799
781.58	0.790
781.75	0.780
781.93	0.756
782.11	0.754
782.29	0.741
782.47	0.740
782.65	0.728
782.83	0.758
783.01	0.755
783.19	0.748
783.37	0.732
783.55	0.736
783.72	0.759
783.90	0.770
784.08	0.760
784.26	0.772
784.44	0.797
784.62	0.798
784.80	0.761
784.98	0.764
785.16	0.773
785.33	0.789
785.51	0.769
785.69	0.753
785.87	0.758
786.05	0.771
786.23	0.762
786.41	0.760
786.59	0.767
786.77	0.768
786.94	0.752
787.12	0.754
787.30	0.757
787.48	0.756
787.66	0.743
787.84	0.744
788.02	0.736
788.19	0.734
788.37	0.716
788.55	0.719
788.73	0.720
788.91	0.714
789.09	0.692
789.27	0.681
789.44	0.694
789.62	0.700
789.80	0.705
789.98	0.731
790.16	0.718
790.34	0.714
790.51	0.699
790.69	0.720
790.87	0.730
791.05	0.729
791.23	0.720
791.41	0.722
791.58	0.732
791.76	0.709
791.94	0.673
792.12	0.685
792.30	0.690
792.48	0.688
792.65	0.677
792.83	0.684
793.01	0.693
793.19	0.692
793.37	0.673
793.54	0.668
793.72	0.681
793.90	0.682
794.08	0.667
794.26	0.669
794.43	0.679
794.61	0.662
794.79	0.649
794.97	0.647
795.15	0.654
795.32	0.659
795.50	0.648
795.68	0.644
795.86	0.649
796.04	0.652
796.21	0.644
796.39	0.644
796.57	0.663
796.75	0.672
796.92	0.674
797.10	0.678
797.28	0.683
797.46	0.687
797.64	0.687
797.81	0.696
797.99	0.704
798.17	0.705
798.35	0.697
798.52	0.698
798.70	0.695
798.88	0.701
799.06	0.698
799.23	0.702
799.41	0.711
799.59	0.702
799.77	0.689
799.94	0.696
800.12	0.709
800.30	0.728
800.48	0.723
800.65	0.725
800.83	0.714
801.01	0.708
801.19	0.704
801.36	0.701
801.54	0.709
801.72	0.717
801.90	0.703
802.07	0.697
802.25	0.683
802.43	0.666
802.60	0.660
802.78	0.669
802.96	0.674
803.14	0.668
803.31	0.663
803.49	0.662
803.67	0.658
803.84	0.660
804.02	0.650
804.20	0.652
804.38	0.659
804.55	0.657
804.73	0.641
804.91	0.642
805.08	0.656
805.26	0.650
805.44	0.710
805.61	0.716
805.79	0.720
805.97	0.720
806.15	0.713
806.32	0.708
806.50	0.719
806.68	0.719
806.85	0.708
807.03	0.697
807.21	0.717
807.38	0.653
807.56	0.639
807.74	0.649
807.91	0.657
808.09	0.658
808.27	0.676
808.44	0.702
808.62	0.714
808.80	0.715
808.97	0.708
809.15	0.703
809.33	0.722
809.50	0.729
809.68	0.710
809.86	0.720
810.03	0.756
810.21	0.736
810.39	0.714
810.56	0.719
810.74	0.747
810.91	0.828
811.09	0.814
811.27	0.838
811.44	0.847
811.62	0.853
811.80	0.827
811.97	0.792
812.15	0.791
812.33	0.788
812.50	0.771
812.68	0.760
812.85	0.701
813.03	0.704
813.21	0.667
813.38	0.662
813.56	0.667
813.74	0.678
813.91	0.685
814.09	0.719
814.26	0.714
814.44	0.718
814.62	0.704
814.79	0.706
814.97	0.714
815.14	0.720
815.32	0.723
815.50	0.744
815.67	0.750
815.85	0.740
816.02	0.725
816.20	0.733
816.38	0.751
816.55	0.760
816.73	0.757
816.90	0.767
817.08	0.805
817.26	0.809
817.43	0.781
817.61	0.807
817.78	0.833
817.96	0.812
818.13	0.796
818.31	0.796
818.49	0.811
818.66	0.801
818.84	0.782
819.01	0.757
819.19	0.771
819.36	0.772
819.54	0.738
819.71	0.784
819.89	0.802
820.07	0.819
820.24	0.810
820.42	0.811
820.59	0.840
820.77	0.869
820.94	0.855
821.12	0.877
821.29	0.901
821.47	0.899
821.64	0.819
821.82	0.839
822.00	0.838
822.17	0.833
822.35	0.824
822.52	0.828
822.70	0.818
822.87	0.829
823.05	0.796
823.22	0.813
823.40	0.856
823.57	0.885
823.75	0.857
823.92	0.891
824.10	0.926
824.27	0.980
824.45	0.958
824.62	1.040
824.80	1.073
824.97	1.095
825.15	1.069
825.32	1.078
825.50	1.092
825.67	1.101
825.85	1.057
826.02	1.083
826.20	1.123
826.37	1.325
826.55	1.191
826.72	1.545
826.90	1.821
827.07	2.086
827.25	1.832
827.42	-0.000
827.60	-0.000
827.77	-0.000
827.95	-0.000
828.12	-0.000
828.30	-0.000
828.47	-0.000
828.65	1.944
828.82	2.695
829.00	-0.000
829.17	-0.000
829.34	-0.000
829.52	-0.000
829.69	-0.000
829.87	-0.000
830.04	-0.000
830.22	-0.000
830.39	-0.000
830.57	-0.000
830.74	-0.000
830.92	-0.000
831.09	-0.000
831.26	-0.000
831.44	-0.000
831.61	-0.000
831.79	-0.000
831.96	-0.000
832.14	-0.000
832.31	-0.000
832.49	-0.000
832.66	-0.000
832.83	-0.000
833.01	-0.000
833.18	-0.000
833.36	-0.000
833.53	-0.000
833.70	-0.000
833.88	-0.000
834.05	-0.000
834.23	-0.000
834.40	-0.000
834.58	-0.000
834.75	-0.000
834.92	-0.000
835.10	-0.000
835.27	-0.000
835.45	-0.000
835.62	-0.000
835.79	-0.000
835.97	-0.000
836.14	-0.000
836.32	-0.000
836.49	-0.000
836.66	-0.000
836.84	-0.000
837.01	-0.000
837.18	-0.000
837.36	-0.000
837.53	-0.000
837.71	-0.000
837.88	-0.000
838.05	-0.000
838.23	-0.000
838.40	-0.000
838.58	-0.000
838.75	-0.000
838.92	-0.000
839.10	-0.000
839.27	-0.000
839.44	-0.000
839.62	-0.000
839.79	-0.000
839.96	-0.000
840.14	-0.000
840.31	-0.000
840.48	-0.000
840.66	-0.000
840.83	-0.000
841.01	-0.000
841.18	-0.000
841.35	-0.000
841.53	-0.000
841.70	-0.000
841.87	-0.000
842.05	-0.000
842.22	-0.000
842.39	-0.000
842.57	-0.000
842.74	-0.000
842.91	-0.000
843.09	-0.000
843.26	-0.000
843.43	-0.000
843.60	-0.000
843.78	-0.000
843.95	-0.000
844.12	-0.000
844.30	-0.000
844.47	-0.000
844.64	-0.000
844.82	-0.000
844.99	-0.000
845.16	-0.000
845.34	-0.000
845.51	-0.000
845.68	-0.000
845.85	-0.000
846.03	-0.000
846.20	-0.000
846.37	-0.000
846.55	-0.000
846.72	-0.000
846.89	-0.000
847.06	-0.000
847.24	-0.000
847.41	-0.000
847.58	-0.000
847.76	-0.000
847.93	-0.000
848.10	-0.000
848.27	-0.000
848.45	-0.000
848.62	-0.000
848.79	-0.000
848.97	-0.000
849.14	-0.000
849.31	-0.000
849.48	-0.000
849.66	-0.000
849.83	-0.000
850.00	-0.000
850.17	-0.000
850.35	-0.000
850.52	-0.000
850.69	-0.000
850.86	-0.000
851.04	-0.000
851.21	-0.000
851.38	-0.000
851.55	-0.000
851.72	-0.000
851.90	-0.000
852.07	-0.000
852.24	-0.000
852.41	-0.000
852.59	-0.000
852.76	-0.000
852.93	-0.000
853.10	-0.000
853.28	-0.000
853.45	-0.000
853.62	-0.000
853.79	-0.000
853.96	-0.000
854.14	-0.000
854.31	-0.000
854.48	-0.000
854.65	-0.000
854.82	-0.000
855.00	-0.000
855.17	-0.000
855.34	-0.000
855.51	-0.000
855.68	-0.000
855.86	-0.000
856.03	-0.000
856.20	-0.000
856.37	-0.000
856.54	-0.000
856.72	-0.000
856.89	-0.000
857.06	-0.000
857.23	-0.000
857.40	-0.000
857.57	-0.000
857.75	-0.000
857.92	-0.000
858.09	-0.000
858.26	-0.000
858.43	-0.000
858.60	-0.000
858.78	-0.000
858.95	-0.000
859.12	-0.000
859.29	-0.000
859.46	-0.000
859.63	-0.000
859.81	-0.000
859.98	-0.000
860.15	-0.000
860.32	-0.000
860.49	-0.000
860.66	-0.000
860.83	-0.000
861.01	-0.000
861.18	-0.000
861.35	-0.000
861.52	-0.000
861.69	-0.000
861.86	-0.000
862.03	-0.000
862.21	-0.000
862.38	-0.000
862.55	-0.000
862.72	-0.000
862.89	-0.000
863.06	-0.000
863.23	-0.000
863.40	-0.000
863.58	-0.000
863.75	-0.000
863.92	-0.000
864.09	-0.000
864.26	-0.000
864.43	-0.000
864.60	-0.000
864.77	-0.000
864.94	-0.000
865.11	-0.000
865.29	-0.000
865.46	-0.000
865.63	-0.000
865.80	-0.000
865.97	-0.000
866.14	-0.000
866.31	-0.000
866.48	-0.000
866.65	-0.000
866.82	-0.000
866.99	-0.000
867.16	-0.000
867.34	-0.000
867.51	-0.000
867.68	-0.000
867.85	-0.000
868.02	-0.000
868.19	-0.000
868.36	-0.000
868.53	-0.000
868.70	-0.000
868.87	-0.000
869.04	-0.000
869.21	-0.000
869.38	-0.000
869.55	-0.000
869.72	-0.000
869.89	-0.000
870.06	-0.000
870.24	-0.000
870.41	-0.000
870.58	-0.000
870.75	-0.000
870.92	-0.000
871.09	-0.000
871.26	-0.000
871.43	-0.000
871.60	-0.000
871.77	-0.000
871.94	-0.000
872.11	-0.000
872.28	-0.000
872.45	-0.000
872.62	-0.000
872.79	-0.000
872.96	-0.000
873.13	-0.000
873.30	-0.000
873.47	-0.000
873.64	-0.000
873.81	-0.000
873.98	-0.000
874.15	-0.000
874.32	-0.000
874.49	-0.000
874.66	-0.000
874.83	-0.000
875.00	-0.000
875.17	-0.000
875.34	-0.000
875.51	-0.000
875.68	-0.000
875.85	-0.000
876.02	-0.000
876.19	-0.000
876.36	-0.000
876.53	-0.000
876.70	-0.000
876.87	-0.000
877.04	-0.000
877.21	-0.000
877.38	-0.000
877.55	-0.000
877.72	-0.000
877.89	-0.000
878.06	-0.000
878.23	-0.000
878.39	-0.000
878.56	-0.000
878.73	-0.000
878.90	-0.000
879.07	-0.000
879.24	-0.000
879.41	-0.000
879.58	-0.000
879.75	-0.000
879.92	-0.000
880.09	-0.000
880.26	-0.000
880.43	-0.000
880.60	-0.000
880.77	-0.000
880.94	-0.000
881.11	-0.000
881.27	-0.000
881.44	-0.000
881.61	-0.000
881.78	-0.000
881.95	-0.000
882.12	-0.000
882.29	-0.000
882.46	-0.000
882.63	-0.000
882.80	-0.000
882.97	-0.000
883.14	-0.000
883.30	-0.000
883.47	-0.000
883.64	-0.000
883.81	-0.000
883.98	-0.000
884.15	-0.000
884.32	-0.000
884.49	-0.000
884.66	-0.000
884.82	-0.000
884.99	-0.000
885.16	-0.000
885.33	-0.000
885.50	-0.000
885.67	-0.000
885.84	-0.000
886.01	-0.000
886.17	-0.000
886.34	-0.000
886.51	-0.000
886.68	-0.000
886.85	-0.000
887.02	-0.000
887.19	-0.000
887.36	-0.000
887.52	-0.000
887.69	-0.000
887.86	-0.000
888.03	-0.000
888.20	-0.000
888.37	-0.000
888.54	-0.000
888.70	-0.000
888.87	-0.000
889.04	-0.000
889.21	-0.000
889.38	-0.000
889.55	-0.000
889.71	-0.000
889.88	-0.000
890.05	-0.000
890.22	-0.000
890.39	-0.000
>>>>>End Processed Spectral Data<<<<<
