SpectraSuite Data File
++++++++++++++++++++++++++++++++++++
Date: Fri Jun 19 15:46:48 CEST 2015
User: introlabs
Dark Spectrum Present: Yes
Reference Spectrum Present: Yes
Number of Sampled Component Spectra: 1
Spectrometers: USB4H08886
Integration Time (usec): 745692 (USB4H08886)
Spectra Averaged: 5 (USB4H08886)
Boxcar Smoothing: 5 (USB4H08886)
Correct for Electrical Dark: Yes (USB4H08886)
Strobe/Lamp Enabled: No (USB4H08886)
Correct for Detector Non-linearity: Yes (USB4H08886)
Correct for Stray Light: Yes (USB4H08886)
Number of Pixels in Processed Spectrum: 3648
>>>>>Begin Processed Spectral Data<<<<<
178.14	-0.000
178.36	-0.000
178.57	-0.000
178.79	-0.000
179.01	-0.000
179.22	-0.000
179.44	-0.000
179.65	-0.000
179.87	-0.000
180.08	-0.000
180.30	-0.000
180.52	-0.000
180.73	-0.000
180.95	-0.000
181.16	-0.000
181.38	-0.000
181.59	-0.000
181.81	-0.000
182.03	-0.000
182.24	-0.000
182.46	-0.000
182.67	-0.000
182.89	-0.000
183.10	-0.000
183.32	-0.000
183.54	-0.000
183.75	-0.000
183.97	-0.000
184.18	-0.000
184.40	-0.000
184.61	-0.000
184.83	-0.000
185.04	-0.000
185.26	-0.000
185.48	-0.000
185.69	-0.000
185.91	-0.000
186.12	-0.000
186.34	-0.000
186.55	-0.000
186.77	-0.000
186.98	-0.000
187.20	-0.000
187.42	-0.000
187.63	-0.000
187.85	-0.000
188.06	-0.000
188.28	-0.000
188.49	-0.000
188.71	-0.000
188.92	-0.000
189.14	-0.000
189.36	-0.000
189.57	-0.000
189.79	-0.000
190.00	-0.000
190.22	-0.000
190.43	-0.000
190.65	-0.000
190.86	-0.000
191.08	-0.000
191.29	-0.000
191.51	-0.000
191.72	-0.000
191.94	-0.000
192.16	-0.000
192.37	-0.000
192.59	-0.000
192.80	-0.000
193.02	-0.000
193.23	-0.000
193.45	-0.000
193.66	-0.000
193.88	-0.000
194.09	-0.000
194.31	-0.000
194.52	-0.000
194.74	-0.000
194.95	-0.000
195.17	-0.000
195.38	-0.000
195.60	-0.000
195.81	-0.000
196.03	-0.000
196.25	-0.000
196.46	-0.000
196.68	-0.000
196.89	-0.000
197.11	-0.000
197.32	-0.000
197.54	-0.000
197.75	-0.000
197.97	-0.000
198.18	-0.000
198.40	-0.000
198.61	-0.000
198.83	-0.000
199.04	-0.000
199.26	-0.000
199.47	-0.000
199.69	-0.000
199.90	-0.000
200.12	-0.000
200.33	-0.000
200.55	-0.000
200.76	-0.000
200.98	-0.000
201.19	-0.000
201.41	-0.000
201.62	-0.000
201.84	-0.000
202.05	-0.000
202.27	-0.000
202.48	-0.000
202.70	-0.000
202.91	-0.000
203.13	-0.000
203.34	-0.000
203.56	-0.000
203.77	-0.000
203.99	-0.000
204.20	-0.000
204.42	-0.000
204.63	-0.000
204.85	-0.000
205.06	-0.000
205.28	-0.000
205.49	-0.000
205.71	-0.000
205.92	-0.000
206.14	-0.000
206.35	-0.000
206.56	-0.000
206.78	-0.000
206.99	-0.000
207.21	-0.000
207.42	-0.000
207.64	-0.000
207.85	-0.000
208.07	-0.000
208.28	-0.000
208.50	-0.000
208.71	-0.000
208.93	-0.000
209.14	-0.000
209.36	-0.000
209.57	-0.000
209.79	-0.000
210.00	-0.000
210.22	-0.000
210.43	-0.000
210.64	-0.000
210.86	-0.000
211.07	-0.000
211.29	-0.000
211.50	-0.000
211.72	-0.000
211.93	-0.000
212.15	-0.000
212.36	-0.000
212.58	-0.000
212.79	-0.000
213.01	-0.000
213.22	-0.000
213.43	-0.000
213.65	-0.000
213.86	-0.000
214.08	-0.000
214.29	-0.000
214.51	-0.000
214.72	-0.000
214.94	-0.000
215.15	-0.000
215.36	-0.000
215.58	-0.000
215.79	-0.000
216.01	-0.000
216.22	-0.000
216.44	-0.000
216.65	-0.000
216.87	-0.000
217.08	-0.000
217.29	-0.000
217.51	-0.000
217.72	-0.000
217.94	-0.000
218.15	-0.000
218.37	-0.000
218.58	-0.000
218.80	-0.000
219.01	-0.000
219.22	-0.000
219.44	-0.000
219.65	-0.000
219.87	-0.000
220.08	-0.000
220.30	-0.000
220.51	-0.000
220.72	-0.000
220.94	-0.000
221.15	-0.000
221.37	-0.000
221.58	-0.000
221.79	-0.000
222.01	-0.000
222.22	-0.000
222.44	-0.000
222.65	-0.000
222.87	-0.000
223.08	-0.000
223.29	-0.000
223.51	-0.000
223.72	-0.000
223.94	-0.000
224.15	-0.000
224.36	-0.000
224.58	-0.000
224.79	-0.000
225.01	-0.000
225.22	-0.000
225.44	-0.000
225.65	-0.000
225.86	-0.000
226.08	-0.000
226.29	-0.000
226.51	-0.000
226.72	-0.000
226.93	-0.000
227.15	-0.000
227.36	-0.000
227.58	-0.000
227.79	-0.000
228.00	-0.000
228.22	-0.000
228.43	-0.000
228.65	-0.000
228.86	-0.000
229.07	-0.000
229.29	-0.000
229.50	-0.000
229.72	-0.000
229.93	-0.000
230.14	-0.000
230.36	-0.000
230.57	-0.000
230.78	-0.000
231.00	-0.000
231.21	-0.000
231.43	-0.000
231.64	-0.000
231.85	-0.000
232.07	-0.000
232.28	-0.000
232.50	-0.000
232.71	-0.000
232.92	-0.000
233.14	-0.000
233.35	-0.000
233.56	-0.000
233.78	-0.000
233.99	-0.000
234.21	-0.000
234.42	-0.000
234.63	-0.000
234.85	-0.000
235.06	-0.000
235.27	-0.000
235.49	-0.000
235.70	-0.000
235.91	-0.000
236.13	-0.000
236.34	-0.000
236.56	-0.000
236.77	-0.000
236.98	-0.000
237.20	-0.000
237.41	-0.000
237.62	-0.000
237.84	-0.000
238.05	-0.000
238.26	-0.000
238.48	-0.000
238.69	-0.000
238.91	-0.000
239.12	-0.000
239.33	-0.000
239.55	-0.000
239.76	-0.000
239.97	-0.000
240.19	-0.000
240.40	-0.000
240.61	-0.000
240.83	-0.000
241.04	-0.000
241.25	-0.000
241.47	-0.000
241.68	-0.000
241.89	-0.000
242.11	-0.000
242.32	-0.000
242.53	-0.000
242.75	-0.000
242.96	-0.000
243.17	-0.000
243.39	-0.000
243.60	-0.000
243.81	-0.000
244.03	-0.000
244.24	-0.000
244.45	-0.000
244.67	-0.000
244.88	-0.000
245.09	-0.000
245.31	-0.000
245.52	-0.000
245.73	-0.000
245.95	-0.000
246.16	-0.000
246.37	-0.000
246.59	-0.000
246.80	-0.000
247.01	-0.000
247.23	-0.000
247.44	-0.000
247.65	-0.000
247.87	-0.000
248.08	-0.000
248.29	-0.000
248.51	-0.000
248.72	-0.000
248.93	-0.000
249.15	-0.000
249.36	-0.000
249.57	-0.000
249.78	-0.000
250.00	-0.000
250.21	-0.000
250.42	-0.000
250.64	-0.000
250.85	-0.000
251.06	-0.000
251.28	-0.000
251.49	-0.000
251.70	-0.000
251.92	-0.000
252.13	-0.000
252.34	-0.000
252.55	-0.000
252.77	-0.000
252.98	-0.000
253.19	-0.000
253.41	-0.000
253.62	-0.000
253.83	-0.000
254.05	-0.000
254.26	-0.000
254.47	-0.000
254.68	-0.000
254.90	-0.000
255.11	-0.000
255.32	-0.000
255.54	-0.000
255.75	-0.000
255.96	-0.000
256.17	-0.000
256.39	-0.000
256.60	-0.000
256.81	-0.000
257.03	-0.000
257.24	-0.000
257.45	-0.000
257.66	-0.000
257.88	-0.000
258.09	-0.000
258.30	-0.000
258.51	-0.000
258.73	-0.000
258.94	-0.000
259.15	-0.000
259.37	-0.000
259.58	-0.000
259.79	-0.000
260.00	-0.000
260.22	-0.000
260.43	-0.000
260.64	-0.000
260.85	-0.000
261.07	-0.000
261.28	-0.000
261.49	-0.000
261.71	-0.000
261.92	-0.000
262.13	-0.000
262.34	-0.000
262.56	-0.000
262.77	-0.000
262.98	-0.000
263.19	-0.000
263.41	-0.000
263.62	-0.000
263.83	-0.000
264.04	-0.000
264.26	-0.000
264.47	-0.000
264.68	-0.000
264.89	-0.000
265.11	-0.000
265.32	-0.000
265.53	-0.000
265.74	-0.000
265.96	-0.000
266.17	-0.000
266.38	-0.000
266.59	-0.000
266.81	-0.000
267.02	-0.000
267.23	-0.000
267.44	-0.000
267.65	-0.000
267.87	-0.000
268.08	-0.000
268.29	-0.000
268.50	-0.000
268.72	-0.000
268.93	-0.000
269.14	-0.000
269.35	-0.000
269.57	-0.000
269.78	-0.000
269.99	-0.000
270.20	-0.000
270.41	-0.000
270.63	-0.000
270.84	-0.000
271.05	-0.000
271.26	-0.000
271.48	-0.000
271.69	-0.000
271.90	-0.000
272.11	-0.000
272.32	-0.000
272.54	-0.000
272.75	-0.000
272.96	-0.000
273.17	-0.000
273.39	-0.000
273.60	-0.000
273.81	-0.000
274.02	-0.000
274.23	-0.000
274.45	-0.000
274.66	-0.000
274.87	-0.000
275.08	-0.000
275.29	-0.000
275.51	-0.000
275.72	-0.000
275.93	-0.000
276.14	-0.000
276.35	-0.000
276.57	-0.000
276.78	-0.000
276.99	-0.000
277.20	-0.000
277.41	-0.000
277.63	-0.000
277.84	-0.000
278.05	-0.000
278.26	-0.000
278.47	-0.000
278.69	-0.000
278.90	-0.000
279.11	-0.000
279.32	-0.000
279.53	-0.000
279.74	-0.000
279.96	-0.000
280.17	-0.000
280.38	-0.000
280.59	-0.000
280.80	-0.000
281.02	-0.000
281.23	-0.000
281.44	-0.000
281.65	-0.000
281.86	-0.000
282.07	-0.000
282.29	-0.000
282.50	-0.000
282.71	-0.000
282.92	-0.000
283.13	-0.000
283.35	-0.000
283.56	-0.000
283.77	-0.000
283.98	-0.000
284.19	-0.000
284.40	-0.000
284.62	-0.000
284.83	-0.000
285.04	-0.000
285.25	-0.000
285.46	-0.000
285.67	-0.000
285.88	-0.000
286.10	-0.000
286.31	-0.000
286.52	-0.000
286.73	-0.000
286.94	-0.000
287.15	-0.000
287.37	-0.000
287.58	-0.000
287.79	-0.000
288.00	-0.000
288.21	-0.000
288.42	-0.000
288.63	-0.000
288.85	-0.000
289.06	-0.000
289.27	-0.000
289.48	-0.000
289.69	-0.000
289.90	-0.000
290.11	-0.000
290.33	-0.000
290.54	-0.000
290.75	-0.000
290.96	-0.000
291.17	-0.000
291.38	-0.000
291.59	-0.000
291.81	-0.000
292.02	-0.000
292.23	-0.000
292.44	-0.000
292.65	4.598
292.86	-0.000
293.07	-0.000
293.28	2.328
293.50	2.642
293.71	-0.000
293.92	2.655
294.13	-0.000
294.34	-0.000
294.55	-0.000
294.76	-0.000
294.97	2.842
295.19	-0.000
295.40	-0.000
295.61	-0.000
295.82	2.710
296.03	2.250
296.24	2.282
296.45	1.809
296.66	1.607
296.87	1.611
297.09	1.636
297.30	1.739
297.51	1.550
297.72	1.528
297.93	1.575
298.14	1.559
298.35	1.536
298.56	1.521
298.77	1.590
298.99	1.572
299.20	1.558
299.41	1.546
299.62	1.511
299.83	1.494
300.04	1.457
300.25	1.451
300.46	1.463
300.67	1.443
300.88	1.414
301.10	1.417
301.31	1.460
301.52	1.420
301.73	1.386
301.94	1.388
302.15	1.403
302.36	1.367
302.57	1.324
302.78	1.332
302.99	1.359
303.20	1.373
303.41	1.313
303.63	1.302
303.84	1.305
304.05	1.303
304.26	1.258
304.47	1.259
304.68	1.263
304.89	1.253
305.10	1.223
305.31	1.214
305.52	1.249
305.73	1.245
305.94	1.214
306.15	1.205
306.37	1.220
306.58	1.224
306.79	1.203
307.00	1.220
307.21	1.254
307.42	1.248
307.63	1.222
307.84	1.192
308.05	1.219
308.26	1.220
308.47	1.208
308.68	1.205
308.89	1.204
309.10	1.203
309.31	1.172
309.52	1.161
309.73	1.173
309.95	1.167
310.16	1.144
310.37	1.134
310.58	1.146
310.79	1.143
311.00	1.142
311.21	1.142
311.42	1.141
311.63	1.136
311.84	1.124
312.05	1.124
312.26	1.141
312.47	1.152
312.68	1.132
312.89	1.118
313.10	1.122
313.31	1.099
313.52	1.104
313.73	1.101
313.94	1.101
314.15	1.086
314.36	1.067
314.57	1.062
314.78	1.048
314.99	1.044
315.21	1.034
315.42	1.040
315.63	1.049
315.84	1.032
316.05	1.024
316.26	1.030
316.47	1.043
316.68	1.040
316.89	1.023
317.10	1.043
317.31	1.047
317.52	1.048
317.73	1.029
317.94	1.028
318.15	1.061
318.36	1.059
318.57	1.045
318.78	1.037
318.99	1.067
319.20	1.066
319.41	1.036
319.62	1.037
319.83	1.049
320.04	1.043
320.25	1.035
320.46	1.005
320.67	1.006
320.88	1.003
321.09	0.992
321.30	0.978
321.51	0.990
321.72	0.989
321.93	0.977
322.14	0.968
322.35	0.993
322.56	0.994
322.77	0.986
322.98	0.996
323.19	1.002
323.40	1.009
323.61	0.990
323.82	0.986
324.03	0.990
324.24	0.987
324.45	0.977
324.66	0.959
324.87	0.955
325.08	0.954
325.29	0.938
325.50	0.931
325.71	0.935
325.92	0.943
326.13	0.930
326.34	0.930
326.55	0.935
326.76	0.934
326.97	0.927
327.18	0.922
327.39	0.943
327.60	0.945
327.80	0.946
328.01	0.943
328.22	0.942
328.43	0.946
328.64	0.938
328.85	0.943
329.06	0.943
329.27	0.941
329.48	0.938
329.69	0.921
329.90	0.929
330.11	0.924
330.32	0.918
330.53	0.914
330.74	0.912
330.95	0.911
331.16	0.899
331.37	0.908
331.58	0.907
331.79	0.908
332.00	0.901
332.21	0.894
332.42	0.897
332.63	0.889
332.83	0.885
333.04	0.888
333.25	0.898
333.46	0.896
333.67	0.883
333.88	0.886
334.09	0.895
334.30	0.892
334.51	0.885
334.72	0.880
334.93	0.882
335.14	0.881
335.35	0.874
335.56	0.870
335.77	0.878
335.98	0.876
336.18	0.872
336.39	0.863
336.60	0.866
336.81	0.866
337.02	0.867
337.23	0.871
337.44	0.873
337.65	0.875
337.86	0.865
338.07	0.859
338.28	0.863
338.49	0.861
338.70	0.856
338.91	0.861
339.11	0.867
339.32	0.863
339.53	0.852
339.74	0.850
339.95	0.845
340.16	0.844
340.37	0.838
340.58	0.836
340.79	0.838
341.00	0.838
341.21	0.829
341.41	0.829
341.62	0.830
341.83	0.831
342.04	0.827
342.25	0.837
342.46	0.841
342.67	0.840
342.88	0.835
343.09	0.834
343.30	0.840
343.50	0.842
343.71	0.834
343.92	0.832
344.13	0.836
344.34	0.836
344.55	0.821
344.76	0.819
344.97	0.823
345.18	0.822
345.38	0.820
345.59	0.815
345.80	0.815
346.01	0.813
346.22	0.810
346.43	0.804
346.64	0.810
346.85	0.811
347.06	0.805
347.26	0.805
347.47	0.808
347.68	0.803
347.89	0.800
348.10	0.794
348.31	0.800
348.52	0.799
348.73	0.797
348.93	0.794
349.14	0.794
349.35	0.794
349.56	0.789
349.77	0.785
349.98	0.790
350.19	0.788
350.39	0.785
350.60	0.780
350.81	0.794
351.02	0.793
351.23	0.789
351.44	0.791
351.65	0.793
351.86	0.790
352.06	0.789
352.27	0.791
352.48	0.792
352.69	0.791
352.90	0.787
353.11	0.775
353.31	0.780
353.52	0.777
353.73	0.771
353.94	0.772
354.15	0.778
354.36	0.778
354.57	0.769
354.77	0.772
354.98	0.772
355.19	0.771
355.40	0.771
355.61	0.777
355.82	0.781
356.02	0.781
356.23	0.775
356.44	0.776
356.65	0.778
356.86	0.778
357.07	0.772
357.27	0.774
357.48	0.776
357.69	0.771
357.90	0.757
358.11	0.754
358.32	0.756
358.52	0.758
358.73	0.749
358.94	0.752
359.15	0.756
359.36	0.757
359.56	0.753
359.77	0.751
359.98	0.758
360.19	0.757
360.40	0.755
360.61	0.756
360.81	0.754
361.02	0.754
361.23	0.747
361.44	0.746
361.65	0.746
361.85	0.746
362.06	0.745
362.27	0.746
362.48	0.746
362.69	0.748
362.89	0.742
363.10	0.744
363.31	0.748
363.52	0.751
363.73	0.746
363.93	0.746
364.14	0.748
364.35	0.748
364.56	0.740
364.77	0.742
364.97	0.744
365.18	0.744
365.39	0.739
365.60	0.736
365.81	0.737
366.01	0.736
366.22	0.733
366.43	0.732
366.64	0.734
366.84	0.739
367.05	0.736
367.26	0.734
367.47	0.735
367.68	0.735
367.88	0.733
368.09	0.731
368.30	0.734
368.51	0.733
368.71	0.733
368.92	0.737
369.13	0.735
369.34	0.734
369.55	0.734
369.75	0.735
369.96	0.741
370.17	0.741
370.38	0.738
370.58	0.738
370.79	0.742
371.00	0.741
371.21	0.734
371.41	0.738
371.62	0.742
371.83	0.737
372.04	0.737
372.24	0.730
372.45	0.732
372.66	0.732
372.87	0.729
373.07	0.726
373.28	0.727
373.49	0.731
373.70	0.722
373.90	0.721
374.11	0.730
374.32	0.730
374.53	0.728
374.73	0.728
374.94	0.730
375.15	0.730
375.36	0.727
375.56	0.736
375.77	0.735
375.98	0.735
376.19	0.733
376.39	0.727
376.60	0.729
376.81	0.730
377.02	0.728
377.22	0.727
377.43	0.727
377.64	0.729
377.84	0.720
378.05	0.725
378.26	0.730
378.47	0.730
378.67	0.727
378.88	0.725
379.09	0.725
379.30	0.726
379.50	0.725
379.71	0.726
379.92	0.727
380.12	0.727
380.33	0.719
380.54	0.716
380.75	0.721
380.95	0.722
381.16	0.721
381.37	0.722
381.57	0.724
381.78	0.724
381.99	0.724
382.20	0.724
382.40	0.726
382.61	0.727
382.82	0.725
383.02	0.719
383.23	0.721
383.44	0.721
383.64	0.719
383.85	0.721
384.06	0.723
384.27	0.721
384.47	0.720
384.68	0.721
384.89	0.726
385.09	0.726
385.30	0.727
385.51	0.725
385.71	0.728
385.92	0.728
386.13	0.727
386.33	0.730
386.54	0.730
386.75	0.729
386.95	0.726
387.16	0.721
387.37	0.724
387.58	0.724
387.78	0.722
387.99	0.720
388.20	0.722
388.40	0.719
388.61	0.715
388.82	0.718
389.02	0.720
389.23	0.720
389.44	0.718
389.64	0.719
389.85	0.728
390.06	0.729
390.26	0.729
390.47	0.729
390.68	0.732
390.88	0.731
391.09	0.726
391.30	0.726
391.50	0.727
391.71	0.727
391.92	0.725
392.12	0.718
392.33	0.719
392.53	0.718
392.74	0.719
392.95	0.718
393.15	0.720
393.36	0.722
393.57	0.721
393.77	0.723
393.98	0.724
394.19	0.723
394.39	0.723
394.60	0.724
394.81	0.726
395.01	0.723
395.22	0.723
395.43	0.724
395.63	0.728
395.84	0.729
396.04	0.726
396.25	0.728
396.46	0.730
396.66	0.729
396.87	0.726
397.08	0.723
397.28	0.726
397.49	0.727
397.69	0.724
397.90	0.720
398.11	0.721
398.31	0.722
398.52	0.719
398.73	0.721
398.93	0.719
399.14	0.719
399.34	0.718
399.55	0.719
399.76	0.718
399.96	0.718
400.17	0.717
400.37	0.715
400.58	0.722
400.79	0.723
400.99	0.721
401.20	0.726
401.41	0.728
401.61	0.730
401.82	0.735
402.02	0.735
402.23	0.736
402.44	0.735
402.64	0.736
402.85	0.730
403.05	0.729
403.26	0.728
403.47	0.722
403.67	0.721
403.88	0.722
404.08	0.716
404.29	0.715
404.50	0.715
404.70	0.715
404.91	0.714
405.11	0.712
405.32	0.713
405.52	0.714
405.73	0.714
405.94	0.712
406.14	0.715
406.35	0.716
406.55	0.716
406.76	0.714
406.97	0.715
407.17	0.718
407.38	0.718
407.58	0.717
407.79	0.719
407.99	0.721
408.20	0.722
408.41	0.718
408.61	0.716
408.82	0.716
409.02	0.716
409.23	0.714
409.43	0.714
409.64	0.714
409.84	0.714
410.05	0.711
410.26	0.709
410.46	0.709
410.67	0.709
410.87	0.711
411.08	0.713
411.28	0.715
411.49	0.716
411.69	0.714
411.90	0.716
412.11	0.718
412.31	0.718
412.52	0.718
412.72	0.718
412.93	0.718
413.13	0.717
413.34	0.714
413.54	0.715
413.75	0.717
413.95	0.717
414.16	0.713
414.37	0.715
414.57	0.715
414.78	0.716
414.98	0.715
415.19	0.716
415.39	0.712
415.60	0.714
415.80	0.713
416.01	0.711
416.21	0.713
416.42	0.713
416.62	0.708
416.83	0.709
417.03	0.709
417.24	0.709
417.44	0.708
417.65	0.708
417.86	0.707
418.06	0.706
418.27	0.704
418.47	0.706
418.68	0.706
418.88	0.707
419.09	0.706
419.29	0.707
419.50	0.707
419.70	0.707
419.91	0.706
420.11	0.704
420.32	0.706
420.52	0.706
420.73	0.704
420.93	0.705
421.14	0.706
421.34	0.705
421.55	0.702
421.75	0.701
421.96	0.701
422.16	0.702
422.37	0.701
422.57	0.698
422.78	0.699
422.98	0.695
423.19	0.694
423.39	0.692
423.60	0.696
423.80	0.697
424.01	0.696
424.21	0.698
424.42	0.698
424.62	0.697
424.83	0.697
425.03	0.698
425.23	0.700
425.44	0.700
425.64	0.701
425.85	0.700
426.05	0.700
426.26	0.700
426.46	0.697
426.67	0.696
426.87	0.701
427.08	0.701
427.28	0.699
427.49	0.700
427.69	0.699
427.90	0.698
428.10	0.695
428.31	0.695
428.51	0.696
428.71	0.696
428.92	0.697
429.12	0.694
429.33	0.695
429.53	0.699
429.74	0.703
429.94	0.703
430.15	0.703
430.35	0.703
430.56	0.701
430.76	0.700
430.96	0.700
431.17	0.697
431.37	0.695
431.58	0.693
431.78	0.690
431.99	0.683
432.19	0.684
432.40	0.686
432.60	0.686
432.80	0.688
433.01	0.687
433.21	0.688
433.42	0.689
433.62	0.690
433.83	0.689
434.03	0.691
434.23	0.694
434.44	0.694
434.64	0.692
434.85	0.696
435.05	0.697
435.26	0.697
435.46	0.695
435.66	0.695
435.87	0.695
436.07	0.695
436.28	0.691
436.48	0.688
436.69	0.687
436.89	0.687
437.09	0.681
437.30	0.680
437.50	0.680
437.71	0.692
437.91	0.690
438.11	0.691
438.32	0.695
438.52	0.695
438.73	0.694
438.93	0.693
439.13	0.692
439.34	0.696
439.54	0.694
439.75	0.694
439.95	0.684
440.15	0.689
440.36	0.687
440.56	0.685
440.77	0.685
440.97	0.685
441.17	0.684
441.38	0.686
441.58	0.682
441.79	0.682
441.99	0.680
442.19	0.679
442.40	0.676
442.60	0.677
442.81	0.674
443.01	0.675
443.21	0.675
443.42	0.675
443.62	0.673
443.82	0.673
444.03	0.674
444.23	0.674
444.44	0.674
444.64	0.673
444.84	0.675
445.05	0.674
445.25	0.672
445.45	0.672
445.66	0.674
445.86	0.673
446.06	0.675
446.27	0.673
446.47	0.676
446.68	0.674
446.88	0.673
447.08	0.672
447.29	0.673
447.49	0.673
447.69	0.673
447.90	0.672
448.10	0.675
448.30	0.672
448.51	0.673
448.71	0.671
448.91	0.673
449.12	0.671
449.32	0.673
449.52	0.672
449.73	0.675
449.93	0.675
450.14	0.676
450.34	0.675
450.54	0.678
450.75	0.675
450.95	0.675
451.15	0.674
451.36	0.676
451.56	0.673
451.76	0.672
451.97	0.670
452.17	0.670
452.37	0.668
452.58	0.664
452.78	0.664
452.98	0.665
453.19	0.665
453.39	0.665
453.59	0.664
453.79	0.665
454.00	0.665
454.20	0.664
454.40	0.665
454.61	0.667
454.81	0.667
455.01	0.666
455.22	0.667
455.42	0.669
455.62	0.667
455.83	0.667
456.03	0.669
456.23	0.670
456.44	0.671
456.64	0.670
456.84	0.670
457.04	0.670
457.25	0.669
457.45	0.666
457.65	0.665
457.86	0.666
458.06	0.665
458.26	0.661
458.47	0.660
458.67	0.661
458.87	0.661
459.07	0.658
459.28	0.660
459.48	0.662
459.68	0.662
459.89	0.661
460.09	0.660
460.29	0.660
460.49	0.662
460.70	0.661
460.90	0.660
461.10	0.661
461.31	0.660
461.51	0.658
461.71	0.660
461.91	0.661
462.12	0.662
462.32	0.661
462.52	0.662
462.72	0.664
462.93	0.665
463.13	0.664
463.33	0.666
463.53	0.667
463.74	0.666
463.94	0.662
464.14	0.662
464.35	0.663
464.55	0.663
464.75	0.661
464.95	0.659
465.16	0.661
465.36	0.659
465.56	0.658
465.76	0.657
465.97	0.657
466.17	0.658
466.37	0.656
466.57	0.656
466.78	0.657
466.98	0.657
467.18	0.655
467.38	0.654
467.59	0.655
467.79	0.657
467.99	0.656
468.19	0.657
468.39	0.660
468.60	0.659
468.80	0.658
469.00	0.660
469.20	0.660
469.41	0.661
469.61	0.660
469.81	0.660
470.01	0.659
470.22	0.659
470.42	0.658
470.62	0.656
470.82	0.657
471.02	0.657
471.23	0.654
471.43	0.654
471.63	0.657
471.83	0.657
472.04	0.656
472.24	0.655
472.44	0.660
472.64	0.660
472.84	0.658
473.05	0.658
473.25	0.661
473.45	0.660
473.65	0.659
473.85	0.659
474.06	0.660
474.26	0.660
474.46	0.661
474.66	0.658
474.86	0.658
475.07	0.658
475.27	0.656
475.47	0.654
475.67	0.654
475.87	0.656
476.08	0.652
476.28	0.653
476.48	0.654
476.68	0.652
476.88	0.650
477.09	0.652
477.29	0.654
477.49	0.654
477.69	0.653
477.89	0.653
478.09	0.652
478.30	0.655
478.50	0.652
478.70	0.652
478.90	0.652
479.10	0.655
479.31	0.656
479.51	0.654
479.71	0.655
479.91	0.655
480.11	0.654
480.31	0.655
480.52	0.653
480.72	0.654
480.92	0.653
481.12	0.652
481.32	0.649
481.52	0.647
481.72	0.648
481.93	0.650
482.13	0.651
482.33	0.651
482.53	0.649
482.73	0.650
482.93	0.651
483.14	0.651
483.34	0.650
483.54	0.651
483.74	0.650
483.94	0.649
484.14	0.645
484.34	0.645
484.55	0.646
484.75	0.646
484.95	0.643
485.15	0.642
485.35	0.642
485.55	0.642
485.75	0.640
485.96	0.641
486.16	0.642
486.36	0.641
486.56	0.639
486.76	0.639
486.96	0.639
487.16	0.638
487.36	0.637
487.57	0.636
487.77	0.637
487.97	0.637
488.17	0.635
488.37	0.634
488.57	0.634
488.77	0.634
488.97	0.633
489.18	0.632
489.38	0.635
489.58	0.636
489.78	0.635
489.98	0.635
490.18	0.634
490.38	0.635
490.58	0.634
490.78	0.635
490.98	0.637
491.19	0.637
491.39	0.638
491.59	0.636
491.79	0.639
491.99	0.640
492.19	0.639
492.39	0.643
492.59	0.643
492.79	0.644
492.99	0.645
493.20	0.645
493.40	0.644
493.60	0.645
493.80	0.644
494.00	0.642
494.20	0.642
494.40	0.642
494.60	0.639
494.80	0.643
495.00	0.642
495.20	0.640
495.40	0.639
495.61	0.641
495.81	0.641
496.01	0.644
496.21	0.644
496.41	0.644
496.61	0.644
496.81	0.643
497.01	0.638
497.21	0.637
497.41	0.638
497.61	0.637
497.81	0.635
498.01	0.635
498.21	0.633
498.41	0.631
498.61	0.631
498.82	0.632
499.02	0.634
499.22	0.635
499.42	0.635
499.62	0.636
499.82	0.637
500.02	0.638
500.22	0.637
500.42	0.639
500.62	0.640
500.82	0.640
501.02	0.639
501.22	0.639
501.42	0.639
501.62	0.641
501.82	0.640
502.02	0.640
502.22	0.639
502.42	0.641
502.62	0.639
502.82	0.639
503.02	0.640
503.22	0.640
503.42	0.638
503.63	0.638
503.83	0.635
504.03	0.635
504.23	0.634
504.43	0.634
504.63	0.635
504.83	0.635
505.03	0.634
505.23	0.636
505.43	0.637
505.63	0.637
505.83	0.637
506.03	0.638
506.23	0.640
506.43	0.640
506.63	0.639
506.83	0.638
507.03	0.639
507.23	0.640
507.43	0.637
507.63	0.637
507.83	0.637
508.03	0.637
508.23	0.637
508.43	0.635
508.63	0.637
508.83	0.638
509.03	0.639
509.23	0.639
509.43	0.640
509.63	0.640
509.83	0.640
510.03	0.642
510.23	0.644
510.43	0.644
510.63	0.645
510.83	0.645
511.03	0.646
511.23	0.643
511.43	0.643
511.63	0.644
511.83	0.646
512.03	0.645
512.22	0.642
512.42	0.641
512.62	0.641
512.82	0.641
513.02	0.640
513.22	0.640
513.42	0.642
513.62	0.644
513.82	0.642
514.02	0.642
514.22	0.643
514.42	0.644
514.62	0.645
514.82	0.645
515.02	0.647
515.22	0.651
515.42	0.649
515.62	0.651
515.82	0.650
516.02	0.651
516.22	0.652
516.42	0.652
516.62	0.654
516.82	0.655
517.01	0.653
517.21	0.653
517.41	0.656
517.61	0.656
517.81	0.652
518.01	0.652
518.21	0.651
518.41	0.650
518.61	0.649
518.81	0.649
519.01	0.650
519.21	0.650
519.41	0.649
519.61	0.645
519.81	0.648
520.00	0.648
520.20	0.648
520.40	0.651
520.60	0.652
520.80	0.651
521.00	0.651
521.20	0.652
521.40	0.657
521.60	0.657
521.80	0.656
522.00	0.656
522.20	0.658
522.39	0.657
522.59	0.654
522.79	0.656
522.99	0.659
523.19	0.657
523.39	0.655
523.59	0.652
523.79	0.655
523.99	0.657
524.19	0.657
524.38	0.655
524.58	0.657
524.78	0.657
524.98	0.655
525.18	0.657
525.38	0.657
525.58	0.658
525.78	0.657
525.98	0.655
526.18	0.655
526.37	0.655
526.57	0.656
526.77	0.656
526.97	0.657
527.17	0.657
527.37	0.654
527.57	0.656
527.77	0.657
527.96	0.657
528.16	0.657
528.36	0.658
528.56	0.659
528.76	0.657
528.96	0.656
529.16	0.657
529.36	0.659
529.55	0.660
529.75	0.657
529.95	0.657
530.15	0.658
530.35	0.660
530.55	0.658
530.75	0.658
530.94	0.659
531.14	0.659
531.34	0.658
531.54	0.656
531.74	0.659
531.94	0.662
532.13	0.661
532.33	0.663
532.53	0.662
532.73	0.662
532.93	0.661
533.13	0.662
533.33	0.662
533.52	0.663
533.72	0.666
533.92	0.665
534.12	0.663
534.32	0.663
534.52	0.662
534.71	0.663
534.91	0.665
535.11	0.667
535.31	0.665
535.51	0.667
535.71	0.669
535.90	0.665
536.10	0.666
536.30	0.668
536.50	0.668
536.70	0.668
536.89	0.666
537.09	0.665
537.29	0.667
537.49	0.668
537.69	0.666
537.89	0.666
538.08	0.666
538.28	0.665
538.48	0.665
538.68	0.667
538.88	0.669
539.07	0.669
539.27	0.667
539.47	0.666
539.67	0.666
539.87	0.667
540.06	0.665
540.26	0.666
540.46	0.667
540.66	0.665
540.86	0.663
541.05	0.662
541.25	0.664
541.45	0.664
541.65	0.663
541.84	0.665
542.04	0.665
542.24	0.665
542.44	0.664
542.64	0.665
542.83	0.668
543.03	0.668
543.23	0.666
543.43	0.667
543.62	0.669
543.82	0.669
544.02	0.668
544.22	0.668
544.42	0.671
544.61	0.672
544.81	0.669
545.01	0.668
545.21	0.670
545.40	0.671
545.60	0.669
545.80	0.671
546.00	0.671
546.19	0.670
546.39	0.669
546.59	0.666
546.79	0.668
546.98	0.668
547.18	0.668
547.38	0.668
547.58	0.670
547.77	0.671
547.97	0.667
548.17	0.669
548.37	0.669
548.56	0.670
548.76	0.669
548.96	0.670
549.16	0.672
549.35	0.672
549.55	0.670
549.75	0.670
549.95	0.673
550.14	0.673
550.34	0.672
550.54	0.676
550.73	0.680
550.93	0.681
551.13	0.678
551.33	0.677
551.52	0.678
551.72	0.679
551.92	0.677
552.12	0.678
552.31	0.679
552.51	0.680
552.71	0.676
552.90	0.676
553.10	0.676
553.30	0.676
553.50	0.676
553.69	0.677
553.89	0.677
554.09	0.678
554.28	0.675
554.48	0.677
554.68	0.678
554.87	0.678
555.07	0.674
555.27	0.675
555.47	0.676
555.66	0.677
555.86	0.675
556.06	0.676
556.25	0.677
556.45	0.684
556.65	0.682
556.84	0.685
557.04	0.688
557.24	0.690
557.43	0.689
557.63	0.693
557.83	0.695
558.02	0.696
558.22	0.700
558.42	0.700
558.61	0.693
558.81	0.694
559.01	0.691
559.21	0.690
559.40	0.691
559.60	0.691
559.80	0.687
559.99	0.689
560.19	0.690
560.39	0.685
560.58	0.683
560.78	0.683
560.97	0.686
561.17	0.685
561.37	0.683
561.56	0.684
561.76	0.684
561.96	0.684
562.15	0.682
562.35	0.683
562.55	0.684
562.74	0.684
562.94	0.682
563.14	0.680
563.33	0.681
563.53	0.681
563.73	0.679
563.92	0.681
564.12	0.683
564.31	0.684
564.51	0.682
564.71	0.684
564.90	0.686
565.10	0.688
565.30	0.691
565.49	0.692
565.69	0.694
565.89	0.694
566.08	0.692
566.28	0.694
566.47	0.696
566.67	0.695
566.87	0.693
567.06	0.695
567.26	0.701
567.46	0.697
567.65	0.696
567.85	0.698
568.04	0.700
568.24	0.699
568.44	0.697
568.63	0.694
568.83	0.696
569.02	0.694
569.22	0.690
569.42	0.686
569.61	0.688
569.81	0.686
570.00	0.684
570.20	0.686
570.40	0.687
570.59	0.686
570.79	0.685
570.98	0.683
571.18	0.685
571.38	0.685
571.57	0.682
571.77	0.681
571.96	0.685
572.16	0.682
572.35	0.677
572.55	0.678
572.75	0.676
572.94	0.676
573.14	0.674
573.33	0.674
573.53	0.674
573.73	0.673
573.92	0.671
574.12	0.669
574.31	0.672
574.51	0.673
574.70	0.670
574.90	0.672
575.09	0.674
575.29	0.674
575.49	0.672
575.68	0.673
575.88	0.673
576.07	0.675
576.27	0.672
576.46	0.671
576.66	0.670
576.86	0.669
577.05	0.667
577.25	0.665
577.44	0.666
577.64	0.665
577.83	0.664
578.03	0.665
578.22	0.664
578.42	0.664
578.61	0.662
578.81	0.663
579.00	0.663
579.20	0.663
579.40	0.662
579.59	0.661
579.79	0.662
579.98	0.661
580.18	0.661
580.37	0.661
580.57	0.663
580.76	0.667
580.96	0.666
581.15	0.666
581.35	0.668
581.54	0.668
581.74	0.667
581.93	0.669
582.13	0.669
582.32	0.666
582.52	0.664
582.71	0.664
582.91	0.659
583.10	0.659
583.30	0.658
583.49	0.657
583.69	0.661
583.88	0.662
584.08	0.661
584.27	0.664
584.47	0.667
584.66	0.668
584.86	0.667
585.05	0.670
585.25	0.672
585.44	0.672
585.64	0.671
585.83	0.667
586.03	0.667
586.22	0.665
586.42	0.661
586.61	0.662
586.81	0.664
587.00	0.663
587.20	0.661
587.39	0.661
587.59	0.662
587.78	0.663
587.98	0.663
588.17	0.664
588.37	0.667
588.56	0.669
588.76	0.665
588.95	0.665
589.15	0.669
589.34	0.672
589.54	0.671
589.73	0.672
589.92	0.675
590.12	0.676
590.31	0.675
590.51	0.680
590.70	0.682
590.90	0.683
591.09	0.681
591.29	0.679
591.48	0.679
591.68	0.680
591.87	0.678
592.06	0.678
592.26	0.680
592.45	0.679
592.65	0.673
592.84	0.673
593.04	0.675
593.23	0.677
593.43	0.674
593.62	0.674
593.81	0.674
594.01	0.672
594.20	0.670
594.40	0.668
594.59	0.670
594.79	0.670
594.98	0.669
595.17	0.667
595.37	0.668
595.56	0.671
595.76	0.671
595.95	0.672
596.14	0.676
596.34	0.678
596.53	0.677
596.73	0.678
596.92	0.680
597.12	0.683
597.31	0.683
597.50	0.683
597.70	0.684
597.89	0.684
598.09	0.680
598.28	0.681
598.47	0.683
598.67	0.681
598.86	0.678
599.06	0.679
599.25	0.679
599.44	0.677
599.64	0.674
599.83	0.671
600.03	0.673
600.22	0.674
600.41	0.673
600.61	0.671
600.80	0.673
601.00	0.674
601.19	0.670
601.38	0.668
601.58	0.670
601.77	0.671
601.96	0.674
602.16	0.674
602.35	0.683
602.55	0.681
602.74	0.683
602.93	0.685
603.13	0.690
603.32	0.692
603.51	0.692
603.71	0.696
603.90	0.698
604.09	0.698
604.29	0.696
604.48	0.691
604.68	0.691
604.87	0.690
605.06	0.686
605.26	0.683
605.45	0.683
605.64	0.683
605.84	0.678
606.03	0.677
606.22	0.675
606.42	0.675
606.61	0.672
606.80	0.672
607.00	0.673
607.19	0.673
607.38	0.671
607.58	0.672
607.77	0.674
607.96	0.673
608.16	0.672
608.35	0.676
608.54	0.679
608.74	0.681
608.93	0.686
609.12	0.689
609.32	0.691
609.51	0.694
609.70	0.693
609.90	0.696
610.09	0.700
610.28	0.706
610.48	0.700
610.67	0.702
610.86	0.702
611.06	0.697
611.25	0.696
611.44	0.697
611.64	0.697
611.83	0.699
612.02	0.696
612.21	0.694
612.41	0.693
612.60	0.691
612.79	0.688
612.99	0.688
613.18	0.690
613.37	0.688
613.57	0.685
613.76	0.686
613.95	0.683
614.14	0.682
614.34	0.680
614.53	0.681
614.72	0.684
614.92	0.684
615.11	0.681
615.30	0.677
615.49	0.678
615.69	0.681
615.88	0.677
616.07	0.678
616.26	0.680
616.46	0.681
616.65	0.678
616.84	0.677
617.04	0.677
617.23	0.680
617.42	0.681
617.61	0.684
617.81	0.685
618.00	0.687
618.19	0.686
618.38	0.690
618.58	0.692
618.77	0.694
618.96	0.694
619.15	0.696
619.35	0.698
619.54	0.698
619.73	0.695
619.92	0.697
620.12	0.700
620.31	0.701
620.50	0.696
620.69	0.696
620.89	0.699
621.08	0.699
621.27	0.700
621.46	0.699
621.66	0.702
621.85	0.702
622.04	0.698
622.23	0.700
622.43	0.700
622.62	0.700
622.81	0.700
623.00	0.699
623.19	0.703
623.39	0.702
623.58	0.700
623.77	0.698
623.96	0.701
624.16	0.701
624.35	0.695
624.54	0.698
624.73	0.701
624.92	0.699
625.12	0.696
625.31	0.696
625.50	0.698
625.69	0.699
625.88	0.695
626.08	0.695
626.27	0.696
626.46	0.696
626.65	0.694
626.84	0.693
627.04	0.697
627.23	0.698
627.42	0.694
627.61	0.696
627.80	0.698
628.00	0.699
628.19	0.697
628.38	0.701
628.57	0.703
628.76	0.701
628.96	0.698
629.15	0.699
629.34	0.701
629.53	0.701
629.72	0.696
629.91	0.697
630.11	0.700
630.30	0.701
630.49	0.703
630.68	0.704
630.87	0.709
631.06	0.711
631.26	0.706
631.45	0.708
631.64	0.715
631.83	0.717
632.02	0.715
632.21	0.714
632.41	0.720
632.60	0.715
632.79	0.714
632.98	0.714
633.17	0.716
633.36	0.718
633.55	0.715
633.75	0.711
633.94	0.712
634.13	0.713
634.32	0.711
634.51	0.707
634.70	0.708
634.89	0.707
635.09	0.705
635.28	0.705
635.47	0.706
635.66	0.708
635.85	0.705
636.04	0.707
636.23	0.710
636.43	0.711
636.62	0.710
636.81	0.707
637.00	0.709
637.19	0.712
637.38	0.709
637.57	0.708
637.76	0.709
637.95	0.711
638.15	0.707
638.34	0.704
638.53	0.706
638.72	0.707
638.91	0.706
639.10	0.705
639.29	0.704
639.48	0.704
639.67	0.705
639.87	0.705
640.06	0.709
640.25	0.709
640.44	0.709
640.63	0.710
640.82	0.712
641.01	0.713
641.20	0.712
641.39	0.714
641.58	0.715
641.78	0.715
641.97	0.711
642.16	0.724
642.35	0.725
642.54	0.725
642.73	0.720
642.92	0.719
643.11	0.722
643.30	0.721
643.49	0.718
643.68	0.720
643.87	0.721
644.06	0.721
644.25	0.702
644.45	0.703
644.64	0.703
644.83	0.704
645.02	0.701
645.21	0.701
645.40	0.702
645.59	0.702
645.78	0.697
645.97	0.699
646.16	0.699
646.35	0.699
646.54	0.698
646.73	0.700
646.92	0.701
647.11	0.701
647.30	0.697
647.49	0.698
647.68	0.697
647.88	0.696
648.07	0.689
648.26	0.693
648.45	0.695
648.64	0.692
648.83	0.689
649.02	0.691
649.21	0.700
649.40	0.699
649.59	0.694
649.78	0.695
649.97	0.708
650.16	0.707
650.35	0.702
650.54	0.704
650.73	0.711
650.92	0.709
651.11	0.702
651.30	0.701
651.49	0.704
651.68	0.704
651.87	0.702
652.06	0.693
652.25	0.697
652.44	0.700
652.63	0.701
652.82	0.703
653.01	0.704
653.20	0.703
653.39	0.694
653.58	0.692
653.77	0.691
653.96	0.686
654.15	0.678
654.34	0.676
654.53	0.670
654.72	0.663
654.91	0.653
655.10	0.648
655.29	0.646
655.48	0.643
655.67	0.638
655.86	0.635
656.05	0.634
656.24	0.633
656.43	0.629
656.62	0.628
656.81	0.627
657.00	0.623
657.19	0.619
657.38	0.617
657.57	0.615
657.76	0.616
657.95	0.614
658.14	0.616
658.33	0.617
658.51	0.621
658.70	0.621
658.89	0.622
659.08	0.633
659.27	0.642
659.46	0.644
659.65	0.650
659.84	0.653
660.03	0.658
660.22	0.658
660.41	0.663
660.60	0.661
660.79	0.663
660.98	0.669
661.17	0.668
661.36	0.666
661.55	0.667
661.74	0.666
661.92	0.669
662.11	0.671
662.30	0.670
662.49	0.666
662.68	0.666
662.87	0.670
663.06	0.664
663.25	0.665
663.44	0.666
663.63	0.666
663.82	0.665
664.01	0.660
664.20	0.659
664.38	0.660
664.57	0.660
664.76	0.659
664.95	0.660
665.14	0.664
665.33	0.659
665.52	0.667
665.71	0.670
665.90	0.670
666.09	0.671
666.28	0.669
666.46	0.668
666.65	0.667
666.84	0.665
667.03	0.660
667.22	0.658
667.41	0.659
667.60	0.649
667.79	0.643
667.98	0.644
668.16	0.645
668.35	0.645
668.54	0.642
668.73	0.643
668.92	0.644
669.11	0.642
669.30	0.637
669.49	0.634
669.67	0.635
669.86	0.638
670.05	0.635
670.24	0.633
670.43	0.630
670.62	0.629
670.81	0.625
671.00	0.625
671.18	0.626
671.37	0.625
671.56	0.624
671.75	0.622
671.94	0.619
672.13	0.617
672.32	0.613
672.50	0.612
672.69	0.612
672.88	0.613
673.07	0.609
673.26	0.610
673.45	0.611
673.63	0.610
673.82	0.608
674.01	0.609
674.20	0.609
674.39	0.608
674.58	0.609
674.76	0.609
674.95	0.608
675.14	0.608
675.33	0.603
675.52	0.602
675.71	0.602
675.89	0.602
676.08	0.598
676.27	0.598
676.46	0.598
676.65	0.597
676.84	0.597
677.02	0.599
677.21	0.601
677.40	0.600
677.59	0.598
677.78	0.599
677.96	0.600
678.15	0.600
678.34	0.598
678.53	0.599
678.72	0.598
678.90	0.595
679.09	0.591
679.28	0.587
679.47	0.587
679.66	0.587
679.84	0.584
680.03	0.581
680.22	0.580
680.41	0.581
680.60	0.578
680.78	0.577
680.97	0.578
681.16	0.578
681.35	0.577
681.53	0.576
681.72	0.576
681.91	0.579
682.10	0.578
682.29	0.580
682.47	0.578
682.66	0.576
682.85	0.575
683.04	0.573
683.22	0.574
683.41	0.575
683.60	0.574
683.79	0.574
683.97	0.573
684.16	0.572
684.35	0.568
684.54	0.569
684.72	0.571
684.91	0.572
685.10	0.570
685.29	0.571
685.47	0.568
685.66	0.567
685.85	0.564
686.04	0.563
686.22	0.565
686.41	0.568
686.60	0.565
686.79	0.567
686.97	0.568
687.16	0.569
687.35	0.567
687.54	0.571
687.72	0.574
687.91	0.575
688.10	0.577
688.29	0.577
688.47	0.575
688.66	0.575
688.85	0.572
689.03	0.570
689.22	0.574
689.41	0.575
689.60	0.570
689.78	0.568
689.97	0.568
690.16	0.565
690.34	0.562
690.53	0.562
690.72	0.562
690.91	0.560
691.09	0.558
691.28	0.552
691.47	0.550
691.65	0.549
691.84	0.546
692.03	0.545
692.21	0.543
692.40	0.542
692.59	0.539
692.77	0.538
692.96	0.539
693.15	0.539
693.34	0.537
693.52	0.536
693.71	0.537
693.90	0.538
694.08	0.539
694.27	0.540
694.46	0.549
694.64	0.549
694.83	0.549
695.02	0.549
695.20	0.548
695.39	0.548
695.58	0.548
695.76	0.549
695.95	0.548
696.14	0.547
696.32	0.545
696.51	0.535
696.70	0.536
696.88	0.536
697.07	0.536
697.26	0.537
697.44	0.538
697.63	0.537
697.81	0.535
698.00	0.535
698.19	0.533
698.37	0.534
698.56	0.534
698.75	0.533
698.93	0.533
699.12	0.532
699.31	0.531
699.49	0.530
699.68	0.531
699.87	0.533
700.05	0.533
700.24	0.533
700.42	0.535
700.61	0.534
700.80	0.533
700.98	0.534
701.17	0.535
701.36	0.534
701.54	0.534
701.73	0.535
701.91	0.532
702.10	0.532
702.29	0.530
702.47	0.529
702.66	0.530
702.84	0.531
703.03	0.529
703.22	0.530
703.40	0.529
703.59	0.530
703.77	0.530
703.96	0.530
704.15	0.530
704.33	0.530
704.52	0.529
704.70	0.528
704.89	0.528
705.08	0.527
705.26	0.524
705.45	0.524
705.63	0.524
705.82	0.521
706.00	0.520
706.19	0.519
706.38	0.519
706.56	0.519
706.75	0.517
706.93	0.516
707.12	0.518
707.30	0.518
707.49	0.516
707.68	0.514
707.86	0.514
708.05	0.514
708.23	0.512
708.42	0.512
708.60	0.513
708.79	0.513
708.98	0.511
709.16	0.510
709.35	0.511
709.53	0.515
709.72	0.514
709.90	0.516
710.09	0.517
710.27	0.519
710.46	0.523
710.64	0.522
710.83	0.524
711.02	0.526
711.20	0.525
711.39	0.523
711.57	0.520
711.76	0.521
711.94	0.519
712.13	0.520
712.31	0.519
712.50	0.515
712.68	0.513
712.87	0.514
713.05	0.514
713.24	0.515
713.42	0.515
713.61	0.516
713.79	0.516
713.98	0.517
714.16	0.518
714.35	0.518
714.54	0.518
714.72	0.518
714.91	0.516
715.09	0.522
715.28	0.525
715.46	0.524
715.65	0.522
715.83	0.522
716.02	0.524
716.20	0.521
716.39	0.520
716.57	0.521
716.76	0.523
716.94	0.522
717.12	0.515
717.31	0.517
717.49	0.519
717.68	0.522
717.86	0.521
718.05	0.523
718.23	0.525
718.42	0.527
718.60	0.529
718.79	0.537
718.97	0.539
719.16	0.540
719.34	0.536
719.53	0.535
719.71	0.534
719.90	0.535
720.08	0.532
720.27	0.532
720.45	0.532
720.63	0.531
720.82	0.525
721.00	0.527
721.19	0.531
721.37	0.531
721.56	0.532
721.74	0.534
721.93	0.543
722.11	0.549
722.30	0.549
722.48	0.553
722.66	0.554
722.85	0.553
723.03	0.554
723.22	0.551
723.40	0.555
723.59	0.554
723.77	0.558
723.95	0.552
724.14	0.553
724.32	0.555
724.51	0.555
724.69	0.556
724.88	0.556
725.06	0.554
725.24	0.557
725.43	0.559
725.61	0.561
725.80	0.556
725.98	0.554
726.16	0.551
726.35	0.556
726.53	0.555
726.72	0.555
726.90	0.565
727.09	0.566
727.27	0.570
727.45	0.567
727.64	0.576
727.82	0.583
728.01	0.587
728.19	0.586
728.37	0.590
728.56	0.594
728.74	0.599
728.92	0.588
729.11	0.590
729.29	0.587
729.48	0.590
729.66	0.582
729.84	0.581
730.03	0.583
730.21	0.585
730.40	0.576
730.58	0.576
730.76	0.575
730.95	0.578
731.13	0.579
731.31	0.594
731.50	0.602
731.68	0.605
731.86	0.602
732.05	0.615
732.23	0.618
732.42	0.621
732.60	0.625
732.78	0.630
732.97	0.645
733.15	0.652
733.33	0.640
733.52	0.645
733.70	0.654
733.88	0.664
734.07	0.651
734.25	0.677
734.43	0.684
734.62	0.686
734.80	0.683
734.98	0.675
735.17	0.680
735.35	0.686
735.53	0.676
735.72	0.678
735.90	0.697
736.08	0.717
736.27	0.696
736.45	0.704
736.63	0.713
736.82	0.724
737.00	0.725
737.18	0.735
737.37	0.763
737.55	0.784
737.73	0.779
737.92	0.780
738.10	0.773
738.28	0.789
738.46	0.780
738.65	0.791
738.83	0.806
739.01	0.856
739.20	0.851
739.38	0.832
739.56	0.822
739.75	0.830
739.93	0.803
740.11	0.827
740.29	0.827
740.48	0.832
740.66	0.819
740.84	0.815
741.03	0.776
741.21	0.785
741.39	0.770
741.57	0.783
741.76	0.795
741.94	0.800
742.12	0.768
742.31	0.770
742.49	0.784
742.67	0.805
742.85	0.818
743.04	0.824
743.22	0.831
743.40	0.879
743.58	0.865
743.77	0.882
743.95	0.909
744.13	0.955
744.31	0.942
744.50	0.938
744.68	0.936
744.86	0.909
745.04	0.922
745.23	0.979
745.41	0.960
745.59	0.964
745.77	0.934
745.96	0.920
746.14	0.926
746.32	0.925
746.50	0.918
746.69	0.906
746.87	0.912
747.05	0.898
747.23	0.833
747.42	0.817
747.60	0.836
747.78	0.839
747.96	0.869
748.14	0.829
748.33	0.856
748.51	0.850
748.69	0.844
748.87	0.867
749.06	0.864
749.24	0.864
749.42	0.853
749.60	0.839
749.78	0.841
749.97	0.804
750.15	0.799
750.33	0.796
750.51	0.817
750.69	0.819
750.88	0.829
751.06	0.836
751.24	0.855
751.42	0.852
751.60	0.846
751.79	0.909
751.97	0.947
752.15	0.947
752.33	0.923
752.51	0.982
752.69	0.995
752.88	0.967
753.06	1.009
753.24	0.991
753.42	1.010
753.60	1.161
753.78	1.048
753.97	1.058
754.15	1.075
754.33	1.100
754.51	0.993
754.69	0.988
754.87	1.006
755.06	0.944
755.24	0.946
755.42	0.959
755.60	0.863
755.78	0.873
755.96	0.827
756.15	0.824
756.33	0.826
756.51	0.843
756.69	0.828
756.87	0.797
757.05	0.809
757.23	0.795
757.42	0.767
757.60	0.763
757.78	0.749
757.96	0.750
758.14	0.736
758.32	0.722
758.50	0.731
758.69	0.729
758.87	0.727
759.05	0.730
759.23	0.736
759.41	0.737
759.59	0.735
759.77	0.752
759.95	0.775
760.13	0.818
760.32	0.817
760.50	0.812
760.68	0.829
760.86	0.830
761.04	0.811
761.22	0.813
761.40	0.854
761.58	0.855
761.76	0.834
761.95	0.814
762.13	0.775
762.31	0.779
762.49	0.750
762.67	0.768
762.85	0.776
763.03	0.772
763.21	0.759
763.39	0.740
763.57	0.738
763.75	0.733
763.94	0.724
764.12	0.725
764.30	0.742
764.48	0.748
764.66	0.716
764.84	0.715
765.02	0.747
765.20	0.753
765.38	0.738
765.56	0.747
765.74	0.782
765.92	0.781
766.10	0.788
766.28	0.784
766.46	0.805
766.65	0.806
766.83	0.795
767.01	0.781
767.19	0.784
767.37	0.784
767.55	0.772
767.73	0.751
767.91	0.754
768.09	0.745
768.27	0.734
768.45	0.726
768.63	0.729
768.81	0.731
768.99	0.706
769.17	0.725
769.35	0.734
769.53	0.734
769.71	0.720
769.89	0.726
770.07	0.728
770.25	0.714
770.43	0.696
770.61	0.715
770.79	0.719
770.97	0.730
771.15	0.707
771.33	0.711
771.51	0.711
771.69	0.719
771.87	0.726
772.05	0.728
772.24	0.736
772.42	0.744
772.60	0.728
772.78	0.781
772.96	0.804
773.14	0.800
773.32	0.782
773.49	0.789
773.67	0.787
773.85	0.771
774.03	0.765
774.21	0.794
774.39	0.803
774.57	0.822
774.75	0.759
774.93	0.753
775.11	0.772
775.29	0.780
775.47	0.783
775.65	0.790
775.83	0.804
776.01	0.824
776.19	0.783
776.37	0.784
776.55	0.783
776.73	0.780
776.91	0.778
777.09	0.761
777.27	0.759
777.45	0.749
777.63	0.733
777.81	0.728
777.99	0.712
778.17	0.713
778.35	0.695
778.53	0.681
778.71	0.684
778.89	0.671
779.07	0.663
779.24	0.665
779.42	0.663
779.60	0.679
779.78	0.676
779.96	0.680
780.14	0.684
780.32	0.701
780.50	0.690
780.68	0.688
780.86	0.683
781.04	0.700
781.22	0.704
781.40	0.714
781.58	0.701
781.75	0.696
781.93	0.684
782.11	0.683
782.29	0.671
782.47	0.670
782.65	0.662
782.83	0.685
783.01	0.676
783.19	0.670
783.37	0.659
783.55	0.663
783.72	0.677
783.90	0.686
784.08	0.681
784.26	0.690
784.44	0.708
784.62	0.710
784.80	0.683
784.98	0.691
785.16	0.695
785.33	0.707
785.51	0.697
785.69	0.686
785.87	0.684
786.05	0.696
786.23	0.692
786.41	0.688
786.59	0.695
786.77	0.696
786.94	0.684
787.12	0.686
787.30	0.687
787.48	0.686
787.66	0.678
787.84	0.679
788.02	0.667
788.19	0.666
788.37	0.655
788.55	0.655
788.73	0.653
788.91	0.649
789.09	0.636
789.27	0.626
789.44	0.633
789.62	0.638
789.80	0.647
789.98	0.671
790.16	0.656
790.34	0.653
790.51	0.644
790.69	0.662
790.87	0.667
791.05	0.667
791.23	0.662
791.41	0.664
791.58	0.670
791.76	0.648
791.94	0.622
792.12	0.631
792.30	0.631
792.48	0.628
792.65	0.624
792.83	0.628
793.01	0.632
793.19	0.630
793.37	0.615
793.54	0.612
793.72	0.620
793.90	0.619
794.08	0.610
794.26	0.611
794.43	0.619
794.61	0.604
794.79	0.596
794.97	0.594
795.15	0.597
795.32	0.603
795.50	0.596
795.68	0.593
795.86	0.595
796.04	0.596
796.21	0.592
796.39	0.589
796.57	0.599
796.75	0.605
796.92	0.607
797.10	0.612
797.28	0.613
797.46	0.616
797.64	0.617
797.81	0.625
797.99	0.628
798.17	0.634
798.35	0.630
798.52	0.636
798.70	0.632
798.88	0.639
799.06	0.638
799.23	0.641
799.41	0.646
799.59	0.641
799.77	0.631
799.94	0.637
800.12	0.641
800.30	0.657
800.48	0.655
800.65	0.654
800.83	0.643
801.01	0.638
801.19	0.638
801.36	0.634
801.54	0.636
801.72	0.646
801.90	0.634
802.07	0.632
802.25	0.618
802.43	0.604
802.60	0.603
802.78	0.611
802.96	0.613
803.14	0.608
803.31	0.608
803.49	0.608
803.67	0.602
803.84	0.608
804.02	0.602
804.20	0.603
804.38	0.607
804.55	0.606
804.73	0.594
804.91	0.596
805.08	0.606
805.26	0.602
805.44	0.665
805.61	0.668
805.79	0.666
805.97	0.663
806.15	0.659
806.32	0.657
806.50	0.661
806.68	0.662
806.85	0.655
807.03	0.645
807.21	0.660
807.38	0.597
807.56	0.588
807.74	0.598
807.91	0.604
808.09	0.604
808.27	0.619
808.44	0.643
808.62	0.650
808.80	0.652
808.97	0.648
809.15	0.642
809.33	0.654
809.50	0.661
809.68	0.650
809.86	0.657
810.03	0.685
810.21	0.669
810.39	0.652
810.56	0.655
810.74	0.676
810.91	0.743
811.09	0.734
811.27	0.754
811.44	0.758
811.62	0.759
811.80	0.745
811.97	0.720
812.15	0.720
812.33	0.715
812.50	0.706
812.68	0.694
812.85	0.640
813.03	0.644
813.21	0.617
813.38	0.611
813.56	0.614
813.74	0.622
813.91	0.628
814.09	0.654
814.26	0.647
814.44	0.647
814.62	0.639
814.79	0.642
814.97	0.640
815.14	0.643
815.32	0.647
815.50	0.659
815.67	0.661
815.85	0.653
816.02	0.646
816.20	0.652
816.38	0.664
816.55	0.670
816.73	0.672
816.90	0.683
817.08	0.708
817.26	0.713
817.43	0.699
817.61	0.721
817.78	0.735
817.96	0.719
818.13	0.711
818.31	0.713
818.49	0.721
818.66	0.713
818.84	0.702
819.01	0.683
819.19	0.687
819.36	0.685
819.54	0.661
819.71	0.697
819.89	0.706
820.07	0.719
820.24	0.714
820.42	0.716
820.59	0.731
820.77	0.753
820.94	0.747
821.12	0.760
821.29	0.772
821.47	0.774
821.64	0.722
821.82	0.732
822.00	0.727
822.17	0.726
822.35	0.720
822.52	0.722
822.70	0.710
822.87	0.719
823.05	0.707
823.22	0.718
823.40	0.737
823.57	0.756
823.75	0.743
823.92	0.765
824.10	0.781
824.27	0.815
824.45	0.807
824.62	0.858
824.80	0.870
824.97	0.883
825.15	0.879
825.32	0.891
825.50	0.887
825.67	0.901
825.85	0.883
826.02	0.894
826.20	0.905
826.37	1.009
826.55	0.950
826.72	1.098
826.90	1.145
827.07	1.180
827.25	1.152
827.42	1.265
827.60	1.344
827.77	1.445
827.95	1.440
828.12	1.508
828.30	1.281
828.47	1.357
828.65	1.110
828.82	1.148
829.00	1.183
829.17	1.245
829.34	1.271
829.52	1.312
829.69	-0.000
829.87	-0.000
830.04	-0.000
830.22	-0.000
830.39	-0.000
830.57	-0.000
830.74	-0.000
830.92	-0.000
831.09	-0.000
831.26	-0.000
831.44	-0.000
831.61	-0.000
831.79	-0.000
831.96	-0.000
832.14	-0.000
832.31	-0.000
832.49	-0.000
832.66	-0.000
832.83	-0.000
833.01	-0.000
833.18	-0.000
833.36	-0.000
833.53	-0.000
833.70	-0.000
833.88	-0.000
834.05	-0.000
834.23	-0.000
834.40	-0.000
834.58	-0.000
834.75	-0.000
834.92	-0.000
835.10	-0.000
835.27	-0.000
835.45	-0.000
835.62	-0.000
835.79	-0.000
835.97	-0.000
836.14	-0.000
836.32	-0.000
836.49	-0.000
836.66	-0.000
836.84	-0.000
837.01	-0.000
837.18	-0.000
837.36	-0.000
837.53	-0.000
837.71	-0.000
837.88	-0.000
838.05	-0.000
838.23	-0.000
838.40	-0.000
838.58	-0.000
838.75	-0.000
838.92	-0.000
839.10	-0.000
839.27	-0.000
839.44	-0.000
839.62	-0.000
839.79	-0.000
839.96	-0.000
840.14	-0.000
840.31	-0.000
840.48	-0.000
840.66	-0.000
840.83	-0.000
841.01	-0.000
841.18	-0.000
841.35	-0.000
841.53	-0.000
841.70	-0.000
841.87	-0.000
842.05	-0.000
842.22	-0.000
842.39	-0.000
842.57	-0.000
842.74	-0.000
842.91	-0.000
843.09	-0.000
843.26	-0.000
843.43	-0.000
843.60	-0.000
843.78	-0.000
843.95	-0.000
844.12	-0.000
844.30	-0.000
844.47	-0.000
844.64	-0.000
844.82	-0.000
844.99	-0.000
845.16	-0.000
845.34	-0.000
845.51	-0.000
845.68	-0.000
845.85	-0.000
846.03	-0.000
846.20	-0.000
846.37	-0.000
846.55	-0.000
846.72	-0.000
846.89	-0.000
847.06	-0.000
847.24	-0.000
847.41	-0.000
847.58	-0.000
847.76	-0.000
847.93	-0.000
848.10	-0.000
848.27	-0.000
848.45	-0.000
848.62	-0.000
848.79	-0.000
848.97	-0.000
849.14	-0.000
849.31	-0.000
849.48	-0.000
849.66	-0.000
849.83	-0.000
850.00	-0.000
850.17	-0.000
850.35	-0.000
850.52	-0.000
850.69	-0.000
850.86	-0.000
851.04	-0.000
851.21	-0.000
851.38	-0.000
851.55	-0.000
851.72	-0.000
851.90	-0.000
852.07	-0.000
852.24	-0.000
852.41	-0.000
852.59	-0.000
852.76	-0.000
852.93	-0.000
853.10	-0.000
853.28	-0.000
853.45	-0.000
853.62	-0.000
853.79	-0.000
853.96	-0.000
854.14	-0.000
854.31	-0.000
854.48	-0.000
854.65	-0.000
854.82	-0.000
855.00	-0.000
855.17	-0.000
855.34	-0.000
855.51	-0.000
855.68	-0.000
855.86	-0.000
856.03	-0.000
856.20	-0.000
856.37	-0.000
856.54	-0.000
856.72	-0.000
856.89	-0.000
857.06	-0.000
857.23	-0.000
857.40	-0.000
857.57	-0.000
857.75	-0.000
857.92	-0.000
858.09	-0.000
858.26	-0.000
858.43	-0.000
858.60	-0.000
858.78	-0.000
858.95	-0.000
859.12	-0.000
859.29	-0.000
859.46	-0.000
859.63	-0.000
859.81	-0.000
859.98	-0.000
860.15	-0.000
860.32	-0.000
860.49	-0.000
860.66	-0.000
860.83	-0.000
861.01	-0.000
861.18	-0.000
861.35	-0.000
861.52	-0.000
861.69	-0.000
861.86	-0.000
862.03	-0.000
862.21	-0.000
862.38	-0.000
862.55	-0.000
862.72	-0.000
862.89	-0.000
863.06	-0.000
863.23	-0.000
863.40	-0.000
863.58	-0.000
863.75	-0.000
863.92	-0.000
864.09	-0.000
864.26	-0.000
864.43	-0.000
864.60	-0.000
864.77	-0.000
864.94	-0.000
865.11	-0.000
865.29	-0.000
865.46	-0.000
865.63	-0.000
865.80	-0.000
865.97	-0.000
866.14	-0.000
866.31	-0.000
866.48	-0.000
866.65	-0.000
866.82	-0.000
866.99	-0.000
867.16	-0.000
867.34	-0.000
867.51	-0.000
867.68	-0.000
867.85	-0.000
868.02	-0.000
868.19	-0.000
868.36	-0.000
868.53	-0.000
868.70	-0.000
868.87	-0.000
869.04	-0.000
869.21	-0.000
869.38	-0.000
869.55	-0.000
869.72	-0.000
869.89	-0.000
870.06	-0.000
870.24	-0.000
870.41	-0.000
870.58	-0.000
870.75	-0.000
870.92	-0.000
871.09	-0.000
871.26	-0.000
871.43	-0.000
871.60	-0.000
871.77	-0.000
871.94	-0.000
872.11	-0.000
872.28	-0.000
872.45	-0.000
872.62	-0.000
872.79	-0.000
872.96	-0.000
873.13	-0.000
873.30	-0.000
873.47	-0.000
873.64	-0.000
873.81	-0.000
873.98	-0.000
874.15	-0.000
874.32	-0.000
874.49	-0.000
874.66	-0.000
874.83	-0.000
875.00	-0.000
875.17	-0.000
875.34	-0.000
875.51	-0.000
875.68	-0.000
875.85	-0.000
876.02	-0.000
876.19	-0.000
876.36	-0.000
876.53	-0.000
876.70	-0.000
876.87	-0.000
877.04	-0.000
877.21	-0.000
877.38	-0.000
877.55	-0.000
877.72	-0.000
877.89	-0.000
878.06	-0.000
878.23	-0.000
878.39	-0.000
878.56	-0.000
878.73	-0.000
878.90	-0.000
879.07	-0.000
879.24	-0.000
879.41	-0.000
879.58	-0.000
879.75	-0.000
879.92	-0.000
880.09	-0.000
880.26	-0.000
880.43	-0.000
880.60	-0.000
880.77	-0.000
880.94	-0.000
881.11	-0.000
881.27	-0.000
881.44	-0.000
881.61	-0.000
881.78	-0.000
881.95	-0.000
882.12	-0.000
882.29	-0.000
882.46	-0.000
882.63	-0.000
882.80	-0.000
882.97	-0.000
883.14	-0.000
883.30	-0.000
883.47	-0.000
883.64	-0.000
883.81	-0.000
883.98	-0.000
884.15	-0.000
884.32	-0.000
884.49	-0.000
884.66	-0.000
884.82	-0.000
884.99	-0.000
885.16	-0.000
885.33	-0.000
885.50	-0.000
885.67	-0.000
885.84	-0.000
886.01	-0.000
886.17	-0.000
886.34	-0.000
886.51	-0.000
886.68	-0.000
886.85	-0.000
887.02	-0.000
887.19	-0.000
887.36	-0.000
887.52	-0.000
887.69	-0.000
887.86	-0.000
888.03	-0.000
888.20	-0.000
888.37	-0.000
888.54	-0.000
888.70	-0.000
888.87	-0.000
889.04	-0.000
889.21	-0.000
889.38	-0.000
889.55	-0.000
889.71	-0.000
889.88	-0.000
890.05	-0.000
890.22	-0.000
890.39	-0.000
>>>>>End Processed Spectral Data<<<<<
