SpectraSuite Data File
++++++++++++++++++++++++++++++++++++
Date: Fri Jun 19 12:37:15 CEST 2015
User: introlabs
Dark Spectrum Present: Yes
Reference Spectrum Present: Yes
Number of Sampled Component Spectra: 1
Spectrometers: USB4H08886
Integration Time (usec): 745692 (USB4H08886)
Spectra Averaged: 5 (USB4H08886)
Boxcar Smoothing: 5 (USB4H08886)
Correct for Electrical Dark: Yes (USB4H08886)
Strobe/Lamp Enabled: No (USB4H08886)
Correct for Detector Non-linearity: Yes (USB4H08886)
Correct for Stray Light: Yes (USB4H08886)
Number of Pixels in Processed Spectrum: 3648
>>>>>Begin Processed Spectral Data<<<<<
178.14	-0.000
178.36	-0.000
178.57	-0.000
178.79	-0.000
179.01	-0.000
179.22	-0.000
179.44	-0.000
179.65	-0.000
179.87	-0.000
180.08	-0.000
180.30	-0.000
180.52	-0.000
180.73	-0.000
180.95	-0.000
181.16	-0.000
181.38	-0.000
181.59	-0.000
181.81	-0.000
182.03	-0.000
182.24	-0.000
182.46	-0.000
182.67	-0.000
182.89	-0.000
183.10	-0.000
183.32	-0.000
183.54	-0.000
183.75	-0.000
183.97	-0.000
184.18	-0.000
184.40	-0.000
184.61	-0.000
184.83	-0.000
185.04	-0.000
185.26	-0.000
185.48	-0.000
185.69	-0.000
185.91	-0.000
186.12	-0.000
186.34	-0.000
186.55	-0.000
186.77	-0.000
186.98	-0.000
187.20	-0.000
187.42	-0.000
187.63	-0.000
187.85	-0.000
188.06	-0.000
188.28	-0.000
188.49	-0.000
188.71	-0.000
188.92	-0.000
189.14	-0.000
189.36	-0.000
189.57	-0.000
189.79	-0.000
190.00	-0.000
190.22	-0.000
190.43	-0.000
190.65	-0.000
190.86	-0.000
191.08	-0.000
191.29	-0.000
191.51	-0.000
191.72	-0.000
191.94	-0.000
192.16	-0.000
192.37	-0.000
192.59	-0.000
192.80	-0.000
193.02	-0.000
193.23	-0.000
193.45	-0.000
193.66	-0.000
193.88	-0.000
194.09	-0.000
194.31	-0.000
194.52	-0.000
194.74	-0.000
194.95	-0.000
195.17	-0.000
195.38	-0.000
195.60	-0.000
195.81	-0.000
196.03	-0.000
196.25	-0.000
196.46	-0.000
196.68	-0.000
196.89	-0.000
197.11	-0.000
197.32	-0.000
197.54	-0.000
197.75	-0.000
197.97	-0.000
198.18	-0.000
198.40	-0.000
198.61	-0.000
198.83	-0.000
199.04	-0.000
199.26	-0.000
199.47	-0.000
199.69	-0.000
199.90	-0.000
200.12	-0.000
200.33	-0.000
200.55	-0.000
200.76	-0.000
200.98	-0.000
201.19	-0.000
201.41	-0.000
201.62	-0.000
201.84	-0.000
202.05	-0.000
202.27	-0.000
202.48	-0.000
202.70	-0.000
202.91	-0.000
203.13	-0.000
203.34	-0.000
203.56	-0.000
203.77	-0.000
203.99	-0.000
204.20	-0.000
204.42	-0.000
204.63	-0.000
204.85	-0.000
205.06	-0.000
205.28	-0.000
205.49	-0.000
205.71	-0.000
205.92	-0.000
206.14	-0.000
206.35	-0.000
206.56	-0.000
206.78	-0.000
206.99	-0.000
207.21	-0.000
207.42	-0.000
207.64	-0.000
207.85	-0.000
208.07	-0.000
208.28	-0.000
208.50	-0.000
208.71	-0.000
208.93	-0.000
209.14	-0.000
209.36	-0.000
209.57	-0.000
209.79	-0.000
210.00	-0.000
210.22	-0.000
210.43	-0.000
210.64	-0.000
210.86	-0.000
211.07	-0.000
211.29	-0.000
211.50	-0.000
211.72	-0.000
211.93	-0.000
212.15	-0.000
212.36	-0.000
212.58	-0.000
212.79	-0.000
213.01	-0.000
213.22	-0.000
213.43	-0.000
213.65	-0.000
213.86	-0.000
214.08	-0.000
214.29	-0.000
214.51	-0.000
214.72	-0.000
214.94	-0.000
215.15	-0.000
215.36	-0.000
215.58	-0.000
215.79	-0.000
216.01	-0.000
216.22	-0.000
216.44	-0.000
216.65	-0.000
216.87	-0.000
217.08	-0.000
217.29	-0.000
217.51	-0.000
217.72	-0.000
217.94	-0.000
218.15	-0.000
218.37	-0.000
218.58	-0.000
218.80	-0.000
219.01	-0.000
219.22	-0.000
219.44	-0.000
219.65	-0.000
219.87	-0.000
220.08	-0.000
220.30	-0.000
220.51	-0.000
220.72	-0.000
220.94	-0.000
221.15	-0.000
221.37	-0.000
221.58	-0.000
221.79	-0.000
222.01	-0.000
222.22	-0.000
222.44	-0.000
222.65	-0.000
222.87	-0.000
223.08	-0.000
223.29	-0.000
223.51	-0.000
223.72	-0.000
223.94	-0.000
224.15	-0.000
224.36	-0.000
224.58	-0.000
224.79	-0.000
225.01	-0.000
225.22	-0.000
225.44	-0.000
225.65	-0.000
225.86	-0.000
226.08	-0.000
226.29	-0.000
226.51	-0.000
226.72	-0.000
226.93	-0.000
227.15	-0.000
227.36	-0.000
227.58	-0.000
227.79	-0.000
228.00	-0.000
228.22	-0.000
228.43	-0.000
228.65	-0.000
228.86	-0.000
229.07	-0.000
229.29	-0.000
229.50	-0.000
229.72	-0.000
229.93	-0.000
230.14	-0.000
230.36	-0.000
230.57	-0.000
230.78	-0.000
231.00	-0.000
231.21	-0.000
231.43	-0.000
231.64	-0.000
231.85	-0.000
232.07	-0.000
232.28	-0.000
232.50	-0.000
232.71	-0.000
232.92	-0.000
233.14	-0.000
233.35	-0.000
233.56	-0.000
233.78	-0.000
233.99	-0.000
234.21	-0.000
234.42	-0.000
234.63	-0.000
234.85	-0.000
235.06	-0.000
235.27	-0.000
235.49	-0.000
235.70	-0.000
235.91	-0.000
236.13	-0.000
236.34	-0.000
236.56	-0.000
236.77	-0.000
236.98	-0.000
237.20	-0.000
237.41	-0.000
237.62	-0.000
237.84	-0.000
238.05	-0.000
238.26	-0.000
238.48	-0.000
238.69	-0.000
238.91	-0.000
239.12	-0.000
239.33	-0.000
239.55	-0.000
239.76	-0.000
239.97	-0.000
240.19	-0.000
240.40	-0.000
240.61	-0.000
240.83	-0.000
241.04	-0.000
241.25	-0.000
241.47	-0.000
241.68	-0.000
241.89	-0.000
242.11	-0.000
242.32	-0.000
242.53	-0.000
242.75	-0.000
242.96	-0.000
243.17	-0.000
243.39	-0.000
243.60	-0.000
243.81	-0.000
244.03	-0.000
244.24	-0.000
244.45	-0.000
244.67	-0.000
244.88	-0.000
245.09	-0.000
245.31	-0.000
245.52	-0.000
245.73	-0.000
245.95	-0.000
246.16	-0.000
246.37	-0.000
246.59	-0.000
246.80	-0.000
247.01	-0.000
247.23	-0.000
247.44	-0.000
247.65	-0.000
247.87	-0.000
248.08	-0.000
248.29	-0.000
248.51	-0.000
248.72	-0.000
248.93	-0.000
249.15	-0.000
249.36	-0.000
249.57	-0.000
249.78	-0.000
250.00	-0.000
250.21	-0.000
250.42	-0.000
250.64	-0.000
250.85	-0.000
251.06	-0.000
251.28	-0.000
251.49	-0.000
251.70	-0.000
251.92	-0.000
252.13	-0.000
252.34	-0.000
252.55	-0.000
252.77	-0.000
252.98	-0.000
253.19	-0.000
253.41	-0.000
253.62	-0.000
253.83	-0.000
254.05	-0.000
254.26	-0.000
254.47	-0.000
254.68	-0.000
254.90	-0.000
255.11	-0.000
255.32	-0.000
255.54	-0.000
255.75	-0.000
255.96	-0.000
256.17	-0.000
256.39	-0.000
256.60	-0.000
256.81	-0.000
257.03	-0.000
257.24	-0.000
257.45	-0.000
257.66	-0.000
257.88	-0.000
258.09	-0.000
258.30	-0.000
258.51	-0.000
258.73	-0.000
258.94	-0.000
259.15	-0.000
259.37	-0.000
259.58	-0.000
259.79	-0.000
260.00	-0.000
260.22	-0.000
260.43	-0.000
260.64	-0.000
260.85	-0.000
261.07	-0.000
261.28	-0.000
261.49	-0.000
261.71	-0.000
261.92	-0.000
262.13	-0.000
262.34	-0.000
262.56	-0.000
262.77	-0.000
262.98	-0.000
263.19	-0.000
263.41	-0.000
263.62	-0.000
263.83	-0.000
264.04	-0.000
264.26	-0.000
264.47	-0.000
264.68	-0.000
264.89	-0.000
265.11	-0.000
265.32	-0.000
265.53	-0.000
265.74	-0.000
265.96	-0.000
266.17	-0.000
266.38	-0.000
266.59	-0.000
266.81	-0.000
267.02	-0.000
267.23	-0.000
267.44	-0.000
267.65	-0.000
267.87	-0.000
268.08	-0.000
268.29	-0.000
268.50	-0.000
268.72	-0.000
268.93	-0.000
269.14	-0.000
269.35	-0.000
269.57	-0.000
269.78	-0.000
269.99	-0.000
270.20	-0.000
270.41	-0.000
270.63	-0.000
270.84	-0.000
271.05	-0.000
271.26	-0.000
271.48	-0.000
271.69	-0.000
271.90	-0.000
272.11	-0.000
272.32	-0.000
272.54	-0.000
272.75	-0.000
272.96	-0.000
273.17	-0.000
273.39	-0.000
273.60	-0.000
273.81	-0.000
274.02	-0.000
274.23	-0.000
274.45	-0.000
274.66	-0.000
274.87	-0.000
275.08	-0.000
275.29	-0.000
275.51	-0.000
275.72	-0.000
275.93	-0.000
276.14	-0.000
276.35	-0.000
276.57	-0.000
276.78	-0.000
276.99	-0.000
277.20	-0.000
277.41	-0.000
277.63	-0.000
277.84	-0.000
278.05	-0.000
278.26	-0.000
278.47	-0.000
278.69	-0.000
278.90	-0.000
279.11	-0.000
279.32	-0.000
279.53	-0.000
279.74	-0.000
279.96	-0.000
280.17	-0.000
280.38	-0.000
280.59	-0.000
280.80	-0.000
281.02	-0.000
281.23	-0.000
281.44	-0.000
281.65	-0.000
281.86	-0.000
282.07	-0.000
282.29	-0.000
282.50	-0.000
282.71	-0.000
282.92	-0.000
283.13	-0.000
283.35	-0.000
283.56	-0.000
283.77	-0.000
283.98	-0.000
284.19	-0.000
284.40	-0.000
284.62	-0.000
284.83	-0.000
285.04	-0.000
285.25	-0.000
285.46	-0.000
285.67	-0.000
285.88	-0.000
286.10	-0.000
286.31	-0.000
286.52	-0.000
286.73	-0.000
286.94	-0.000
287.15	-0.000
287.37	-0.000
287.58	-0.000
287.79	-0.000
288.00	-0.000
288.21	-0.000
288.42	-0.000
288.63	-0.000
288.85	-0.000
289.06	-0.000
289.27	-0.000
289.48	-0.000
289.69	-0.000
289.90	-0.000
290.11	-0.000
290.33	-0.000
290.54	-0.000
290.75	-0.000
290.96	-0.000
291.17	-0.000
291.38	-0.000
291.59	-0.000
291.81	-0.000
292.02	-0.000
292.23	-0.000
292.44	-0.000
292.65	-0.000
292.86	-0.000
293.07	-0.000
293.28	-0.000
293.50	-0.000
293.71	-0.000
293.92	-0.000
294.13	-0.000
294.34	-0.000
294.55	-0.000
294.76	-0.000
294.97	-0.000
295.19	-0.000
295.40	-0.000
295.61	-0.000
295.82	-0.000
296.03	-0.000
296.24	-0.000
296.45	2.120
296.66	1.725
296.87	1.734
297.09	1.831
297.30	2.029
297.51	1.650
297.72	1.601
297.93	1.686
298.14	1.658
298.35	1.594
298.56	1.578
298.77	1.704
298.99	1.680
299.20	1.632
299.41	1.605
299.62	1.572
299.83	1.562
300.04	1.498
300.25	1.492
300.46	1.532
300.67	1.508
300.88	1.439
301.10	1.443
301.31	1.517
301.52	1.461
301.73	1.408
301.94	1.409
302.15	1.430
302.36	1.387
302.57	1.328
302.78	1.338
302.99	1.381
303.20	1.402
303.41	1.317
303.63	1.299
303.84	1.313
304.05	1.304
304.26	1.250
304.47	1.257
304.68	1.269
304.89	1.259
305.10	1.214
305.31	1.203
305.52	1.240
305.73	1.232
305.94	1.195
306.15	1.189
306.37	1.216
306.58	1.221
306.79	1.191
307.00	1.207
307.21	1.247
307.42	1.238
307.63	1.203
307.84	1.173
308.05	1.207
308.26	1.208
308.47	1.181
308.68	1.176
308.89	1.180
309.10	1.175
309.31	1.136
309.52	1.128
309.73	1.147
309.95	1.141
310.16	1.114
310.37	1.104
310.58	1.122
310.79	1.122
311.00	1.112
311.21	1.112
311.42	1.115
311.63	1.110
311.84	1.091
312.05	1.089
312.26	1.109
312.47	1.119
312.68	1.094
312.89	1.078
313.10	1.086
313.31	1.064
313.52	1.063
313.73	1.064
313.94	1.072
314.15	1.054
314.36	1.033
314.57	1.029
314.78	1.020
314.99	1.016
315.21	1.004
315.42	1.011
315.63	1.027
315.84	1.007
316.05	0.993
316.26	0.999
316.47	1.020
316.68	1.015
316.89	0.995
317.10	1.013
317.31	1.022
317.52	1.022
317.73	0.998
317.94	0.998
318.15	1.039
318.36	1.036
318.57	1.018
318.78	1.008
318.99	1.044
319.20	1.040
319.41	1.008
319.62	1.009
319.83	1.022
320.04	1.017
320.25	1.000
320.46	0.969
320.67	0.976
320.88	0.972
321.09	0.955
321.30	0.942
321.51	0.956
321.72	0.955
321.93	0.939
322.14	0.933
322.35	0.959
322.56	0.961
322.77	0.948
322.98	0.958
323.19	0.968
323.40	0.974
323.61	0.951
323.82	0.947
324.03	0.953
324.24	0.949
324.45	0.936
324.66	0.918
324.87	0.918
325.08	0.917
325.29	0.896
325.50	0.894
325.71	0.899
325.92	0.908
326.13	0.895
326.34	0.895
326.55	0.906
326.76	0.904
326.97	0.893
327.18	0.887
327.39	0.912
327.60	0.915
327.80	0.909
328.01	0.908
328.22	0.908
328.43	0.912
328.64	0.899
328.85	0.903
329.06	0.905
329.27	0.904
329.48	0.900
329.69	0.882
329.90	0.892
330.11	0.885
330.32	0.878
330.53	0.872
330.74	0.872
330.95	0.870
331.16	0.855
331.37	0.861
331.58	0.864
331.79	0.863
332.00	0.853
332.21	0.847
332.42	0.851
332.63	0.843
332.83	0.837
333.04	0.838
333.25	0.851
333.46	0.850
333.67	0.837
333.88	0.838
334.09	0.848
334.30	0.845
334.51	0.836
334.72	0.833
334.93	0.838
335.14	0.838
335.35	0.831
335.56	0.826
335.77	0.836
335.98	0.835
336.18	0.829
336.39	0.823
336.60	0.827
336.81	0.827
337.02	0.825
337.23	0.828
337.44	0.832
337.65	0.833
337.86	0.822
338.07	0.817
338.28	0.822
338.49	0.819
338.70	0.811
338.91	0.818
339.11	0.825
339.32	0.820
339.53	0.808
339.74	0.806
339.95	0.804
340.16	0.803
340.37	0.794
340.58	0.793
340.79	0.799
341.00	0.799
341.21	0.788
341.41	0.790
341.62	0.793
341.83	0.794
342.04	0.789
342.25	0.798
342.46	0.804
342.67	0.803
342.88	0.796
343.09	0.795
343.30	0.803
343.50	0.806
343.71	0.795
343.92	0.795
344.13	0.800
344.34	0.799
344.55	0.784
344.76	0.782
344.97	0.788
345.18	0.786
345.38	0.782
345.59	0.777
345.80	0.777
346.01	0.775
346.22	0.771
346.43	0.765
346.64	0.775
346.85	0.774
347.06	0.767
347.26	0.768
347.47	0.774
347.68	0.770
347.89	0.765
348.10	0.761
348.31	0.770
348.52	0.768
348.73	0.765
348.93	0.761
349.14	0.764
349.35	0.764
349.56	0.758
349.77	0.753
349.98	0.759
350.19	0.757
350.39	0.752
350.60	0.748
350.81	0.764
351.02	0.763
351.23	0.758
351.44	0.761
351.65	0.765
351.86	0.762
352.06	0.760
352.27	0.760
352.48	0.762
352.69	0.762
352.90	0.756
353.11	0.743
353.31	0.751
353.52	0.747
353.73	0.738
353.94	0.739
354.15	0.745
354.36	0.746
354.57	0.737
354.77	0.739
354.98	0.739
355.19	0.739
355.40	0.737
355.61	0.742
355.82	0.748
356.02	0.748
356.23	0.740
356.44	0.742
356.65	0.747
356.86	0.748
357.07	0.740
357.27	0.743
357.48	0.747
357.69	0.744
357.90	0.729
358.11	0.726
358.32	0.731
358.52	0.735
358.73	0.725
358.94	0.727
359.15	0.733
359.36	0.734
359.56	0.729
359.77	0.726
359.98	0.732
360.19	0.732
360.40	0.728
360.61	0.728
360.81	0.727
361.02	0.728
361.23	0.719
361.44	0.717
361.65	0.718
361.85	0.718
362.06	0.715
362.27	0.717
362.48	0.718
362.69	0.721
362.89	0.715
363.10	0.717
363.31	0.722
363.52	0.725
363.73	0.720
363.93	0.720
364.14	0.723
364.35	0.726
364.56	0.715
364.77	0.717
364.97	0.721
365.18	0.721
365.39	0.715
365.60	0.711
365.81	0.713
366.01	0.712
366.22	0.709
366.43	0.709
366.64	0.712
366.84	0.717
367.05	0.713
367.26	0.712
367.47	0.715
367.68	0.715
367.88	0.712
368.09	0.712
368.30	0.716
368.51	0.715
368.71	0.714
368.92	0.717
369.13	0.716
369.34	0.716
369.55	0.714
369.75	0.714
369.96	0.721
370.17	0.721
370.38	0.716
370.58	0.716
370.79	0.722
371.00	0.720
371.21	0.711
371.41	0.716
371.62	0.720
371.83	0.717
372.04	0.714
372.24	0.707
372.45	0.708
372.66	0.709
372.87	0.704
373.07	0.701
373.28	0.703
373.49	0.706
373.70	0.697
373.90	0.696
374.11	0.705
374.32	0.705
374.53	0.704
374.73	0.704
374.94	0.708
375.15	0.709
375.36	0.705
375.56	0.714
375.77	0.714
375.98	0.715
376.19	0.712
376.39	0.705
376.60	0.710
376.81	0.710
377.02	0.707
377.22	0.705
377.43	0.705
377.64	0.706
377.84	0.696
378.05	0.700
378.26	0.706
378.47	0.705
378.67	0.701
378.88	0.698
379.09	0.699
379.30	0.698
379.50	0.695
379.71	0.698
379.92	0.702
380.12	0.701
380.33	0.692
380.54	0.688
380.75	0.696
380.95	0.697
381.16	0.695
381.37	0.695
381.57	0.697
381.78	0.698
381.99	0.697
382.20	0.696
382.40	0.700
382.61	0.701
382.82	0.697
383.02	0.689
383.23	0.692
383.44	0.692
383.64	0.690
383.85	0.692
384.06	0.696
384.27	0.693
384.47	0.690
384.68	0.690
384.89	0.695
385.09	0.695
385.30	0.694
385.51	0.693
385.71	0.697
385.92	0.696
386.13	0.694
386.33	0.694
386.54	0.697
386.75	0.695
386.95	0.691
387.16	0.687
387.37	0.691
387.58	0.690
387.78	0.688
387.99	0.685
388.20	0.688
388.40	0.686
388.61	0.681
388.82	0.683
389.02	0.686
389.23	0.686
389.44	0.683
389.64	0.683
389.85	0.695
390.06	0.694
390.26	0.694
390.47	0.693
390.68	0.695
390.88	0.694
391.09	0.689
391.30	0.689
391.50	0.690
391.71	0.689
391.92	0.687
392.12	0.679
392.33	0.680
392.53	0.680
392.74	0.679
392.95	0.679
393.15	0.681
393.36	0.683
393.57	0.680
393.77	0.683
393.98	0.685
394.19	0.684
394.39	0.682
394.60	0.684
394.81	0.686
395.01	0.684
395.22	0.682
395.43	0.682
395.63	0.687
395.84	0.688
396.04	0.683
396.25	0.686
396.46	0.688
396.66	0.686
396.87	0.683
397.08	0.680
397.28	0.682
397.49	0.683
397.69	0.678
397.90	0.674
398.11	0.675
398.31	0.676
398.52	0.671
398.73	0.671
398.93	0.671
399.14	0.670
399.34	0.669
399.55	0.670
399.76	0.670
399.96	0.672
400.17	0.670
400.37	0.668
400.58	0.675
400.79	0.676
400.99	0.673
401.20	0.678
401.41	0.680
401.61	0.681
401.82	0.686
402.02	0.685
402.23	0.686
402.44	0.685
402.64	0.685
402.85	0.679
403.05	0.679
403.26	0.678
403.47	0.671
403.67	0.670
403.88	0.671
404.08	0.665
404.29	0.663
404.50	0.662
404.70	0.664
404.91	0.662
405.11	0.659
405.32	0.658
405.52	0.660
405.73	0.659
405.94	0.657
406.14	0.659
406.35	0.662
406.55	0.662
406.76	0.659
406.97	0.660
407.17	0.663
407.38	0.663
407.58	0.661
407.79	0.663
407.99	0.666
408.20	0.667
408.41	0.663
408.61	0.661
408.82	0.663
409.02	0.662
409.23	0.660
409.43	0.659
409.64	0.661
409.84	0.660
410.05	0.656
410.26	0.655
410.46	0.655
410.67	0.654
410.87	0.655
411.08	0.655
411.28	0.657
411.49	0.658
411.69	0.655
411.90	0.656
412.11	0.658
412.31	0.659
412.52	0.657
412.72	0.658
412.93	0.660
413.13	0.659
413.34	0.655
413.54	0.656
413.75	0.659
413.95	0.658
414.16	0.655
414.37	0.657
414.57	0.659
414.78	0.661
414.98	0.659
415.19	0.660
415.39	0.658
415.60	0.660
415.80	0.659
416.01	0.658
416.21	0.660
416.42	0.660
416.62	0.655
416.83	0.655
417.03	0.655
417.24	0.656
417.44	0.653
417.65	0.653
417.86	0.654
418.06	0.652
418.27	0.649
418.47	0.651
418.68	0.652
418.88	0.653
419.09	0.651
419.29	0.651
419.50	0.652
419.70	0.652
419.91	0.650
420.11	0.648
420.32	0.650
420.52	0.650
420.73	0.649
420.93	0.650
421.14	0.652
421.34	0.651
421.55	0.647
421.75	0.647
421.96	0.649
422.16	0.649
422.37	0.648
422.57	0.645
422.78	0.648
422.98	0.644
423.19	0.642
423.39	0.640
423.60	0.644
423.80	0.645
424.01	0.643
424.21	0.645
424.42	0.647
424.62	0.647
424.83	0.646
425.03	0.647
425.23	0.649
425.44	0.649
425.64	0.649
425.85	0.649
426.05	0.650
426.26	0.650
426.46	0.646
426.67	0.645
426.87	0.651
427.08	0.651
427.28	0.648
427.49	0.649
427.69	0.651
427.90	0.650
428.10	0.646
428.31	0.646
428.51	0.648
428.71	0.648
428.92	0.649
429.12	0.646
429.33	0.648
429.53	0.651
429.74	0.655
429.94	0.655
430.15	0.655
430.35	0.656
430.56	0.653
430.76	0.653
430.96	0.654
431.17	0.651
431.37	0.648
431.58	0.646
431.78	0.644
431.99	0.638
432.19	0.639
432.40	0.641
432.60	0.642
432.80	0.645
433.01	0.643
433.21	0.643
433.42	0.646
433.62	0.646
433.83	0.646
434.03	0.648
434.23	0.651
434.44	0.651
434.64	0.648
434.85	0.653
435.05	0.654
435.26	0.654
435.46	0.653
435.66	0.652
435.87	0.652
436.07	0.652
436.28	0.647
436.48	0.645
436.69	0.644
436.89	0.644
437.09	0.638
437.30	0.638
437.50	0.638
437.71	0.650
437.91	0.649
438.11	0.651
438.32	0.655
438.52	0.656
438.73	0.654
438.93	0.653
439.13	0.653
439.34	0.657
439.54	0.654
439.75	0.654
439.95	0.645
440.15	0.649
440.36	0.647
440.56	0.645
440.77	0.646
440.97	0.647
441.17	0.646
441.38	0.647
441.58	0.645
441.79	0.645
441.99	0.643
442.19	0.643
442.40	0.642
442.60	0.641
442.81	0.638
443.01	0.639
443.21	0.640
443.42	0.640
443.62	0.638
443.82	0.638
444.03	0.641
444.23	0.641
444.44	0.640
444.64	0.640
444.84	0.641
445.05	0.641
445.25	0.638
445.45	0.639
445.66	0.642
445.86	0.641
446.06	0.641
446.27	0.641
446.47	0.644
446.68	0.643
446.88	0.641
447.08	0.641
447.29	0.644
447.49	0.644
447.69	0.644
447.90	0.642
448.10	0.647
448.30	0.644
448.51	0.646
448.71	0.643
448.91	0.646
449.12	0.645
449.32	0.647
449.52	0.645
449.73	0.649
449.93	0.648
450.14	0.648
450.34	0.647
450.54	0.650
450.75	0.647
450.95	0.646
451.15	0.646
451.36	0.648
451.56	0.645
451.76	0.643
451.97	0.641
452.17	0.642
452.37	0.640
452.58	0.637
452.78	0.637
452.98	0.639
453.19	0.639
453.39	0.639
453.59	0.638
453.79	0.640
454.00	0.641
454.20	0.639
454.40	0.640
454.61	0.642
454.81	0.643
455.01	0.640
455.22	0.641
455.42	0.644
455.62	0.642
455.83	0.641
456.03	0.644
456.23	0.645
456.44	0.646
456.64	0.644
456.84	0.645
457.04	0.646
457.25	0.645
457.45	0.642
457.65	0.640
457.86	0.641
458.06	0.640
458.26	0.636
458.47	0.635
458.67	0.636
458.87	0.637
459.07	0.634
459.28	0.637
459.48	0.640
459.68	0.641
459.89	0.640
460.09	0.639
460.29	0.641
460.49	0.642
460.70	0.641
460.90	0.641
461.10	0.642
461.31	0.642
461.51	0.638
461.71	0.639
461.91	0.640
462.12	0.640
462.32	0.638
462.52	0.639
462.72	0.643
462.93	0.643
463.13	0.641
463.33	0.642
463.53	0.643
463.74	0.643
463.94	0.638
464.14	0.639
464.35	0.641
464.55	0.641
464.75	0.639
464.95	0.636
465.16	0.639
465.36	0.638
465.56	0.637
465.76	0.637
465.97	0.638
466.17	0.639
466.37	0.636
466.57	0.637
466.78	0.639
466.98	0.639
467.18	0.637
467.38	0.636
467.59	0.638
467.79	0.639
467.99	0.638
468.19	0.639
468.39	0.643
468.60	0.643
468.80	0.641
469.00	0.642
469.20	0.644
469.41	0.644
469.61	0.643
469.81	0.643
470.01	0.643
470.22	0.643
470.42	0.641
470.62	0.638
470.82	0.639
471.02	0.639
471.23	0.636
471.43	0.637
471.63	0.639
471.83	0.638
472.04	0.636
472.24	0.635
472.44	0.640
472.64	0.639
472.84	0.638
473.05	0.638
473.25	0.641
473.45	0.640
473.65	0.638
473.85	0.639
474.06	0.641
474.26	0.641
474.46	0.642
474.66	0.639
474.86	0.640
475.07	0.641
475.27	0.638
475.47	0.636
475.67	0.637
475.87	0.639
476.08	0.635
476.28	0.636
476.48	0.638
476.68	0.636
476.88	0.633
477.09	0.635
477.29	0.637
477.49	0.637
477.69	0.635
477.89	0.636
478.09	0.636
478.30	0.638
478.50	0.634
478.70	0.634
478.90	0.635
479.10	0.638
479.31	0.638
479.51	0.636
479.71	0.637
479.91	0.637
480.11	0.636
480.31	0.637
480.52	0.636
480.72	0.636
480.92	0.634
481.12	0.633
481.32	0.631
481.52	0.630
481.72	0.630
481.93	0.633
482.13	0.634
482.33	0.634
482.53	0.630
482.73	0.631
482.93	0.632
483.14	0.631
483.34	0.631
483.54	0.631
483.74	0.631
483.94	0.630
484.14	0.626
484.34	0.626
484.55	0.627
484.75	0.628
484.95	0.626
485.15	0.626
485.35	0.627
485.55	0.626
485.75	0.624
485.96	0.624
486.16	0.626
486.36	0.626
486.56	0.624
486.76	0.624
486.96	0.624
487.16	0.624
487.36	0.622
487.57	0.622
487.77	0.623
487.97	0.624
488.17	0.622
488.37	0.620
488.57	0.621
488.77	0.622
488.97	0.620
489.18	0.619
489.38	0.622
489.58	0.622
489.78	0.621
489.98	0.621
490.18	0.621
490.38	0.622
490.58	0.621
490.78	0.621
490.98	0.624
491.19	0.624
491.39	0.623
491.59	0.622
491.79	0.625
491.99	0.625
492.19	0.625
492.39	0.628
492.59	0.628
492.79	0.630
492.99	0.629
493.20	0.629
493.40	0.630
493.60	0.632
493.80	0.629
494.00	0.627
494.20	0.628
494.40	0.628
494.60	0.625
494.80	0.630
495.00	0.630
495.20	0.628
495.40	0.627
495.61	0.629
495.81	0.629
496.01	0.632
496.21	0.633
496.41	0.632
496.61	0.632
496.81	0.631
497.01	0.626
497.21	0.625
497.41	0.627
497.61	0.626
497.81	0.623
498.01	0.624
498.21	0.621
498.41	0.620
498.61	0.620
498.82	0.621
499.02	0.623
499.22	0.624
499.42	0.623
499.62	0.624
499.82	0.625
500.02	0.627
500.22	0.625
500.42	0.628
500.62	0.629
500.82	0.628
501.02	0.626
501.22	0.626
501.42	0.627
501.62	0.629
501.82	0.628
502.02	0.629
502.22	0.628
502.42	0.630
502.62	0.628
502.82	0.628
503.02	0.629
503.22	0.628
503.42	0.626
503.63	0.625
503.83	0.623
504.03	0.622
504.23	0.621
504.43	0.621
504.63	0.622
504.83	0.622
505.03	0.621
505.23	0.623
505.43	0.625
505.63	0.626
505.83	0.626
506.03	0.627
506.23	0.630
506.43	0.630
506.63	0.629
506.83	0.628
507.03	0.630
507.23	0.630
507.43	0.627
507.63	0.628
507.83	0.628
508.03	0.628
508.23	0.627
508.43	0.625
508.63	0.627
508.83	0.628
509.03	0.628
509.23	0.627
509.43	0.629
509.63	0.630
509.83	0.628
510.03	0.631
510.23	0.633
510.43	0.634
510.63	0.635
510.83	0.635
511.03	0.636
511.23	0.634
511.43	0.633
511.63	0.634
511.83	0.636
512.03	0.636
512.22	0.632
512.42	0.632
512.62	0.633
512.82	0.633
513.02	0.632
513.22	0.632
513.42	0.635
513.62	0.638
513.82	0.636
514.02	0.636
514.22	0.637
514.42	0.638
514.62	0.637
514.82	0.636
515.02	0.639
515.22	0.642
515.42	0.640
515.62	0.643
515.82	0.641
516.02	0.643
516.22	0.641
516.42	0.643
516.62	0.645
516.82	0.646
517.01	0.645
517.21	0.644
517.41	0.648
517.61	0.648
517.81	0.644
518.01	0.644
518.21	0.645
518.41	0.644
518.61	0.643
518.81	0.643
519.01	0.644
519.21	0.644
519.41	0.642
519.61	0.637
519.81	0.640
520.00	0.641
520.20	0.640
520.40	0.643
520.60	0.644
520.80	0.643
521.00	0.643
521.20	0.644
521.40	0.650
521.60	0.650
521.80	0.649
522.00	0.649
522.20	0.652
522.39	0.651
522.59	0.647
522.79	0.650
522.99	0.652
523.19	0.651
523.39	0.648
523.59	0.646
523.79	0.649
523.99	0.651
524.19	0.649
524.38	0.648
524.58	0.650
524.78	0.651
524.98	0.648
525.18	0.651
525.38	0.652
525.58	0.653
525.78	0.650
525.98	0.648
526.18	0.650
526.37	0.649
526.57	0.650
526.77	0.650
526.97	0.651
527.17	0.651
527.37	0.647
527.57	0.649
527.77	0.651
527.96	0.652
528.16	0.650
528.36	0.650
528.56	0.653
528.76	0.651
528.96	0.649
529.16	0.650
529.36	0.654
529.55	0.654
529.75	0.650
529.95	0.651
530.15	0.653
530.35	0.655
530.55	0.653
530.75	0.653
530.94	0.655
531.14	0.656
531.34	0.653
531.54	0.651
531.74	0.655
531.94	0.658
532.13	0.656
532.33	0.657
532.53	0.657
532.73	0.656
532.93	0.653
533.13	0.655
533.33	0.655
533.52	0.656
533.72	0.659
533.92	0.656
534.12	0.655
534.32	0.655
534.52	0.652
534.71	0.653
534.91	0.657
535.11	0.659
535.31	0.656
535.51	0.659
535.71	0.661
535.90	0.658
536.10	0.660
536.30	0.662
536.50	0.664
536.70	0.664
536.89	0.661
537.09	0.661
537.29	0.663
537.49	0.663
537.69	0.661
537.89	0.661
538.08	0.661
538.28	0.659
538.48	0.659
538.68	0.661
538.88	0.663
539.07	0.663
539.27	0.661
539.47	0.660
539.67	0.660
539.87	0.662
540.06	0.659
540.26	0.661
540.46	0.664
540.66	0.661
540.86	0.657
541.05	0.657
541.25	0.660
541.45	0.660
541.65	0.658
541.84	0.660
542.04	0.662
542.24	0.663
542.44	0.660
542.64	0.661
542.83	0.664
543.03	0.665
543.23	0.662
543.43	0.663
543.62	0.665
543.82	0.665
544.02	0.663
544.22	0.663
544.42	0.667
544.61	0.667
544.81	0.664
545.01	0.663
545.21	0.665
545.40	0.665
545.60	0.663
545.80	0.666
546.00	0.667
546.19	0.666
546.39	0.664
546.59	0.662
546.79	0.663
546.98	0.664
547.18	0.663
547.38	0.664
547.58	0.668
547.77	0.668
547.97	0.664
548.17	0.665
548.37	0.666
548.56	0.666
548.76	0.665
548.96	0.667
549.16	0.671
549.35	0.670
549.55	0.667
549.75	0.668
549.95	0.672
550.14	0.672
550.34	0.670
550.54	0.674
550.73	0.679
550.93	0.680
551.13	0.675
551.33	0.674
551.52	0.675
551.72	0.676
551.92	0.673
552.12	0.673
552.31	0.675
552.51	0.675
552.71	0.670
552.90	0.670
553.10	0.671
553.30	0.672
553.50	0.670
553.69	0.672
553.89	0.673
554.09	0.673
554.28	0.669
554.48	0.671
554.68	0.674
554.87	0.675
555.07	0.671
555.27	0.671
555.47	0.673
555.66	0.673
555.86	0.671
556.06	0.674
556.25	0.676
556.45	0.684
556.65	0.681
556.84	0.685
557.04	0.688
557.24	0.690
557.43	0.689
557.63	0.691
557.83	0.694
558.02	0.695
558.22	0.697
558.42	0.697
558.61	0.690
558.81	0.691
559.01	0.686
559.21	0.685
559.40	0.687
559.60	0.687
559.80	0.682
559.99	0.682
560.19	0.684
560.39	0.679
560.58	0.676
560.78	0.676
560.97	0.680
561.17	0.679
561.37	0.676
561.56	0.677
561.76	0.679
561.96	0.679
562.15	0.677
562.35	0.680
562.55	0.682
562.74	0.682
562.94	0.681
563.14	0.678
563.33	0.679
563.53	0.680
563.73	0.676
563.92	0.678
564.12	0.681
564.31	0.683
564.51	0.680
564.71	0.682
564.90	0.685
565.10	0.686
565.30	0.689
565.49	0.690
565.69	0.693
565.89	0.693
566.08	0.689
566.28	0.691
566.47	0.693
566.67	0.690
566.87	0.687
567.06	0.688
567.26	0.694
567.46	0.689
567.65	0.687
567.85	0.689
568.04	0.693
568.24	0.692
568.44	0.688
568.63	0.686
568.83	0.689
569.02	0.687
569.22	0.682
569.42	0.679
569.61	0.683
569.81	0.681
570.00	0.678
570.20	0.679
570.40	0.681
570.59	0.681
570.79	0.678
570.98	0.676
571.18	0.678
571.38	0.678
571.57	0.674
571.77	0.672
571.96	0.676
572.16	0.674
572.35	0.669
572.55	0.670
572.75	0.669
572.94	0.669
573.14	0.667
573.33	0.667
573.53	0.669
573.73	0.668
573.92	0.665
574.12	0.663
574.31	0.666
574.51	0.668
574.70	0.663
574.90	0.665
575.09	0.667
575.29	0.668
575.49	0.664
575.68	0.665
575.88	0.668
576.07	0.670
576.27	0.667
576.46	0.666
576.66	0.665
576.86	0.665
577.05	0.663
577.25	0.661
577.44	0.663
577.64	0.663
577.83	0.661
578.03	0.661
578.22	0.660
578.42	0.659
578.61	0.657
578.81	0.658
579.00	0.659
579.20	0.658
579.40	0.657
579.59	0.655
579.79	0.656
579.98	0.655
580.18	0.655
580.37	0.655
580.57	0.658
580.76	0.663
580.96	0.661
581.15	0.661
581.35	0.663
581.54	0.663
581.74	0.661
581.93	0.663
582.13	0.665
582.32	0.662
582.52	0.660
582.71	0.660
582.91	0.657
583.10	0.657
583.30	0.655
583.49	0.655
583.69	0.659
583.88	0.661
584.08	0.659
584.27	0.661
584.47	0.664
584.66	0.664
584.86	0.663
585.05	0.664
585.25	0.667
585.44	0.666
585.64	0.664
585.83	0.661
586.03	0.662
586.22	0.661
586.42	0.657
586.61	0.659
586.81	0.662
587.00	0.663
587.20	0.661
587.39	0.662
587.59	0.665
587.78	0.666
587.98	0.667
588.17	0.667
588.37	0.670
588.56	0.673
588.76	0.668
588.95	0.668
589.15	0.672
589.34	0.674
589.54	0.672
589.73	0.672
589.92	0.675
590.12	0.674
590.31	0.671
590.51	0.676
590.70	0.677
590.90	0.678
591.09	0.676
591.29	0.674
591.48	0.675
591.68	0.676
591.87	0.674
592.06	0.673
592.26	0.676
592.45	0.676
592.65	0.670
592.84	0.669
593.04	0.672
593.23	0.674
593.43	0.671
593.62	0.671
593.81	0.672
594.01	0.672
594.20	0.669
594.40	0.669
594.59	0.672
594.79	0.673
594.98	0.671
595.17	0.669
595.37	0.670
595.56	0.672
595.76	0.671
595.95	0.672
596.14	0.676
596.34	0.676
596.53	0.673
596.73	0.674
596.92	0.676
597.12	0.678
597.31	0.677
597.50	0.677
597.70	0.680
597.89	0.679
598.09	0.674
598.28	0.675
598.47	0.678
598.67	0.678
598.86	0.673
599.06	0.676
599.25	0.677
599.44	0.675
599.64	0.673
599.83	0.671
600.03	0.675
600.22	0.676
600.41	0.676
600.61	0.674
600.80	0.677
601.00	0.678
601.19	0.673
601.38	0.671
601.58	0.674
601.77	0.675
601.96	0.677
602.16	0.677
602.35	0.686
602.55	0.682
602.74	0.682
602.93	0.683
603.13	0.689
603.32	0.689
603.51	0.688
603.71	0.691
603.90	0.693
604.09	0.693
604.29	0.689
604.48	0.683
604.68	0.685
604.87	0.684
605.06	0.681
605.26	0.677
605.45	0.679
605.64	0.678
605.84	0.673
606.03	0.673
606.22	0.673
606.42	0.672
606.61	0.669
606.80	0.669
607.00	0.672
607.19	0.673
607.38	0.671
607.58	0.672
607.77	0.675
607.96	0.675
608.16	0.673
608.35	0.678
608.54	0.682
608.74	0.685
608.93	0.690
609.12	0.692
609.32	0.695
609.51	0.698
609.70	0.696
609.90	0.698
610.09	0.703
610.28	0.708
610.48	0.701
610.67	0.702
610.86	0.703
611.06	0.697
611.25	0.695
611.44	0.695
611.64	0.696
611.83	0.699
612.02	0.694
612.21	0.693
612.41	0.692
612.60	0.691
612.79	0.687
612.99	0.686
613.18	0.689
613.37	0.687
613.57	0.684
613.76	0.685
613.95	0.683
614.14	0.684
614.34	0.680
614.53	0.682
614.72	0.686
614.92	0.686
615.11	0.683
615.30	0.681
615.49	0.683
615.69	0.686
615.88	0.682
616.07	0.684
616.26	0.687
616.46	0.689
616.65	0.685
616.84	0.684
617.04	0.685
617.23	0.688
617.42	0.688
617.61	0.692
617.81	0.693
618.00	0.694
618.19	0.692
618.38	0.695
618.58	0.699
618.77	0.699
618.96	0.698
619.15	0.700
619.35	0.703
619.54	0.703
619.73	0.697
619.92	0.699
620.12	0.704
620.31	0.704
620.50	0.699
620.69	0.699
620.89	0.703
621.08	0.703
621.27	0.702
621.46	0.701
621.66	0.706
621.85	0.707
622.04	0.702
622.23	0.703
622.43	0.703
622.62	0.703
622.81	0.702
623.00	0.702
623.19	0.707
623.39	0.707
623.58	0.703
623.77	0.702
623.96	0.706
624.16	0.707
624.35	0.701
624.54	0.705
624.73	0.710
624.92	0.708
625.12	0.705
625.31	0.705
625.50	0.709
625.69	0.710
625.88	0.705
626.08	0.703
626.27	0.706
626.46	0.707
626.65	0.702
626.84	0.703
627.04	0.708
627.23	0.708
627.42	0.702
627.61	0.704
627.80	0.708
628.00	0.708
628.19	0.706
628.38	0.710
628.57	0.714
628.76	0.713
628.96	0.709
629.15	0.710
629.34	0.714
629.53	0.714
629.72	0.708
629.91	0.709
630.11	0.715
630.30	0.715
630.49	0.716
630.68	0.716
630.87	0.721
631.06	0.723
631.26	0.717
631.45	0.719
631.64	0.728
631.83	0.730
632.02	0.726
632.21	0.725
632.41	0.734
632.60	0.729
632.79	0.726
632.98	0.727
633.17	0.729
633.36	0.731
633.55	0.726
633.75	0.722
633.94	0.725
634.13	0.725
634.32	0.721
634.51	0.715
634.70	0.718
634.89	0.719
635.09	0.714
635.28	0.715
635.47	0.718
635.66	0.721
635.85	0.715
636.04	0.717
636.23	0.724
636.43	0.725
636.62	0.723
636.81	0.722
637.00	0.725
637.19	0.728
637.38	0.723
637.57	0.723
637.76	0.726
637.95	0.727
638.15	0.722
638.34	0.719
638.53	0.724
638.72	0.725
638.91	0.721
639.10	0.719
639.29	0.719
639.48	0.720
639.67	0.719
639.87	0.717
640.06	0.724
640.25	0.723
640.44	0.722
640.63	0.722
640.82	0.724
641.01	0.725
641.20	0.724
641.39	0.726
641.58	0.730
641.78	0.729
641.97	0.723
642.16	0.738
642.35	0.739
642.54	0.739
642.73	0.733
642.92	0.731
643.11	0.736
643.30	0.735
643.49	0.730
643.68	0.731
643.87	0.734
644.06	0.735
644.25	0.712
644.45	0.715
644.64	0.717
644.83	0.718
645.02	0.713
645.21	0.712
645.40	0.715
645.59	0.715
645.78	0.708
645.97	0.710
646.16	0.713
646.35	0.713
646.54	0.710
646.73	0.711
646.92	0.714
647.11	0.714
647.30	0.709
647.49	0.711
647.68	0.712
647.88	0.711
648.07	0.703
648.26	0.706
648.45	0.709
648.64	0.705
648.83	0.701
649.02	0.703
649.21	0.715
649.40	0.713
649.59	0.707
649.78	0.707
649.97	0.723
650.16	0.723
650.35	0.715
650.54	0.717
650.73	0.727
650.92	0.724
651.11	0.716
651.30	0.714
651.49	0.719
651.68	0.721
651.87	0.717
652.06	0.705
652.25	0.709
652.44	0.710
652.63	0.704
652.82	0.701
653.01	0.699
653.20	0.696
653.39	0.683
653.58	0.680
653.77	0.679
653.96	0.674
654.15	0.666
654.34	0.665
654.53	0.662
654.72	0.658
654.91	0.649
655.10	0.646
655.29	0.645
655.48	0.644
655.67	0.639
655.86	0.636
656.05	0.636
656.24	0.635
656.43	0.630
656.62	0.629
656.81	0.631
657.00	0.631
657.19	0.630
657.38	0.630
657.57	0.631
657.76	0.634
657.95	0.632
658.14	0.636
658.33	0.640
658.51	0.646
658.70	0.647
658.89	0.647
659.08	0.655
659.27	0.661
659.46	0.660
659.65	0.666
659.84	0.669
660.03	0.672
660.22	0.672
660.41	0.676
660.60	0.676
660.79	0.678
660.98	0.683
661.17	0.682
661.36	0.682
661.55	0.683
661.74	0.680
661.92	0.684
662.11	0.688
662.30	0.686
662.49	0.678
662.68	0.678
662.87	0.682
663.06	0.675
663.25	0.676
663.44	0.676
663.63	0.678
663.82	0.675
664.01	0.669
664.20	0.667
664.38	0.670
664.57	0.670
664.76	0.669
664.95	0.670
665.14	0.676
665.33	0.671
665.52	0.677
665.71	0.681
665.90	0.681
666.09	0.682
666.28	0.679
666.46	0.678
666.65	0.680
666.84	0.678
667.03	0.672
667.22	0.670
667.41	0.673
667.60	0.663
667.79	0.655
667.98	0.658
668.16	0.659
668.35	0.658
668.54	0.654
668.73	0.656
668.92	0.656
669.11	0.655
669.30	0.647
669.49	0.643
669.67	0.645
669.86	0.647
670.05	0.644
670.24	0.641
670.43	0.639
670.62	0.638
670.81	0.632
671.00	0.633
671.18	0.634
671.37	0.633
671.56	0.631
671.75	0.631
671.94	0.627
672.13	0.625
672.32	0.620
672.50	0.619
672.69	0.620
672.88	0.620
673.07	0.616
673.26	0.618
673.45	0.621
673.63	0.621
673.82	0.616
674.01	0.618
674.20	0.619
674.39	0.617
674.58	0.616
674.76	0.615
674.95	0.615
675.14	0.614
675.33	0.609
675.52	0.607
675.71	0.607
675.89	0.606
676.08	0.602
676.27	0.602
676.46	0.604
676.65	0.603
676.84	0.602
677.02	0.603
677.21	0.606
677.40	0.605
677.59	0.602
677.78	0.604
677.96	0.607
678.15	0.606
678.34	0.604
678.53	0.604
678.72	0.605
678.90	0.602
679.09	0.597
679.28	0.594
679.47	0.594
679.66	0.594
679.84	0.590
680.03	0.588
680.22	0.587
680.41	0.589
680.60	0.585
680.78	0.584
680.97	0.587
681.16	0.588
681.35	0.586
681.53	0.585
681.72	0.587
681.91	0.589
682.10	0.586
682.29	0.589
682.47	0.587
682.66	0.586
682.85	0.584
683.04	0.581
683.22	0.580
683.41	0.582
683.60	0.581
683.79	0.581
683.97	0.581
684.16	0.580
684.35	0.575
684.54	0.576
684.72	0.577
684.91	0.578
685.10	0.576
685.29	0.578
685.47	0.576
685.66	0.575
685.85	0.571
686.04	0.570
686.22	0.573
686.41	0.576
686.60	0.573
686.79	0.576
686.97	0.577
687.16	0.579
687.35	0.575
687.54	0.580
687.72	0.584
687.91	0.584
688.10	0.585
688.29	0.585
688.47	0.583
688.66	0.583
688.85	0.579
689.03	0.576
689.22	0.581
689.41	0.582
689.60	0.576
689.78	0.573
689.97	0.574
690.16	0.571
690.34	0.567
690.53	0.567
690.72	0.568
690.91	0.566
691.09	0.564
691.28	0.558
691.47	0.556
691.65	0.555
691.84	0.552
692.03	0.551
692.21	0.549
692.40	0.548
692.59	0.546
692.77	0.545
692.96	0.547
693.15	0.548
693.34	0.545
693.52	0.546
693.71	0.546
693.90	0.547
694.08	0.548
694.27	0.549
694.46	0.560
694.64	0.560
694.83	0.559
695.02	0.558
695.20	0.558
695.39	0.557
695.58	0.556
695.76	0.556
695.95	0.557
696.14	0.556
696.32	0.553
696.51	0.543
696.70	0.544
696.88	0.544
697.07	0.543
697.26	0.544
697.44	0.545
697.63	0.544
697.81	0.541
698.00	0.540
698.19	0.541
698.37	0.541
698.56	0.540
698.75	0.541
698.93	0.541
699.12	0.540
699.31	0.539
699.49	0.539
699.68	0.540
699.87	0.543
700.05	0.543
700.24	0.541
700.42	0.543
700.61	0.542
700.80	0.539
700.98	0.540
701.17	0.542
701.36	0.541
701.54	0.540
701.73	0.541
701.91	0.539
702.10	0.538
702.29	0.536
702.47	0.536
702.66	0.538
702.84	0.539
703.03	0.537
703.22	0.538
703.40	0.539
703.59	0.540
703.77	0.539
703.96	0.539
704.15	0.541
704.33	0.541
704.52	0.539
704.70	0.538
704.89	0.538
705.08	0.536
705.26	0.531
705.45	0.531
705.63	0.531
705.82	0.528
706.00	0.526
706.19	0.525
706.38	0.525
706.56	0.525
706.75	0.523
706.93	0.521
707.12	0.524
707.30	0.524
707.49	0.521
707.68	0.519
707.86	0.519
708.05	0.519
708.23	0.517
708.42	0.518
708.60	0.520
708.79	0.520
708.98	0.519
709.16	0.518
709.35	0.521
709.53	0.525
709.72	0.524
709.90	0.525
710.09	0.528
710.27	0.530
710.46	0.533
710.64	0.532
710.83	0.534
711.02	0.535
711.20	0.532
711.39	0.530
711.57	0.528
711.76	0.529
711.94	0.526
712.13	0.526
712.31	0.526
712.50	0.521
712.68	0.517
712.87	0.518
713.05	0.519
713.24	0.519
713.42	0.518
713.61	0.519
713.79	0.520
713.98	0.521
714.16	0.521
714.35	0.521
714.54	0.523
714.72	0.523
714.91	0.520
715.09	0.526
715.28	0.531
715.46	0.530
715.65	0.527
715.83	0.527
716.02	0.530
716.20	0.527
716.39	0.525
716.57	0.527
716.76	0.530
716.94	0.531
717.12	0.522
717.31	0.523
717.49	0.527
717.68	0.530
717.86	0.529
718.05	0.531
718.23	0.534
718.42	0.536
718.60	0.537
718.79	0.544
718.97	0.547
719.16	0.547
719.34	0.544
719.53	0.544
719.71	0.544
719.90	0.546
720.08	0.542
720.27	0.543
720.45	0.544
720.63	0.542
720.82	0.536
721.00	0.539
721.19	0.544
721.37	0.542
721.56	0.542
721.74	0.545
721.93	0.555
722.11	0.562
722.30	0.559
722.48	0.563
722.66	0.565
722.85	0.564
723.03	0.564
723.22	0.562
723.40	0.566
723.59	0.564
723.77	0.568
723.95	0.561
724.14	0.564
724.32	0.567
724.51	0.566
724.69	0.567
724.88	0.567
725.06	0.565
725.24	0.564
725.43	0.567
725.61	0.571
725.80	0.564
725.98	0.561
726.16	0.558
726.35	0.564
726.53	0.563
726.72	0.562
726.90	0.573
727.09	0.575
727.27	0.582
727.45	0.576
727.64	0.585
727.82	0.595
728.01	0.599
728.19	0.593
728.37	0.598
728.56	0.603
728.74	0.610
728.92	0.594
729.11	0.598
729.29	0.597
729.48	0.600
729.66	0.589
729.84	0.589
730.03	0.596
730.21	0.599
730.40	0.589
730.58	0.590
730.76	0.590
730.95	0.593
731.13	0.591
731.31	0.605
731.50	0.615
731.68	0.618
731.86	0.612
732.05	0.626
732.23	0.631
732.42	0.634
732.60	0.636
732.78	0.642
732.97	0.665
733.15	0.671
733.33	0.658
733.52	0.665
733.70	0.678
733.88	0.687
734.07	0.672
734.25	0.699
734.43	0.709
734.62	0.712
734.80	0.703
734.98	0.692
735.17	0.702
735.35	0.708
735.53	0.695
735.72	0.699
735.90	0.727
736.08	0.744
736.27	0.717
736.45	0.730
736.63	0.746
736.82	0.758
737.00	0.754
737.18	0.766
737.37	0.804
737.55	0.828
737.73	0.818
737.92	0.816
738.10	0.818
738.28	0.840
738.46	0.823
738.65	0.837
738.83	0.862
739.01	0.927
739.20	0.909
739.38	0.891
739.56	0.882
739.75	0.889
739.93	0.850
740.11	0.879
740.29	0.881
740.48	0.892
740.66	0.861
740.84	0.856
741.03	0.821
741.21	0.836
741.39	0.811
741.57	0.831
741.76	0.851
741.94	0.859
742.12	0.816
742.31	0.826
742.49	0.850
742.67	0.880
742.85	0.890
743.04	0.891
743.22	0.905
743.40	0.968
743.58	0.939
743.77	0.962
743.95	1.011
744.13	1.069
744.31	1.033
744.50	1.029
744.68	1.040
744.86	1.013
745.04	1.030
745.23	1.109
745.41	1.095
745.59	1.101
745.77	1.049
745.96	1.030
746.14	1.045
746.32	1.041
746.50	1.021
746.69	1.000
746.87	1.019
747.05	0.993
747.23	0.901
747.42	0.885
747.60	0.931
747.78	0.937
747.96	0.974
748.14	0.923
748.33	0.969
748.51	0.961
748.69	0.942
748.87	0.980
749.06	0.986
749.24	0.992
749.42	0.963
749.60	0.934
749.78	0.953
749.97	0.896
750.15	0.887
750.33	0.887
750.51	0.927
750.69	0.935
750.88	0.928
751.06	0.937
751.24	0.977
751.42	0.967
751.60	0.948
751.79	1.032
751.97	1.100
752.15	1.102
752.33	1.046
752.51	1.123
752.69	1.156
752.88	1.110
753.06	1.163
753.24	1.125
753.42	1.191
753.60	1.453
753.78	1.206
753.97	1.222
754.15	1.252
754.33	1.296
754.51	1.111
754.69	1.092
754.87	1.141
755.06	1.052
755.24	1.047
755.42	1.050
755.60	0.942
755.78	0.951
755.96	0.886
756.15	0.888
756.33	0.902
756.51	0.925
756.69	0.901
756.87	0.864
757.05	0.892
757.23	0.873
757.42	0.832
757.60	0.833
757.78	0.826
757.96	0.824
758.14	0.802
758.32	0.784
758.50	0.805
758.69	0.802
758.87	0.791
759.05	0.795
759.23	0.812
759.41	0.817
759.59	0.804
759.77	0.831
759.95	0.866
760.13	0.924
760.32	0.919
760.50	0.910
760.68	0.947
760.86	0.947
761.04	0.905
761.22	0.907
761.40	0.963
761.58	0.962
761.76	0.924
761.95	0.902
762.13	0.853
762.31	0.850
762.49	0.811
762.67	0.830
762.85	0.849
763.03	0.844
763.21	0.818
763.39	0.799
763.57	0.807
763.75	0.800
763.94	0.781
764.12	0.781
764.30	0.812
764.48	0.819
764.66	0.776
764.84	0.771
765.02	0.816
765.20	0.827
765.38	0.799
765.56	0.802
765.74	0.852
765.92	0.857
766.10	0.867
766.28	0.861
766.46	0.896
766.65	0.893
766.83	0.879
767.01	0.862
767.19	0.874
767.37	0.877
767.55	0.859
767.73	0.833
767.91	0.842
768.09	0.828
768.27	0.808
768.45	0.795
768.63	0.807
768.81	0.807
768.99	0.776
769.17	0.802
769.35	0.821
769.53	0.820
769.71	0.796
769.89	0.803
770.07	0.814
770.25	0.797
770.43	0.773
770.61	0.800
770.79	0.809
770.97	0.819
771.15	0.783
771.33	0.788
771.51	0.795
771.69	0.810
771.87	0.811
772.05	0.817
772.24	0.833
772.42	0.843
772.60	0.812
772.78	0.884
772.96	0.919
773.14	0.913
773.32	0.882
773.49	0.890
773.67	0.894
773.85	0.872
774.03	0.852
774.21	0.888
774.39	0.907
774.57	0.937
774.75	0.844
774.93	0.843
775.11	0.870
775.29	0.879
775.47	0.877
775.65	0.885
775.83	0.910
776.01	0.938
776.19	0.873
776.37	0.875
776.55	0.879
776.73	0.877
776.91	0.864
777.09	0.848
777.27	0.850
777.45	0.839
777.63	0.810
777.81	0.807
777.99	0.796
778.17	0.799
778.35	0.770
778.53	0.758
778.71	0.769
778.89	0.755
779.07	0.741
779.24	0.748
779.42	0.749
779.60	0.770
779.78	0.762
779.96	0.767
780.14	0.779
780.32	0.803
780.50	0.779
780.68	0.778
780.86	0.773
781.04	0.792
781.22	0.791
781.40	0.805
781.58	0.799
781.75	0.791
781.93	0.769
782.11	0.770
782.29	0.756
782.47	0.756
782.65	0.739
782.83	0.769
783.01	0.767
783.19	0.760
783.37	0.740
783.55	0.742
783.72	0.765
783.90	0.776
784.08	0.762
784.26	0.775
784.44	0.798
784.62	0.803
784.80	0.762
784.98	0.765
785.16	0.773
785.33	0.788
785.51	0.766
785.69	0.750
785.87	0.754
786.05	0.765
786.23	0.759
786.41	0.756
786.59	0.765
786.77	0.764
786.94	0.746
787.12	0.747
787.30	0.754
787.48	0.754
787.66	0.739
787.84	0.737
788.02	0.727
788.19	0.726
788.37	0.708
788.55	0.710
788.73	0.715
788.91	0.709
789.09	0.693
789.27	0.678
789.44	0.694
789.62	0.703
789.80	0.712
789.98	0.740
790.16	0.726
790.34	0.723
790.51	0.708
790.69	0.728
790.87	0.739
791.05	0.733
791.23	0.726
791.41	0.726
791.58	0.733
791.76	0.709
791.94	0.674
792.12	0.684
792.30	0.689
792.48	0.687
792.65	0.679
792.83	0.687
793.01	0.698
793.19	0.697
793.37	0.677
793.54	0.675
793.72	0.690
793.90	0.690
794.08	0.676
794.26	0.681
794.43	0.693
794.61	0.674
794.79	0.659
794.97	0.659
795.15	0.667
795.32	0.673
795.50	0.658
795.68	0.654
795.86	0.659
796.04	0.663
796.21	0.652
796.39	0.649
796.57	0.667
796.75	0.675
796.92	0.674
797.10	0.679
797.28	0.685
797.46	0.688
797.64	0.686
797.81	0.693
797.99	0.698
798.17	0.703
798.35	0.693
798.52	0.695
798.70	0.692
798.88	0.700
799.06	0.697
799.23	0.698
799.41	0.708
799.59	0.700
799.77	0.686
799.94	0.697
800.12	0.708
800.30	0.727
800.48	0.723
800.65	0.725
800.83	0.716
801.01	0.707
801.19	0.705
801.36	0.702
801.54	0.709
801.72	0.720
801.90	0.703
802.07	0.699
802.25	0.685
802.43	0.669
802.60	0.663
802.78	0.671
802.96	0.678
803.14	0.669
803.31	0.663
803.49	0.664
803.67	0.662
803.84	0.665
804.02	0.654
804.20	0.658
804.38	0.664
804.55	0.663
804.73	0.645
804.91	0.645
805.08	0.659
805.26	0.656
805.44	0.716
805.61	0.720
805.79	0.722
805.97	0.720
806.15	0.710
806.32	0.707
806.50	0.716
806.68	0.717
806.85	0.706
807.03	0.699
807.21	0.723
807.38	0.656
807.56	0.642
807.74	0.653
807.91	0.663
808.09	0.665
808.27	0.682
808.44	0.710
808.62	0.726
808.80	0.729
808.97	0.719
809.15	0.711
809.33	0.733
809.50	0.741
809.68	0.721
809.86	0.729
810.03	0.769
810.21	0.746
810.39	0.724
810.56	0.728
810.74	0.757
810.91	0.840
811.09	0.823
811.27	0.844
811.44	0.857
811.62	0.861
811.80	0.840
811.97	0.804
812.15	0.804
812.33	0.800
812.50	0.781
812.68	0.768
812.85	0.708
813.03	0.710
813.21	0.675
813.38	0.667
813.56	0.673
813.74	0.684
813.91	0.689
814.09	0.723
814.26	0.718
814.44	0.720
814.62	0.706
814.79	0.710
814.97	0.718
815.14	0.721
815.32	0.723
815.50	0.743
815.67	0.749
815.85	0.738
816.02	0.722
816.20	0.731
816.38	0.751
816.55	0.758
816.73	0.756
816.90	0.768
817.08	0.810
817.26	0.816
817.43	0.788
817.61	0.813
817.78	0.839
817.96	0.817
818.13	0.800
818.31	0.802
818.49	0.820
818.66	0.807
818.84	0.790
819.01	0.764
819.19	0.778
819.36	0.780
819.54	0.744
819.71	0.792
819.89	0.813
820.07	0.828
820.24	0.817
820.42	0.817
820.59	0.845
820.77	0.868
820.94	0.851
821.12	0.872
821.29	0.894
821.47	0.895
821.64	0.811
821.82	0.827
822.00	0.829
822.17	0.825
822.35	0.816
822.52	0.818
822.70	0.813
822.87	0.824
823.05	0.793
823.22	0.808
823.40	0.846
823.57	0.879
823.75	0.850
823.92	0.884
824.10	0.915
824.27	0.963
824.45	0.939
824.62	1.016
824.80	1.049
824.97	1.070
825.15	1.049
825.32	1.073
825.50	1.091
825.67	1.110
825.85	1.064
826.02	1.096
826.20	1.148
826.37	1.383
826.55	1.227
826.72	1.663
826.90	2.071
827.07	2.967
827.25	1.987
827.42	-0.000
827.60	-0.000
827.77	-0.000
827.95	-0.000
828.12	-0.000
828.30	-0.000
828.47	-0.000
828.65	1.918
828.82	2.351
829.00	-0.000
829.17	-0.000
829.34	-0.000
829.52	-0.000
829.69	-0.000
829.87	-0.000
830.04	-0.000
830.22	-0.000
830.39	-0.000
830.57	-0.000
830.74	-0.000
830.92	-0.000
831.09	-0.000
831.26	-0.000
831.44	-0.000
831.61	-0.000
831.79	-0.000
831.96	-0.000
832.14	-0.000
832.31	-0.000
832.49	-0.000
832.66	-0.000
832.83	-0.000
833.01	-0.000
833.18	-0.000
833.36	-0.000
833.53	-0.000
833.70	-0.000
833.88	-0.000
834.05	-0.000
834.23	-0.000
834.40	-0.000
834.58	-0.000
834.75	-0.000
834.92	-0.000
835.10	-0.000
835.27	-0.000
835.45	-0.000
835.62	-0.000
835.79	-0.000
835.97	-0.000
836.14	-0.000
836.32	-0.000
836.49	-0.000
836.66	-0.000
836.84	-0.000
837.01	-0.000
837.18	-0.000
837.36	-0.000
837.53	-0.000
837.71	-0.000
837.88	-0.000
838.05	-0.000
838.23	-0.000
838.40	-0.000
838.58	-0.000
838.75	-0.000
838.92	-0.000
839.10	-0.000
839.27	-0.000
839.44	-0.000
839.62	-0.000
839.79	-0.000
839.96	-0.000
840.14	-0.000
840.31	-0.000
840.48	-0.000
840.66	-0.000
840.83	-0.000
841.01	-0.000
841.18	-0.000
841.35	-0.000
841.53	-0.000
841.70	-0.000
841.87	-0.000
842.05	-0.000
842.22	-0.000
842.39	-0.000
842.57	-0.000
842.74	-0.000
842.91	-0.000
843.09	-0.000
843.26	-0.000
843.43	-0.000
843.60	-0.000
843.78	-0.000
843.95	-0.000
844.12	-0.000
844.30	-0.000
844.47	-0.000
844.64	-0.000
844.82	-0.000
844.99	-0.000
845.16	-0.000
845.34	-0.000
845.51	-0.000
845.68	-0.000
845.85	-0.000
846.03	-0.000
846.20	-0.000
846.37	-0.000
846.55	-0.000
846.72	-0.000
846.89	-0.000
847.06	-0.000
847.24	-0.000
847.41	-0.000
847.58	-0.000
847.76	-0.000
847.93	-0.000
848.10	-0.000
848.27	-0.000
848.45	-0.000
848.62	-0.000
848.79	-0.000
848.97	-0.000
849.14	-0.000
849.31	-0.000
849.48	-0.000
849.66	-0.000
849.83	-0.000
850.00	-0.000
850.17	-0.000
850.35	-0.000
850.52	-0.000
850.69	-0.000
850.86	-0.000
851.04	-0.000
851.21	-0.000
851.38	-0.000
851.55	-0.000
851.72	-0.000
851.90	-0.000
852.07	-0.000
852.24	-0.000
852.41	-0.000
852.59	-0.000
852.76	-0.000
852.93	-0.000
853.10	-0.000
853.28	-0.000
853.45	-0.000
853.62	-0.000
853.79	-0.000
853.96	-0.000
854.14	-0.000
854.31	-0.000
854.48	-0.000
854.65	-0.000
854.82	-0.000
855.00	-0.000
855.17	-0.000
855.34	-0.000
855.51	-0.000
855.68	-0.000
855.86	-0.000
856.03	-0.000
856.20	-0.000
856.37	-0.000
856.54	-0.000
856.72	-0.000
856.89	-0.000
857.06	-0.000
857.23	-0.000
857.40	-0.000
857.57	-0.000
857.75	-0.000
857.92	-0.000
858.09	-0.000
858.26	-0.000
858.43	-0.000
858.60	-0.000
858.78	-0.000
858.95	-0.000
859.12	-0.000
859.29	-0.000
859.46	-0.000
859.63	-0.000
859.81	-0.000
859.98	-0.000
860.15	-0.000
860.32	-0.000
860.49	-0.000
860.66	-0.000
860.83	-0.000
861.01	-0.000
861.18	-0.000
861.35	-0.000
861.52	-0.000
861.69	-0.000
861.86	-0.000
862.03	-0.000
862.21	-0.000
862.38	-0.000
862.55	-0.000
862.72	-0.000
862.89	-0.000
863.06	-0.000
863.23	-0.000
863.40	-0.000
863.58	-0.000
863.75	-0.000
863.92	-0.000
864.09	-0.000
864.26	-0.000
864.43	-0.000
864.60	-0.000
864.77	-0.000
864.94	-0.000
865.11	-0.000
865.29	-0.000
865.46	-0.000
865.63	-0.000
865.80	-0.000
865.97	-0.000
866.14	-0.000
866.31	-0.000
866.48	-0.000
866.65	-0.000
866.82	-0.000
866.99	-0.000
867.16	-0.000
867.34	-0.000
867.51	-0.000
867.68	-0.000
867.85	-0.000
868.02	-0.000
868.19	-0.000
868.36	-0.000
868.53	-0.000
868.70	-0.000
868.87	-0.000
869.04	-0.000
869.21	-0.000
869.38	-0.000
869.55	-0.000
869.72	-0.000
869.89	-0.000
870.06	-0.000
870.24	-0.000
870.41	-0.000
870.58	-0.000
870.75	-0.000
870.92	-0.000
871.09	-0.000
871.26	-0.000
871.43	-0.000
871.60	-0.000
871.77	-0.000
871.94	-0.000
872.11	-0.000
872.28	-0.000
872.45	-0.000
872.62	-0.000
872.79	-0.000
872.96	-0.000
873.13	-0.000
873.30	-0.000
873.47	-0.000
873.64	-0.000
873.81	-0.000
873.98	-0.000
874.15	-0.000
874.32	-0.000
874.49	-0.000
874.66	-0.000
874.83	-0.000
875.00	-0.000
875.17	-0.000
875.34	-0.000
875.51	-0.000
875.68	-0.000
875.85	-0.000
876.02	-0.000
876.19	-0.000
876.36	-0.000
876.53	-0.000
876.70	-0.000
876.87	-0.000
877.04	-0.000
877.21	-0.000
877.38	-0.000
877.55	-0.000
877.72	-0.000
877.89	-0.000
878.06	-0.000
878.23	-0.000
878.39	-0.000
878.56	-0.000
878.73	-0.000
878.90	-0.000
879.07	-0.000
879.24	-0.000
879.41	-0.000
879.58	-0.000
879.75	-0.000
879.92	-0.000
880.09	-0.000
880.26	-0.000
880.43	-0.000
880.60	-0.000
880.77	-0.000
880.94	-0.000
881.11	-0.000
881.27	-0.000
881.44	-0.000
881.61	-0.000
881.78	-0.000
881.95	-0.000
882.12	-0.000
882.29	-0.000
882.46	-0.000
882.63	-0.000
882.80	-0.000
882.97	-0.000
883.14	-0.000
883.30	-0.000
883.47	-0.000
883.64	-0.000
883.81	-0.000
883.98	-0.000
884.15	-0.000
884.32	-0.000
884.49	-0.000
884.66	-0.000
884.82	-0.000
884.99	-0.000
885.16	-0.000
885.33	-0.000
885.50	-0.000
885.67	-0.000
885.84	-0.000
886.01	-0.000
886.17	-0.000
886.34	-0.000
886.51	-0.000
886.68	-0.000
886.85	-0.000
887.02	-0.000
887.19	-0.000
887.36	-0.000
887.52	-0.000
887.69	-0.000
887.86	-0.000
888.03	-0.000
888.20	-0.000
888.37	-0.000
888.54	-0.000
888.70	-0.000
888.87	-0.000
889.04	-0.000
889.21	-0.000
889.38	-0.000
889.55	-0.000
889.71	-0.000
889.88	-0.000
890.05	-0.000
890.22	-0.000
890.39	-0.000
>>>>>End Processed Spectral Data<<<<<
