SpectraSuite Data File
++++++++++++++++++++++++++++++++++++
Date: Fri Jun 19 14:15:34 CEST 2015
User: introlabs
Dark Spectrum Present: Yes
Reference Spectrum Present: Yes
Number of Sampled Component Spectra: 1
Spectrometers: USB4H08886
Integration Time (usec): 745692 (USB4H08886)
Spectra Averaged: 5 (USB4H08886)
Boxcar Smoothing: 5 (USB4H08886)
Correct for Electrical Dark: Yes (USB4H08886)
Strobe/Lamp Enabled: No (USB4H08886)
Correct for Detector Non-linearity: Yes (USB4H08886)
Correct for Stray Light: Yes (USB4H08886)
Number of Pixels in Processed Spectrum: 3648
>>>>>Begin Processed Spectral Data<<<<<
178.14	-0.000
178.36	-0.000
178.57	-0.000
178.79	-0.000
179.01	-0.000
179.22	-0.000
179.44	-0.000
179.65	-0.000
179.87	-0.000
180.08	-0.000
180.30	-0.000
180.52	-0.000
180.73	-0.000
180.95	-0.000
181.16	-0.000
181.38	-0.000
181.59	-0.000
181.81	-0.000
182.03	-0.000
182.24	-0.000
182.46	-0.000
182.67	-0.000
182.89	-0.000
183.10	-0.000
183.32	-0.000
183.54	-0.000
183.75	-0.000
183.97	-0.000
184.18	-0.000
184.40	-0.000
184.61	-0.000
184.83	-0.000
185.04	-0.000
185.26	-0.000
185.48	-0.000
185.69	-0.000
185.91	-0.000
186.12	-0.000
186.34	-0.000
186.55	-0.000
186.77	-0.000
186.98	-0.000
187.20	-0.000
187.42	-0.000
187.63	-0.000
187.85	-0.000
188.06	-0.000
188.28	-0.000
188.49	-0.000
188.71	-0.000
188.92	-0.000
189.14	-0.000
189.36	-0.000
189.57	-0.000
189.79	-0.000
190.00	-0.000
190.22	-0.000
190.43	-0.000
190.65	-0.000
190.86	-0.000
191.08	-0.000
191.29	-0.000
191.51	-0.000
191.72	-0.000
191.94	-0.000
192.16	-0.000
192.37	-0.000
192.59	-0.000
192.80	-0.000
193.02	-0.000
193.23	-0.000
193.45	-0.000
193.66	-0.000
193.88	-0.000
194.09	-0.000
194.31	-0.000
194.52	-0.000
194.74	-0.000
194.95	-0.000
195.17	-0.000
195.38	-0.000
195.60	-0.000
195.81	-0.000
196.03	-0.000
196.25	-0.000
196.46	-0.000
196.68	-0.000
196.89	-0.000
197.11	-0.000
197.32	-0.000
197.54	-0.000
197.75	-0.000
197.97	-0.000
198.18	-0.000
198.40	-0.000
198.61	-0.000
198.83	-0.000
199.04	-0.000
199.26	-0.000
199.47	-0.000
199.69	-0.000
199.90	-0.000
200.12	-0.000
200.33	-0.000
200.55	-0.000
200.76	-0.000
200.98	-0.000
201.19	-0.000
201.41	-0.000
201.62	-0.000
201.84	-0.000
202.05	-0.000
202.27	-0.000
202.48	-0.000
202.70	-0.000
202.91	-0.000
203.13	-0.000
203.34	-0.000
203.56	-0.000
203.77	-0.000
203.99	-0.000
204.20	-0.000
204.42	-0.000
204.63	-0.000
204.85	-0.000
205.06	-0.000
205.28	-0.000
205.49	-0.000
205.71	-0.000
205.92	-0.000
206.14	-0.000
206.35	-0.000
206.56	-0.000
206.78	-0.000
206.99	-0.000
207.21	-0.000
207.42	-0.000
207.64	-0.000
207.85	-0.000
208.07	-0.000
208.28	-0.000
208.50	-0.000
208.71	-0.000
208.93	-0.000
209.14	-0.000
209.36	-0.000
209.57	-0.000
209.79	-0.000
210.00	-0.000
210.22	-0.000
210.43	-0.000
210.64	-0.000
210.86	-0.000
211.07	-0.000
211.29	-0.000
211.50	-0.000
211.72	-0.000
211.93	-0.000
212.15	-0.000
212.36	-0.000
212.58	-0.000
212.79	-0.000
213.01	-0.000
213.22	-0.000
213.43	-0.000
213.65	-0.000
213.86	-0.000
214.08	-0.000
214.29	-0.000
214.51	-0.000
214.72	-0.000
214.94	-0.000
215.15	-0.000
215.36	-0.000
215.58	-0.000
215.79	-0.000
216.01	-0.000
216.22	-0.000
216.44	-0.000
216.65	-0.000
216.87	-0.000
217.08	-0.000
217.29	-0.000
217.51	-0.000
217.72	-0.000
217.94	-0.000
218.15	-0.000
218.37	-0.000
218.58	-0.000
218.80	-0.000
219.01	-0.000
219.22	-0.000
219.44	-0.000
219.65	-0.000
219.87	-0.000
220.08	-0.000
220.30	-0.000
220.51	-0.000
220.72	-0.000
220.94	-0.000
221.15	-0.000
221.37	-0.000
221.58	-0.000
221.79	-0.000
222.01	-0.000
222.22	-0.000
222.44	-0.000
222.65	-0.000
222.87	-0.000
223.08	-0.000
223.29	-0.000
223.51	-0.000
223.72	-0.000
223.94	-0.000
224.15	-0.000
224.36	-0.000
224.58	-0.000
224.79	-0.000
225.01	-0.000
225.22	-0.000
225.44	-0.000
225.65	-0.000
225.86	-0.000
226.08	-0.000
226.29	-0.000
226.51	-0.000
226.72	-0.000
226.93	-0.000
227.15	-0.000
227.36	-0.000
227.58	-0.000
227.79	-0.000
228.00	-0.000
228.22	-0.000
228.43	-0.000
228.65	-0.000
228.86	-0.000
229.07	-0.000
229.29	-0.000
229.50	-0.000
229.72	-0.000
229.93	-0.000
230.14	-0.000
230.36	-0.000
230.57	-0.000
230.78	-0.000
231.00	-0.000
231.21	-0.000
231.43	-0.000
231.64	-0.000
231.85	-0.000
232.07	-0.000
232.28	-0.000
232.50	-0.000
232.71	-0.000
232.92	-0.000
233.14	-0.000
233.35	-0.000
233.56	-0.000
233.78	-0.000
233.99	-0.000
234.21	-0.000
234.42	-0.000
234.63	-0.000
234.85	-0.000
235.06	-0.000
235.27	-0.000
235.49	-0.000
235.70	-0.000
235.91	-0.000
236.13	-0.000
236.34	-0.000
236.56	-0.000
236.77	-0.000
236.98	-0.000
237.20	-0.000
237.41	-0.000
237.62	-0.000
237.84	-0.000
238.05	-0.000
238.26	-0.000
238.48	-0.000
238.69	-0.000
238.91	-0.000
239.12	-0.000
239.33	-0.000
239.55	-0.000
239.76	-0.000
239.97	-0.000
240.19	-0.000
240.40	-0.000
240.61	-0.000
240.83	-0.000
241.04	-0.000
241.25	-0.000
241.47	-0.000
241.68	-0.000
241.89	-0.000
242.11	-0.000
242.32	-0.000
242.53	-0.000
242.75	-0.000
242.96	-0.000
243.17	-0.000
243.39	-0.000
243.60	-0.000
243.81	-0.000
244.03	-0.000
244.24	-0.000
244.45	-0.000
244.67	-0.000
244.88	-0.000
245.09	-0.000
245.31	-0.000
245.52	-0.000
245.73	-0.000
245.95	-0.000
246.16	-0.000
246.37	-0.000
246.59	-0.000
246.80	-0.000
247.01	-0.000
247.23	-0.000
247.44	-0.000
247.65	-0.000
247.87	-0.000
248.08	-0.000
248.29	-0.000
248.51	-0.000
248.72	-0.000
248.93	-0.000
249.15	-0.000
249.36	-0.000
249.57	-0.000
249.78	-0.000
250.00	-0.000
250.21	-0.000
250.42	-0.000
250.64	-0.000
250.85	-0.000
251.06	-0.000
251.28	-0.000
251.49	-0.000
251.70	-0.000
251.92	-0.000
252.13	-0.000
252.34	-0.000
252.55	-0.000
252.77	-0.000
252.98	-0.000
253.19	-0.000
253.41	-0.000
253.62	-0.000
253.83	-0.000
254.05	-0.000
254.26	-0.000
254.47	-0.000
254.68	-0.000
254.90	-0.000
255.11	-0.000
255.32	-0.000
255.54	-0.000
255.75	-0.000
255.96	-0.000
256.17	-0.000
256.39	-0.000
256.60	-0.000
256.81	-0.000
257.03	-0.000
257.24	-0.000
257.45	-0.000
257.66	-0.000
257.88	-0.000
258.09	-0.000
258.30	-0.000
258.51	-0.000
258.73	-0.000
258.94	-0.000
259.15	-0.000
259.37	-0.000
259.58	-0.000
259.79	-0.000
260.00	-0.000
260.22	-0.000
260.43	-0.000
260.64	-0.000
260.85	-0.000
261.07	-0.000
261.28	-0.000
261.49	-0.000
261.71	-0.000
261.92	-0.000
262.13	-0.000
262.34	-0.000
262.56	-0.000
262.77	-0.000
262.98	-0.000
263.19	-0.000
263.41	-0.000
263.62	-0.000
263.83	-0.000
264.04	-0.000
264.26	-0.000
264.47	-0.000
264.68	-0.000
264.89	-0.000
265.11	-0.000
265.32	-0.000
265.53	-0.000
265.74	-0.000
265.96	-0.000
266.17	-0.000
266.38	-0.000
266.59	-0.000
266.81	-0.000
267.02	-0.000
267.23	-0.000
267.44	-0.000
267.65	-0.000
267.87	-0.000
268.08	-0.000
268.29	-0.000
268.50	-0.000
268.72	-0.000
268.93	-0.000
269.14	-0.000
269.35	-0.000
269.57	-0.000
269.78	-0.000
269.99	-0.000
270.20	-0.000
270.41	-0.000
270.63	-0.000
270.84	-0.000
271.05	-0.000
271.26	-0.000
271.48	-0.000
271.69	-0.000
271.90	-0.000
272.11	-0.000
272.32	-0.000
272.54	-0.000
272.75	-0.000
272.96	-0.000
273.17	-0.000
273.39	-0.000
273.60	-0.000
273.81	-0.000
274.02	-0.000
274.23	-0.000
274.45	-0.000
274.66	-0.000
274.87	-0.000
275.08	-0.000
275.29	-0.000
275.51	-0.000
275.72	-0.000
275.93	-0.000
276.14	-0.000
276.35	-0.000
276.57	-0.000
276.78	-0.000
276.99	-0.000
277.20	-0.000
277.41	-0.000
277.63	-0.000
277.84	-0.000
278.05	-0.000
278.26	-0.000
278.47	-0.000
278.69	-0.000
278.90	-0.000
279.11	-0.000
279.32	-0.000
279.53	-0.000
279.74	-0.000
279.96	-0.000
280.17	-0.000
280.38	-0.000
280.59	-0.000
280.80	-0.000
281.02	-0.000
281.23	-0.000
281.44	-0.000
281.65	-0.000
281.86	-0.000
282.07	-0.000
282.29	-0.000
282.50	-0.000
282.71	-0.000
282.92	-0.000
283.13	-0.000
283.35	-0.000
283.56	-0.000
283.77	-0.000
283.98	-0.000
284.19	-0.000
284.40	-0.000
284.62	-0.000
284.83	-0.000
285.04	-0.000
285.25	-0.000
285.46	-0.000
285.67	-0.000
285.88	-0.000
286.10	-0.000
286.31	-0.000
286.52	-0.000
286.73	-0.000
286.94	-0.000
287.15	-0.000
287.37	-0.000
287.58	-0.000
287.79	-0.000
288.00	-0.000
288.21	-0.000
288.42	-0.000
288.63	-0.000
288.85	-0.000
289.06	-0.000
289.27	-0.000
289.48	-0.000
289.69	-0.000
289.90	-0.000
290.11	-0.000
290.33	-0.000
290.54	-0.000
290.75	-0.000
290.96	-0.000
291.17	-0.000
291.38	-0.000
291.59	-0.000
291.81	-0.000
292.02	-0.000
292.23	-0.000
292.44	-0.000
292.65	-0.000
292.86	-0.000
293.07	-0.000
293.28	4.008
293.50	-0.000
293.71	-0.000
293.92	-0.000
294.13	-0.000
294.34	-0.000
294.55	-0.000
294.76	-0.000
294.97	-0.000
295.19	-0.000
295.40	-0.000
295.61	-0.000
295.82	-0.000
296.03	2.776
296.24	-0.000
296.45	1.988
296.66	1.687
296.87	1.711
297.09	1.783
297.30	1.972
297.51	1.643
297.72	1.609
297.93	1.690
298.14	1.672
298.35	1.645
298.56	1.615
298.77	1.731
298.99	1.707
299.20	1.672
299.41	1.656
299.62	1.613
299.83	1.599
300.04	1.537
300.25	1.525
300.46	1.558
300.67	1.532
300.88	1.483
301.10	1.486
301.31	1.554
301.52	1.498
301.73	1.444
301.94	1.447
302.15	1.468
302.36	1.424
302.57	1.365
302.78	1.376
302.99	1.414
303.20	1.434
303.41	1.347
303.63	1.332
303.84	1.345
304.05	1.341
304.26	1.286
304.47	1.289
304.68	1.292
304.89	1.286
305.10	1.241
305.31	1.229
305.52	1.269
305.73	1.263
305.94	1.227
306.15	1.217
306.37	1.240
306.58	1.248
306.79	1.222
307.00	1.244
307.21	1.282
307.42	1.277
307.63	1.244
307.84	1.213
308.05	1.249
308.26	1.251
308.47	1.229
308.68	1.223
308.89	1.224
309.10	1.219
309.31	1.179
309.52	1.172
309.73	1.189
309.95	1.181
310.16	1.154
310.37	1.143
310.58	1.157
310.79	1.153
311.00	1.152
311.21	1.154
311.42	1.157
311.63	1.154
311.84	1.135
312.05	1.134
312.26	1.158
312.47	1.169
312.68	1.147
312.89	1.132
313.10	1.139
313.31	1.114
313.52	1.114
313.73	1.115
313.94	1.118
314.15	1.101
314.36	1.080
314.57	1.072
314.78	1.058
314.99	1.054
315.21	1.043
315.42	1.046
315.63	1.057
315.84	1.036
316.05	1.023
316.26	1.030
316.47	1.046
316.68	1.042
316.89	1.025
317.10	1.046
317.31	1.051
317.52	1.051
317.73	1.032
317.94	1.032
318.15	1.073
318.36	1.073
318.57	1.055
318.78	1.046
318.99	1.080
319.20	1.075
319.41	1.042
319.62	1.043
319.83	1.057
320.04	1.052
320.25	1.038
320.46	1.006
320.67	1.009
320.88	1.004
321.09	0.991
321.30	0.978
321.51	0.994
321.72	0.992
321.93	0.975
322.14	0.969
322.35	0.994
322.56	0.998
322.77	0.985
322.98	0.996
323.19	1.004
323.40	1.010
323.61	0.990
323.82	0.984
324.03	0.991
324.24	0.989
324.45	0.976
324.66	0.960
324.87	0.956
325.08	0.957
325.29	0.940
325.50	0.934
325.71	0.939
325.92	0.947
326.13	0.935
326.34	0.935
326.55	0.943
326.76	0.941
326.97	0.930
327.18	0.924
327.39	0.949
327.60	0.949
327.80	0.949
328.01	0.947
328.22	0.946
328.43	0.948
328.64	0.936
328.85	0.939
329.06	0.941
329.27	0.940
329.48	0.936
329.69	0.918
329.90	0.928
330.11	0.922
330.32	0.913
330.53	0.908
330.74	0.909
330.95	0.908
331.16	0.896
331.37	0.904
331.58	0.903
331.79	0.902
332.00	0.893
332.21	0.885
332.42	0.889
332.63	0.882
332.83	0.877
333.04	0.878
333.25	0.891
333.46	0.888
333.67	0.875
333.88	0.879
334.09	0.889
334.30	0.887
334.51	0.879
334.72	0.874
334.93	0.877
335.14	0.877
335.35	0.869
335.56	0.864
335.77	0.873
335.98	0.871
336.18	0.863
336.39	0.857
336.60	0.861
336.81	0.860
337.02	0.860
337.23	0.865
337.44	0.869
337.65	0.871
337.86	0.861
338.07	0.856
338.28	0.861
338.49	0.859
338.70	0.852
338.91	0.859
339.11	0.865
339.32	0.862
339.53	0.850
339.74	0.846
339.95	0.842
340.16	0.841
340.37	0.833
340.58	0.832
340.79	0.835
341.00	0.833
341.21	0.822
341.41	0.823
341.62	0.824
341.83	0.824
342.04	0.820
342.25	0.831
342.46	0.836
342.67	0.835
342.88	0.827
343.09	0.827
343.30	0.834
343.50	0.837
343.71	0.827
343.92	0.826
344.13	0.830
344.34	0.828
344.55	0.811
344.76	0.809
344.97	0.814
345.18	0.813
345.38	0.809
345.59	0.805
345.80	0.805
346.01	0.804
346.22	0.799
346.43	0.793
346.64	0.802
346.85	0.802
347.06	0.795
347.26	0.796
347.47	0.799
347.68	0.795
347.89	0.791
348.10	0.785
348.31	0.791
348.52	0.790
348.73	0.788
348.93	0.785
349.14	0.788
349.35	0.787
349.56	0.782
349.77	0.777
349.98	0.783
350.19	0.780
350.39	0.776
350.60	0.772
350.81	0.788
351.02	0.787
351.23	0.782
351.44	0.785
351.65	0.788
351.86	0.785
352.06	0.783
352.27	0.783
352.48	0.785
352.69	0.784
352.90	0.778
353.11	0.766
353.31	0.773
353.52	0.769
353.73	0.761
353.94	0.762
354.15	0.769
354.36	0.769
354.57	0.761
354.77	0.763
354.98	0.763
355.19	0.763
355.40	0.763
355.61	0.768
355.82	0.773
356.02	0.772
356.23	0.766
356.44	0.766
356.65	0.769
356.86	0.770
357.07	0.764
357.27	0.767
357.48	0.769
357.69	0.764
357.90	0.749
358.11	0.745
358.32	0.748
358.52	0.751
358.73	0.743
358.94	0.744
359.15	0.749
359.36	0.749
359.56	0.745
359.77	0.742
359.98	0.749
360.19	0.749
360.40	0.746
360.61	0.746
360.81	0.744
361.02	0.744
361.23	0.736
361.44	0.734
361.65	0.735
361.85	0.734
362.06	0.732
362.27	0.734
362.48	0.734
362.69	0.737
362.89	0.731
363.10	0.733
363.31	0.738
363.52	0.742
363.73	0.737
363.93	0.736
364.14	0.739
364.35	0.741
364.56	0.730
364.77	0.732
364.97	0.735
365.18	0.736
365.39	0.731
365.60	0.728
365.81	0.729
366.01	0.728
366.22	0.725
366.43	0.725
366.64	0.727
366.84	0.733
367.05	0.729
367.26	0.728
367.47	0.729
367.68	0.729
367.88	0.726
368.09	0.724
368.30	0.728
368.51	0.727
368.71	0.726
368.92	0.730
369.13	0.728
369.34	0.728
369.55	0.727
369.75	0.727
369.96	0.734
370.17	0.734
370.38	0.730
370.58	0.729
370.79	0.735
371.00	0.733
371.21	0.724
371.41	0.729
371.62	0.733
371.83	0.728
372.04	0.726
372.24	0.719
372.45	0.719
372.66	0.720
372.87	0.717
373.07	0.714
373.28	0.715
373.49	0.718
373.70	0.709
373.90	0.708
374.11	0.719
374.32	0.718
374.53	0.717
374.73	0.718
374.94	0.721
375.15	0.721
375.36	0.718
375.56	0.727
375.77	0.727
375.98	0.727
376.19	0.725
376.39	0.718
376.60	0.723
376.81	0.723
377.02	0.721
377.22	0.719
377.43	0.719
377.64	0.719
377.84	0.710
378.05	0.715
378.26	0.721
378.47	0.720
378.67	0.717
378.88	0.713
379.09	0.714
379.30	0.714
379.50	0.712
379.71	0.715
379.92	0.718
380.12	0.717
380.33	0.710
380.54	0.706
380.75	0.713
380.95	0.714
381.16	0.712
381.37	0.712
381.57	0.714
381.78	0.714
381.99	0.712
382.20	0.711
382.40	0.715
382.61	0.716
382.82	0.711
383.02	0.705
383.23	0.708
383.44	0.708
383.64	0.706
383.85	0.708
384.06	0.711
384.27	0.710
384.47	0.708
384.68	0.707
384.89	0.713
385.09	0.713
385.30	0.712
385.51	0.711
385.71	0.714
385.92	0.715
386.13	0.713
386.33	0.716
386.54	0.716
386.75	0.716
386.95	0.711
387.16	0.706
387.37	0.709
387.58	0.709
387.78	0.708
387.99	0.706
388.20	0.708
388.40	0.704
388.61	0.700
388.82	0.704
389.02	0.706
389.23	0.706
389.44	0.704
389.64	0.705
389.85	0.716
390.06	0.715
390.26	0.716
390.47	0.715
390.68	0.718
390.88	0.716
391.09	0.711
391.30	0.710
391.50	0.710
391.71	0.710
391.92	0.708
392.12	0.700
392.33	0.700
392.53	0.700
392.74	0.700
392.95	0.699
393.15	0.702
393.36	0.704
393.57	0.703
393.77	0.706
393.98	0.708
394.19	0.707
394.39	0.706
394.60	0.709
394.81	0.711
395.01	0.709
395.22	0.707
395.43	0.708
395.63	0.712
395.84	0.714
396.04	0.709
396.25	0.711
396.46	0.714
396.66	0.713
396.87	0.710
397.08	0.707
397.28	0.709
397.49	0.710
397.69	0.707
397.90	0.702
398.11	0.703
398.31	0.704
398.52	0.700
398.73	0.700
398.93	0.700
399.14	0.699
399.34	0.697
399.55	0.698
399.76	0.698
399.96	0.698
400.17	0.697
400.37	0.696
400.58	0.703
400.79	0.705
400.99	0.702
401.20	0.707
401.41	0.709
401.61	0.710
401.82	0.716
402.02	0.716
402.23	0.718
402.44	0.717
402.64	0.716
402.85	0.711
403.05	0.710
403.26	0.709
403.47	0.703
403.67	0.703
403.88	0.703
404.08	0.697
404.29	0.695
404.50	0.694
404.70	0.694
404.91	0.693
405.11	0.691
405.32	0.691
405.52	0.691
405.73	0.691
405.94	0.690
406.14	0.693
406.35	0.695
406.55	0.695
406.76	0.693
406.97	0.694
407.17	0.696
407.38	0.695
407.58	0.694
407.79	0.697
407.99	0.699
408.20	0.700
408.41	0.695
408.61	0.693
408.82	0.695
409.02	0.695
409.23	0.692
409.43	0.691
409.64	0.693
409.84	0.692
410.05	0.688
410.26	0.686
410.46	0.685
410.67	0.685
410.87	0.686
411.08	0.688
411.28	0.689
411.49	0.691
411.69	0.688
411.90	0.690
412.11	0.692
412.31	0.694
412.52	0.692
412.72	0.693
412.93	0.693
413.13	0.692
413.34	0.689
413.54	0.690
413.75	0.692
413.95	0.692
414.16	0.688
414.37	0.691
414.57	0.691
414.78	0.694
414.98	0.692
415.19	0.694
415.39	0.691
415.60	0.693
415.80	0.692
416.01	0.691
416.21	0.692
416.42	0.692
416.62	0.687
416.83	0.687
417.03	0.687
417.24	0.687
417.44	0.685
417.65	0.684
417.86	0.685
418.06	0.683
418.27	0.681
418.47	0.682
418.68	0.683
418.88	0.683
419.09	0.682
419.29	0.683
419.50	0.683
419.70	0.683
419.91	0.681
420.11	0.679
420.32	0.681
420.52	0.681
420.73	0.680
420.93	0.680
421.14	0.682
421.34	0.681
421.55	0.677
421.75	0.677
421.96	0.678
422.16	0.678
422.37	0.677
422.57	0.675
422.78	0.676
422.98	0.673
423.19	0.670
423.39	0.670
423.60	0.673
423.80	0.674
424.01	0.673
424.21	0.675
424.42	0.675
424.62	0.676
424.83	0.674
425.03	0.675
425.23	0.677
425.44	0.677
425.64	0.677
425.85	0.677
426.05	0.677
426.26	0.678
426.46	0.674
426.67	0.674
426.87	0.679
427.08	0.679
427.28	0.677
427.49	0.678
427.69	0.679
427.90	0.678
428.10	0.675
428.31	0.675
428.51	0.676
428.71	0.676
428.92	0.677
429.12	0.674
429.33	0.675
429.53	0.679
429.74	0.683
429.94	0.683
430.15	0.683
430.35	0.683
430.56	0.680
430.76	0.679
430.96	0.680
431.17	0.677
431.37	0.674
431.58	0.673
431.78	0.669
431.99	0.663
432.19	0.665
432.40	0.666
432.60	0.667
432.80	0.670
433.01	0.668
433.21	0.668
433.42	0.670
433.62	0.671
433.83	0.670
434.03	0.672
434.23	0.675
434.44	0.674
434.64	0.672
434.85	0.676
435.05	0.677
435.26	0.677
435.46	0.676
435.66	0.675
435.87	0.675
436.07	0.676
436.28	0.671
436.48	0.668
436.69	0.667
436.89	0.667
437.09	0.661
437.30	0.660
437.50	0.660
437.71	0.672
437.91	0.670
438.11	0.672
438.32	0.676
438.52	0.676
438.73	0.675
438.93	0.674
439.13	0.674
439.34	0.677
439.54	0.675
439.75	0.675
439.95	0.666
440.15	0.670
440.36	0.669
440.56	0.667
440.77	0.668
440.97	0.667
441.17	0.666
441.38	0.667
441.58	0.665
441.79	0.664
441.99	0.662
442.19	0.661
442.40	0.659
442.60	0.659
442.81	0.656
443.01	0.657
443.21	0.658
443.42	0.658
443.62	0.656
443.82	0.656
444.03	0.658
444.23	0.658
444.44	0.658
444.64	0.657
444.84	0.658
445.05	0.658
445.25	0.656
445.45	0.656
445.66	0.658
445.86	0.658
446.06	0.659
446.27	0.658
446.47	0.661
446.68	0.659
446.88	0.658
447.08	0.657
447.29	0.659
447.49	0.659
447.69	0.658
447.90	0.657
448.10	0.661
448.30	0.658
448.51	0.659
448.71	0.657
448.91	0.659
449.12	0.658
449.32	0.660
449.52	0.659
449.73	0.662
449.93	0.662
450.14	0.662
450.34	0.661
450.54	0.664
450.75	0.661
450.95	0.661
451.15	0.661
451.36	0.663
451.56	0.660
451.76	0.659
451.97	0.657
452.17	0.657
452.37	0.655
452.58	0.652
452.78	0.651
452.98	0.653
453.19	0.652
453.39	0.653
453.59	0.651
453.79	0.652
454.00	0.652
454.20	0.651
454.40	0.652
454.61	0.654
454.81	0.655
455.01	0.654
455.22	0.654
455.42	0.655
455.62	0.653
455.83	0.653
456.03	0.656
456.23	0.657
456.44	0.658
456.64	0.657
456.84	0.657
457.04	0.658
457.25	0.657
457.45	0.654
457.65	0.653
457.86	0.655
458.06	0.653
458.26	0.648
458.47	0.648
458.67	0.649
458.87	0.649
459.07	0.646
459.28	0.648
459.48	0.650
459.68	0.650
459.89	0.650
460.09	0.648
460.29	0.650
460.49	0.651
460.70	0.650
460.90	0.650
461.10	0.650
461.31	0.650
461.51	0.647
461.71	0.648
461.91	0.649
462.12	0.649
462.32	0.648
462.52	0.649
462.72	0.652
462.93	0.653
463.13	0.651
463.33	0.652
463.53	0.654
463.74	0.654
463.94	0.649
464.14	0.650
464.35	0.652
464.55	0.652
464.75	0.650
464.95	0.647
465.16	0.649
465.36	0.648
465.56	0.647
465.76	0.647
465.97	0.648
466.17	0.648
466.37	0.646
466.57	0.646
466.78	0.647
466.98	0.647
467.18	0.645
467.38	0.643
467.59	0.644
467.79	0.646
467.99	0.644
468.19	0.646
468.39	0.649
468.60	0.649
468.80	0.647
469.00	0.648
469.20	0.650
469.41	0.650
469.61	0.650
469.81	0.650
470.01	0.649
470.22	0.650
470.42	0.647
470.62	0.645
470.82	0.646
471.02	0.646
471.23	0.644
471.43	0.644
471.63	0.646
471.83	0.645
472.04	0.644
472.24	0.643
472.44	0.648
472.64	0.649
472.84	0.648
473.05	0.648
473.25	0.650
473.45	0.650
473.65	0.648
473.85	0.649
474.06	0.650
474.26	0.650
474.46	0.650
474.66	0.646
474.86	0.647
475.07	0.647
475.27	0.644
475.47	0.642
475.67	0.643
475.87	0.645
476.08	0.641
476.28	0.643
476.48	0.645
476.68	0.643
476.88	0.641
477.09	0.642
477.29	0.645
477.49	0.645
477.69	0.644
477.89	0.644
478.09	0.643
478.30	0.645
478.50	0.642
478.70	0.641
478.90	0.642
479.10	0.644
479.31	0.645
479.51	0.643
479.71	0.644
479.91	0.644
480.11	0.643
480.31	0.644
480.52	0.643
480.72	0.642
480.92	0.641
481.12	0.640
481.32	0.638
481.52	0.635
481.72	0.636
481.93	0.639
482.13	0.640
482.33	0.639
482.53	0.637
482.73	0.638
482.93	0.640
483.14	0.639
483.34	0.639
483.54	0.640
483.74	0.640
483.94	0.638
484.14	0.634
484.34	0.634
484.55	0.634
484.75	0.635
484.95	0.633
485.15	0.632
485.35	0.633
485.55	0.632
485.75	0.630
485.96	0.631
486.16	0.632
486.36	0.631
486.56	0.630
486.76	0.630
486.96	0.630
487.16	0.630
487.36	0.628
487.57	0.628
487.77	0.629
487.97	0.629
488.17	0.627
488.37	0.626
488.57	0.628
488.77	0.628
488.97	0.626
489.18	0.626
489.38	0.628
489.58	0.629
489.78	0.628
489.98	0.628
490.18	0.627
490.38	0.628
490.58	0.627
490.78	0.627
490.98	0.629
491.19	0.629
491.39	0.628
491.59	0.627
491.79	0.630
491.99	0.630
492.19	0.630
492.39	0.633
492.59	0.633
492.79	0.635
492.99	0.636
493.20	0.636
493.40	0.637
493.60	0.638
493.80	0.636
494.00	0.634
494.20	0.635
494.40	0.634
494.60	0.631
494.80	0.636
495.00	0.635
495.20	0.633
495.40	0.631
495.61	0.632
495.81	0.633
496.01	0.636
496.21	0.637
496.41	0.636
496.61	0.637
496.81	0.636
497.01	0.631
497.21	0.630
497.41	0.631
497.61	0.631
497.81	0.629
498.01	0.629
498.21	0.627
498.41	0.625
498.61	0.626
498.82	0.627
499.02	0.629
499.22	0.629
499.42	0.629
499.62	0.630
499.82	0.631
500.02	0.632
500.22	0.631
500.42	0.633
500.62	0.633
500.82	0.633
501.02	0.632
501.22	0.632
501.42	0.631
501.62	0.633
501.82	0.632
502.02	0.632
502.22	0.632
502.42	0.634
502.62	0.631
502.82	0.631
503.02	0.632
503.22	0.632
503.42	0.629
503.63	0.630
503.83	0.627
504.03	0.626
504.23	0.625
504.43	0.625
504.63	0.626
504.83	0.626
505.03	0.625
505.23	0.627
505.43	0.628
505.63	0.629
505.83	0.628
506.03	0.630
506.23	0.633
506.43	0.633
506.63	0.632
506.83	0.630
507.03	0.632
507.23	0.633
507.43	0.629
507.63	0.630
507.83	0.631
508.03	0.631
508.23	0.630
508.43	0.628
508.63	0.630
508.83	0.631
509.03	0.632
509.23	0.631
509.43	0.632
509.63	0.632
509.83	0.631
510.03	0.634
510.23	0.636
510.43	0.637
510.63	0.637
510.83	0.637
511.03	0.639
511.23	0.636
511.43	0.635
511.63	0.637
511.83	0.639
512.03	0.638
512.22	0.635
512.42	0.634
512.62	0.634
512.82	0.634
513.02	0.633
513.22	0.632
513.42	0.635
513.62	0.638
513.82	0.636
514.02	0.636
514.22	0.638
514.42	0.638
514.62	0.638
514.82	0.639
515.02	0.641
515.22	0.645
515.42	0.643
515.62	0.645
515.82	0.644
516.02	0.645
516.22	0.645
516.42	0.646
516.62	0.648
516.82	0.649
517.01	0.647
517.21	0.647
517.41	0.650
517.61	0.651
517.81	0.647
518.01	0.647
518.21	0.647
518.41	0.645
518.61	0.644
518.81	0.644
519.01	0.644
519.21	0.644
519.41	0.642
519.61	0.637
519.81	0.640
520.00	0.640
520.20	0.640
520.40	0.643
520.60	0.644
520.80	0.644
521.00	0.644
521.20	0.645
521.40	0.651
521.60	0.651
521.80	0.650
522.00	0.650
522.20	0.653
522.39	0.652
522.59	0.648
522.79	0.650
522.99	0.653
523.19	0.651
523.39	0.649
523.59	0.647
523.79	0.650
523.99	0.652
524.19	0.650
524.38	0.649
524.58	0.651
524.78	0.651
524.98	0.649
525.18	0.651
525.38	0.653
525.58	0.653
525.78	0.651
525.98	0.649
526.18	0.649
526.37	0.649
526.57	0.650
526.77	0.650
526.97	0.651
527.17	0.651
527.37	0.647
527.57	0.650
527.77	0.651
527.96	0.651
528.16	0.650
528.36	0.651
528.56	0.653
528.76	0.651
528.96	0.650
529.16	0.651
529.36	0.654
529.55	0.654
529.75	0.650
529.95	0.651
530.15	0.652
530.35	0.654
530.55	0.652
530.75	0.652
530.94	0.654
531.14	0.654
531.34	0.653
531.54	0.651
531.74	0.654
531.94	0.657
532.13	0.655
532.33	0.657
532.53	0.656
532.73	0.655
532.93	0.654
533.13	0.655
533.33	0.655
533.52	0.656
533.72	0.658
533.92	0.657
534.12	0.656
534.32	0.656
534.52	0.654
534.71	0.656
534.91	0.659
535.11	0.661
535.31	0.659
535.51	0.660
535.71	0.662
535.90	0.659
536.10	0.660
536.30	0.661
536.50	0.662
536.70	0.662
536.89	0.659
537.09	0.659
537.29	0.660
537.49	0.661
537.69	0.659
537.89	0.659
538.08	0.659
538.28	0.657
538.48	0.658
538.68	0.659
538.88	0.661
539.07	0.661
539.27	0.659
539.47	0.659
539.67	0.659
539.87	0.661
540.06	0.658
540.26	0.659
540.46	0.662
540.66	0.659
540.86	0.657
541.05	0.657
541.25	0.658
541.45	0.658
541.65	0.656
541.84	0.658
542.04	0.659
542.24	0.660
542.44	0.659
542.64	0.660
542.83	0.663
543.03	0.663
543.23	0.660
543.43	0.662
543.62	0.664
543.82	0.664
544.02	0.662
544.22	0.663
544.42	0.666
544.61	0.666
544.81	0.662
545.01	0.661
545.21	0.664
545.40	0.664
545.60	0.662
545.80	0.665
546.00	0.665
546.19	0.664
546.39	0.663
546.59	0.661
546.79	0.662
546.98	0.663
547.18	0.663
547.38	0.664
547.58	0.667
547.77	0.667
547.97	0.663
548.17	0.665
548.37	0.666
548.56	0.666
548.76	0.665
548.96	0.666
549.16	0.669
549.35	0.668
549.55	0.665
549.75	0.665
549.95	0.669
550.14	0.670
550.34	0.668
550.54	0.673
550.73	0.676
550.93	0.677
551.13	0.674
551.33	0.672
551.52	0.674
551.72	0.674
551.92	0.673
552.12	0.672
552.31	0.674
552.51	0.674
552.71	0.669
552.90	0.670
553.10	0.671
553.30	0.671
553.50	0.671
553.69	0.672
553.89	0.673
554.09	0.672
554.28	0.669
554.48	0.670
554.68	0.672
554.87	0.671
555.07	0.668
555.27	0.668
555.47	0.670
555.66	0.670
555.86	0.669
556.06	0.671
556.25	0.673
556.45	0.680
556.65	0.679
556.84	0.682
557.04	0.686
557.24	0.687
557.43	0.686
557.63	0.689
557.83	0.690
558.02	0.691
558.22	0.695
558.42	0.695
558.61	0.687
558.81	0.687
559.01	0.683
559.21	0.683
559.40	0.684
559.60	0.684
559.80	0.681
559.99	0.682
560.19	0.684
560.39	0.679
560.58	0.676
560.78	0.677
560.97	0.681
561.17	0.680
561.37	0.677
561.56	0.678
561.76	0.680
561.96	0.680
562.15	0.677
562.35	0.680
562.55	0.680
562.74	0.680
562.94	0.678
563.14	0.676
563.33	0.677
563.53	0.678
563.73	0.675
563.92	0.676
564.12	0.678
564.31	0.680
564.51	0.678
564.71	0.681
564.90	0.684
565.10	0.685
565.30	0.688
565.49	0.688
565.69	0.691
565.89	0.691
566.08	0.688
566.28	0.690
566.47	0.691
566.67	0.689
566.87	0.687
567.06	0.688
567.26	0.694
567.46	0.689
567.65	0.689
567.85	0.690
568.04	0.693
568.24	0.693
568.44	0.689
568.63	0.687
568.83	0.689
569.02	0.688
569.22	0.683
569.42	0.679
569.61	0.682
569.81	0.680
570.00	0.678
570.20	0.679
570.40	0.680
570.59	0.681
570.79	0.679
570.98	0.677
571.18	0.678
571.38	0.678
571.57	0.674
571.77	0.672
571.96	0.676
572.16	0.673
572.35	0.668
572.55	0.669
572.75	0.667
572.94	0.667
573.14	0.665
573.33	0.665
573.53	0.666
573.73	0.666
573.92	0.664
574.12	0.662
574.31	0.665
574.51	0.666
574.70	0.663
574.90	0.665
575.09	0.668
575.29	0.668
575.49	0.665
575.68	0.666
575.88	0.668
576.07	0.669
576.27	0.667
576.46	0.665
576.66	0.665
576.86	0.664
577.05	0.662
577.25	0.660
577.44	0.662
577.64	0.661
577.83	0.659
578.03	0.660
578.22	0.660
578.42	0.659
578.61	0.657
578.81	0.658
579.00	0.659
579.20	0.658
579.40	0.657
579.59	0.656
579.79	0.656
579.98	0.656
580.18	0.655
580.37	0.655
580.57	0.658
580.76	0.662
580.96	0.660
581.15	0.660
581.35	0.662
581.54	0.662
581.74	0.661
581.93	0.663
582.13	0.664
582.32	0.662
582.52	0.660
582.71	0.659
582.91	0.656
583.10	0.656
583.30	0.655
583.49	0.654
583.69	0.658
583.88	0.659
584.08	0.658
584.27	0.660
584.47	0.663
584.66	0.664
584.86	0.663
585.05	0.665
585.25	0.667
585.44	0.667
585.64	0.665
585.83	0.662
586.03	0.662
586.22	0.661
586.42	0.657
586.61	0.659
586.81	0.662
587.00	0.661
587.20	0.659
587.39	0.660
587.59	0.662
587.78	0.663
587.98	0.664
588.17	0.665
588.37	0.667
588.56	0.669
588.76	0.665
588.95	0.665
589.15	0.669
589.34	0.671
589.54	0.669
589.73	0.670
589.92	0.673
590.12	0.673
590.31	0.670
590.51	0.675
590.70	0.677
590.90	0.677
591.09	0.675
591.29	0.673
591.48	0.674
591.68	0.675
591.87	0.673
592.06	0.672
592.26	0.675
592.45	0.675
592.65	0.668
592.84	0.668
593.04	0.671
593.23	0.673
593.43	0.670
593.62	0.670
593.81	0.670
594.01	0.669
594.20	0.666
594.40	0.666
594.59	0.668
594.79	0.668
594.98	0.667
595.17	0.666
595.37	0.667
595.56	0.669
595.76	0.668
595.95	0.670
596.14	0.673
596.34	0.674
596.53	0.672
596.73	0.674
596.92	0.676
597.12	0.678
597.31	0.677
597.50	0.676
597.70	0.678
597.89	0.677
598.09	0.674
598.28	0.675
598.47	0.677
598.67	0.676
598.86	0.672
599.06	0.673
599.25	0.674
599.44	0.673
599.64	0.670
599.83	0.668
600.03	0.672
600.22	0.673
600.41	0.673
600.61	0.670
600.80	0.673
601.00	0.674
601.19	0.670
601.38	0.668
601.58	0.671
601.77	0.672
601.96	0.674
602.16	0.674
602.35	0.682
602.55	0.680
602.74	0.680
602.93	0.682
603.13	0.687
603.32	0.689
603.51	0.689
603.71	0.692
603.90	0.694
604.09	0.694
604.29	0.691
604.48	0.685
604.68	0.687
604.87	0.685
605.06	0.681
605.26	0.678
605.45	0.678
605.64	0.677
605.84	0.673
606.03	0.672
606.22	0.671
606.42	0.670
606.61	0.666
606.80	0.666
607.00	0.669
607.19	0.669
607.38	0.668
607.58	0.669
607.77	0.672
607.96	0.672
608.16	0.670
608.35	0.675
608.54	0.678
608.74	0.682
608.93	0.686
609.12	0.689
609.32	0.692
609.51	0.695
609.70	0.694
609.90	0.696
610.09	0.700
610.28	0.705
610.48	0.698
610.67	0.700
610.86	0.701
611.06	0.695
611.25	0.693
611.44	0.694
611.64	0.694
611.83	0.696
612.02	0.692
612.21	0.691
612.41	0.690
612.60	0.689
612.79	0.685
612.99	0.685
613.18	0.687
613.37	0.685
613.57	0.682
613.76	0.684
613.95	0.682
614.14	0.681
614.34	0.679
614.53	0.680
614.72	0.683
614.92	0.683
615.11	0.680
615.30	0.677
615.49	0.678
615.69	0.680
615.88	0.677
616.07	0.678
616.26	0.680
616.46	0.681
616.65	0.678
616.84	0.677
617.04	0.678
617.23	0.681
617.42	0.682
617.61	0.685
617.81	0.686
618.00	0.687
618.19	0.686
618.38	0.690
618.58	0.694
618.77	0.695
618.96	0.693
619.15	0.695
619.35	0.697
619.54	0.698
619.73	0.694
619.92	0.696
620.12	0.700
620.31	0.700
620.50	0.694
620.69	0.694
620.89	0.697
621.08	0.698
621.27	0.697
621.46	0.696
621.66	0.700
621.85	0.700
622.04	0.696
622.23	0.697
622.43	0.698
622.62	0.698
622.81	0.698
623.00	0.697
623.19	0.701
623.39	0.700
623.58	0.697
623.77	0.696
623.96	0.698
624.16	0.698
624.35	0.693
624.54	0.695
624.73	0.699
624.92	0.696
625.12	0.695
625.31	0.695
625.50	0.698
625.69	0.699
625.88	0.695
626.08	0.695
626.27	0.696
626.46	0.696
626.65	0.694
626.84	0.694
627.04	0.700
627.23	0.700
627.42	0.695
627.61	0.696
627.80	0.700
628.00	0.700
628.19	0.699
628.38	0.703
628.57	0.706
628.76	0.704
628.96	0.700
629.15	0.701
629.34	0.704
629.53	0.704
629.72	0.698
629.91	0.698
630.11	0.703
630.30	0.704
630.49	0.706
630.68	0.706
630.87	0.710
631.06	0.713
631.26	0.708
631.45	0.710
631.64	0.718
631.83	0.721
632.02	0.718
632.21	0.717
632.41	0.725
632.60	0.718
632.79	0.716
632.98	0.716
633.17	0.717
633.36	0.719
633.55	0.716
633.75	0.712
633.94	0.714
634.13	0.715
634.32	0.712
634.51	0.705
634.70	0.708
634.89	0.708
635.09	0.705
635.28	0.705
635.47	0.706
635.66	0.708
635.85	0.704
636.04	0.705
636.23	0.709
636.43	0.711
636.62	0.709
636.81	0.708
637.00	0.712
637.19	0.714
637.38	0.710
637.57	0.711
637.76	0.713
637.95	0.714
638.15	0.710
638.34	0.706
638.53	0.710
638.72	0.712
638.91	0.709
639.10	0.706
639.29	0.707
639.48	0.708
639.67	0.706
639.87	0.705
640.06	0.711
640.25	0.711
640.44	0.712
640.63	0.712
640.82	0.716
641.01	0.715
641.20	0.715
641.39	0.716
641.58	0.719
641.78	0.718
641.97	0.714
642.16	0.727
642.35	0.728
642.54	0.726
642.73	0.720
642.92	0.718
643.11	0.722
643.30	0.721
643.49	0.717
643.68	0.719
643.87	0.721
644.06	0.722
644.25	0.702
644.45	0.705
644.64	0.706
644.83	0.707
645.02	0.703
645.21	0.703
645.40	0.704
645.59	0.704
645.78	0.698
645.97	0.699
646.16	0.701
646.35	0.701
646.54	0.698
646.73	0.700
646.92	0.701
647.11	0.700
647.30	0.695
647.49	0.697
647.68	0.698
647.88	0.696
648.07	0.690
648.26	0.692
648.45	0.694
648.64	0.690
648.83	0.688
649.02	0.691
649.21	0.702
649.40	0.701
649.59	0.696
649.78	0.697
649.97	0.712
650.16	0.711
650.35	0.705
650.54	0.707
650.73	0.716
650.92	0.712
651.11	0.705
651.30	0.703
651.49	0.707
651.68	0.708
651.87	0.704
652.06	0.694
652.25	0.697
652.44	0.701
652.63	0.697
652.82	0.696
653.01	0.696
653.20	0.695
653.39	0.683
653.58	0.681
653.77	0.680
653.96	0.675
654.15	0.667
654.34	0.665
654.53	0.661
654.72	0.656
654.91	0.647
655.10	0.642
655.29	0.640
655.48	0.639
655.67	0.633
655.86	0.630
656.05	0.629
656.24	0.629
656.43	0.624
656.62	0.623
656.81	0.623
657.00	0.621
657.19	0.619
657.38	0.619
657.57	0.619
657.76	0.622
657.95	0.620
658.14	0.623
658.33	0.626
658.51	0.631
658.70	0.630
658.89	0.632
659.08	0.641
659.27	0.648
659.46	0.647
659.65	0.653
659.84	0.657
660.03	0.659
660.22	0.660
660.41	0.665
660.60	0.665
660.79	0.667
660.98	0.672
661.17	0.671
661.36	0.671
661.55	0.672
661.74	0.669
661.92	0.672
662.11	0.675
662.30	0.673
662.49	0.666
662.68	0.665
662.87	0.669
663.06	0.663
663.25	0.663
663.44	0.663
663.63	0.665
663.82	0.664
664.01	0.659
664.20	0.658
664.38	0.659
664.57	0.660
664.76	0.659
664.95	0.659
665.14	0.664
665.33	0.660
665.52	0.666
665.71	0.670
665.90	0.670
666.09	0.670
666.28	0.668
666.46	0.667
666.65	0.668
666.84	0.666
667.03	0.660
667.22	0.658
667.41	0.661
667.60	0.651
667.79	0.644
667.98	0.645
668.16	0.646
668.35	0.646
668.54	0.642
668.73	0.642
668.92	0.643
669.11	0.642
669.30	0.637
669.49	0.633
669.67	0.636
669.86	0.637
670.05	0.635
670.24	0.633
670.43	0.631
670.62	0.630
670.81	0.625
671.00	0.626
671.18	0.626
671.37	0.625
671.56	0.622
671.75	0.622
671.94	0.618
672.13	0.617
672.32	0.612
672.50	0.611
672.69	0.612
672.88	0.613
673.07	0.609
673.26	0.611
673.45	0.613
673.63	0.612
673.82	0.608
674.01	0.610
674.20	0.610
674.39	0.609
674.58	0.607
674.76	0.607
674.95	0.606
675.14	0.606
675.33	0.601
675.52	0.599
675.71	0.599
675.89	0.598
676.08	0.594
676.27	0.594
676.46	0.595
676.65	0.594
676.84	0.594
677.02	0.595
677.21	0.598
677.40	0.597
677.59	0.595
677.78	0.596
677.96	0.599
678.15	0.598
678.34	0.596
678.53	0.596
678.72	0.597
678.90	0.594
679.09	0.590
679.28	0.586
679.47	0.587
679.66	0.586
679.84	0.582
680.03	0.580
680.22	0.579
680.41	0.580
680.60	0.577
680.78	0.576
680.97	0.578
681.16	0.579
681.35	0.578
681.53	0.576
681.72	0.577
681.91	0.579
682.10	0.577
682.29	0.580
682.47	0.578
682.66	0.577
682.85	0.576
683.04	0.574
683.22	0.574
683.41	0.576
683.60	0.576
683.79	0.577
683.97	0.576
684.16	0.575
684.35	0.571
684.54	0.573
684.72	0.573
684.91	0.574
685.10	0.571
685.29	0.573
685.47	0.570
685.66	0.569
685.85	0.565
686.04	0.565
686.22	0.568
686.41	0.570
686.60	0.566
686.79	0.570
686.97	0.571
687.16	0.572
687.35	0.569
687.54	0.573
687.72	0.577
687.91	0.576
688.10	0.577
688.29	0.577
688.47	0.576
688.66	0.576
688.85	0.571
689.03	0.568
689.22	0.573
689.41	0.573
689.60	0.568
689.78	0.565
689.97	0.566
690.16	0.564
690.34	0.560
690.53	0.559
690.72	0.560
690.91	0.558
691.09	0.556
691.28	0.550
691.47	0.548
691.65	0.547
691.84	0.545
692.03	0.544
692.21	0.542
692.40	0.542
692.59	0.539
692.77	0.538
692.96	0.540
693.15	0.540
693.34	0.538
693.52	0.538
693.71	0.538
693.90	0.540
694.08	0.540
694.27	0.541
694.46	0.550
694.64	0.552
694.83	0.551
695.02	0.550
695.20	0.550
695.39	0.550
695.58	0.550
695.76	0.550
695.95	0.550
696.14	0.549
696.32	0.546
696.51	0.537
696.70	0.537
696.88	0.538
697.07	0.537
697.26	0.539
697.44	0.540
697.63	0.539
697.81	0.537
698.00	0.536
698.19	0.535
698.37	0.535
698.56	0.534
698.75	0.534
698.93	0.534
699.12	0.533
699.31	0.532
699.49	0.531
699.68	0.532
699.87	0.534
700.05	0.534
700.24	0.533
700.42	0.535
700.61	0.534
700.80	0.532
700.98	0.533
701.17	0.534
701.36	0.533
701.54	0.533
701.73	0.534
701.91	0.531
702.10	0.531
702.29	0.529
702.47	0.528
702.66	0.530
702.84	0.531
703.03	0.529
703.22	0.530
703.40	0.531
703.59	0.532
703.77	0.532
703.96	0.532
704.15	0.533
704.33	0.533
704.52	0.532
704.70	0.531
704.89	0.531
705.08	0.530
705.26	0.525
705.45	0.525
705.63	0.525
705.82	0.522
706.00	0.520
706.19	0.520
706.38	0.520
706.56	0.519
706.75	0.517
706.93	0.516
707.12	0.517
707.30	0.518
707.49	0.515
707.68	0.513
707.86	0.513
708.05	0.512
708.23	0.509
708.42	0.510
708.60	0.513
708.79	0.513
708.98	0.512
709.16	0.511
709.35	0.513
709.53	0.517
709.72	0.515
709.90	0.517
710.09	0.519
710.27	0.521
710.46	0.524
710.64	0.523
710.83	0.524
711.02	0.525
711.20	0.523
711.39	0.521
711.57	0.519
711.76	0.520
711.94	0.518
712.13	0.519
712.31	0.519
712.50	0.514
712.68	0.511
712.87	0.512
713.05	0.513
713.24	0.514
713.42	0.513
713.61	0.514
713.79	0.515
713.98	0.516
714.16	0.516
714.35	0.516
714.54	0.517
714.72	0.518
714.91	0.515
715.09	0.521
715.28	0.524
715.46	0.524
715.65	0.521
715.83	0.522
716.02	0.523
716.20	0.519
716.39	0.518
716.57	0.519
716.76	0.522
716.94	0.522
717.12	0.514
717.31	0.516
717.49	0.519
717.68	0.521
717.86	0.520
718.05	0.523
718.23	0.526
718.42	0.527
718.60	0.529
718.79	0.537
718.97	0.539
719.16	0.539
719.34	0.537
719.53	0.536
719.71	0.536
719.90	0.538
720.08	0.535
720.27	0.535
720.45	0.536
720.63	0.533
720.82	0.528
721.00	0.531
721.19	0.534
721.37	0.533
721.56	0.533
721.74	0.536
721.93	0.544
722.11	0.551
722.30	0.549
722.48	0.554
722.66	0.557
722.85	0.556
723.03	0.555
723.22	0.554
723.40	0.557
723.59	0.557
723.77	0.560
723.95	0.554
724.14	0.554
724.32	0.555
724.51	0.553
724.69	0.553
724.88	0.554
725.06	0.552
725.24	0.553
725.43	0.555
725.61	0.557
725.80	0.552
725.98	0.549
726.16	0.546
726.35	0.553
726.53	0.552
726.72	0.551
726.90	0.561
727.09	0.562
727.27	0.567
727.45	0.564
727.64	0.573
727.82	0.581
728.01	0.586
728.19	0.582
728.37	0.587
728.56	0.591
728.74	0.598
728.92	0.586
729.11	0.588
729.29	0.587
729.48	0.589
729.66	0.579
729.84	0.578
730.03	0.582
730.21	0.584
730.40	0.575
730.58	0.576
730.76	0.576
730.95	0.579
731.13	0.578
731.31	0.591
731.50	0.602
731.68	0.605
731.86	0.601
732.05	0.616
732.23	0.620
732.42	0.623
732.60	0.625
732.78	0.631
732.97	0.648
733.15	0.656
733.33	0.643
733.52	0.649
733.70	0.658
733.88	0.668
734.07	0.653
734.25	0.678
734.43	0.687
734.62	0.689
734.80	0.682
734.98	0.674
735.17	0.680
735.35	0.686
735.53	0.673
735.72	0.677
735.90	0.698
736.08	0.715
736.27	0.692
736.45	0.701
736.63	0.711
736.82	0.721
737.00	0.720
737.18	0.733
737.37	0.761
737.55	0.783
737.73	0.777
737.92	0.777
738.10	0.773
738.28	0.793
738.46	0.780
738.65	0.793
738.83	0.814
739.01	0.864
739.20	0.850
739.38	0.836
739.56	0.829
739.75	0.831
739.93	0.799
740.11	0.824
740.29	0.823
740.48	0.831
740.66	0.812
740.84	0.805
741.03	0.773
741.21	0.782
741.39	0.763
741.57	0.775
741.76	0.794
741.94	0.799
742.12	0.765
742.31	0.771
742.49	0.789
742.67	0.809
742.85	0.823
743.04	0.823
743.22	0.833
743.40	0.883
743.58	0.864
743.77	0.877
743.95	0.907
744.13	0.953
744.31	0.934
744.50	0.927
744.68	0.930
744.86	0.908
745.04	0.920
745.23	0.984
745.41	0.968
745.59	0.972
745.77	0.942
745.96	0.934
746.14	0.948
746.32	0.944
746.50	0.933
746.69	0.917
746.87	0.930
747.05	0.914
747.23	0.840
747.42	0.823
747.60	0.855
747.78	0.856
747.96	0.880
748.14	0.830
748.33	0.857
748.51	0.854
748.69	0.844
748.87	0.865
749.06	0.860
749.24	0.861
749.42	0.851
749.60	0.831
749.78	0.841
749.97	0.797
750.15	0.794
750.33	0.796
750.51	0.819
750.69	0.824
750.88	0.830
751.06	0.843
751.24	0.867
751.42	0.856
751.60	0.849
751.79	0.915
751.97	0.960
752.15	0.961
752.33	0.928
752.51	0.989
752.69	1.011
752.88	0.976
753.06	1.011
753.24	0.991
753.42	1.027
753.60	1.174
753.78	1.037
753.97	1.053
754.15	1.072
754.33	1.102
754.51	0.985
754.69	0.968
754.87	0.993
755.06	0.936
755.24	0.939
755.42	0.947
755.60	0.859
755.78	0.867
755.96	0.818
756.15	0.820
756.33	0.828
756.51	0.849
756.69	0.835
756.87	0.806
757.05	0.825
757.23	0.805
757.42	0.772
757.60	0.769
757.78	0.762
757.96	0.760
758.14	0.742
758.32	0.726
758.50	0.735
758.69	0.735
758.87	0.727
759.05	0.729
759.23	0.741
759.41	0.742
759.59	0.737
759.77	0.758
759.95	0.783
760.13	0.830
760.32	0.828
760.50	0.824
760.68	0.844
760.86	0.849
761.04	0.824
761.22	0.828
761.40	0.875
761.58	0.876
761.76	0.846
761.95	0.828
762.13	0.788
762.31	0.789
762.49	0.759
762.67	0.779
762.85	0.791
763.03	0.783
763.21	0.767
763.39	0.751
763.57	0.755
763.75	0.753
763.94	0.739
764.12	0.739
764.30	0.764
764.48	0.768
764.66	0.731
764.84	0.725
765.02	0.766
765.20	0.772
765.38	0.751
765.56	0.754
765.74	0.795
765.92	0.795
766.10	0.802
766.28	0.797
766.46	0.827
766.65	0.831
766.83	0.821
767.01	0.803
767.19	0.808
767.37	0.807
767.55	0.793
767.73	0.773
767.91	0.777
768.09	0.765
768.27	0.750
768.45	0.735
768.63	0.739
768.81	0.741
768.99	0.717
769.17	0.740
769.35	0.756
769.53	0.755
769.71	0.737
769.89	0.743
770.07	0.749
770.25	0.736
770.43	0.717
770.61	0.740
770.79	0.745
770.97	0.753
771.15	0.721
771.33	0.723
771.51	0.725
771.69	0.732
771.87	0.742
772.05	0.747
772.24	0.753
772.42	0.761
772.60	0.739
772.78	0.796
772.96	0.823
773.14	0.819
773.32	0.796
773.49	0.803
773.67	0.803
773.85	0.782
774.03	0.770
774.21	0.799
774.39	0.811
774.57	0.831
774.75	0.764
774.93	0.763
775.11	0.787
775.29	0.793
775.47	0.794
775.65	0.799
775.83	0.816
776.01	0.838
776.19	0.795
776.37	0.798
776.55	0.798
776.73	0.794
776.91	0.785
777.09	0.767
777.27	0.766
777.45	0.755
777.63	0.738
777.81	0.736
777.99	0.724
778.17	0.722
778.35	0.702
778.53	0.690
778.71	0.697
778.89	0.686
779.07	0.675
779.24	0.682
779.42	0.685
779.60	0.703
779.78	0.699
779.96	0.702
780.14	0.711
780.32	0.728
780.50	0.712
780.68	0.712
780.86	0.703
781.04	0.721
781.22	0.724
781.40	0.735
781.58	0.727
781.75	0.717
781.93	0.701
782.11	0.703
782.29	0.691
782.47	0.690
782.65	0.679
782.83	0.707
783.01	0.704
783.19	0.696
783.37	0.681
783.55	0.682
783.72	0.702
783.90	0.713
784.08	0.704
784.26	0.715
784.44	0.734
784.62	0.736
784.80	0.703
784.98	0.705
785.16	0.711
785.33	0.724
785.51	0.713
785.69	0.701
785.87	0.702
786.05	0.712
786.23	0.708
786.41	0.706
786.59	0.714
786.77	0.715
786.94	0.703
787.12	0.706
787.30	0.709
787.48	0.703
787.66	0.690
787.84	0.689
788.02	0.681
788.19	0.679
788.37	0.666
788.55	0.666
788.73	0.666
788.91	0.660
789.09	0.645
789.27	0.634
789.44	0.647
789.62	0.653
789.80	0.662
789.98	0.685
790.16	0.673
790.34	0.670
790.51	0.657
790.69	0.676
790.87	0.683
791.05	0.680
791.23	0.674
791.41	0.676
791.58	0.685
791.76	0.662
791.94	0.631
792.12	0.640
792.30	0.642
792.48	0.641
792.65	0.634
792.83	0.640
793.01	0.648
793.19	0.646
793.37	0.628
793.54	0.624
793.72	0.636
793.90	0.636
794.08	0.625
794.26	0.627
794.43	0.636
794.61	0.621
794.79	0.610
794.97	0.607
795.15	0.615
795.32	0.620
795.50	0.610
795.68	0.605
795.86	0.611
796.04	0.611
796.21	0.605
796.39	0.604
796.57	0.617
796.75	0.624
796.92	0.625
797.10	0.629
797.28	0.632
797.46	0.636
797.64	0.637
797.81	0.643
797.99	0.648
798.17	0.650
798.35	0.643
798.52	0.648
798.70	0.646
798.88	0.655
799.06	0.653
799.23	0.655
799.41	0.664
799.59	0.657
799.77	0.647
799.94	0.656
800.12	0.667
800.30	0.685
800.48	0.681
800.65	0.681
800.83	0.671
801.01	0.663
801.19	0.661
801.36	0.656
801.54	0.660
801.72	0.670
801.90	0.656
802.07	0.651
802.25	0.637
802.43	0.623
802.60	0.619
802.78	0.627
802.96	0.633
803.14	0.627
803.31	0.626
803.49	0.627
803.67	0.622
803.84	0.625
804.02	0.618
804.20	0.620
804.38	0.625
804.55	0.625
804.73	0.610
804.91	0.609
805.08	0.624
805.26	0.619
805.44	0.681
805.61	0.684
805.79	0.684
805.97	0.682
806.15	0.674
806.32	0.668
806.50	0.674
806.68	0.674
806.85	0.667
807.03	0.655
807.21	0.671
807.38	0.607
807.56	0.596
807.74	0.606
807.91	0.612
808.09	0.616
808.27	0.634
808.44	0.657
808.62	0.667
808.80	0.666
808.97	0.661
809.15	0.655
809.33	0.673
809.50	0.682
809.68	0.667
809.86	0.675
810.03	0.704
810.21	0.684
810.39	0.667
810.56	0.673
810.74	0.700
810.91	0.771
811.09	0.759
811.27	0.777
811.44	0.781
811.62	0.782
811.80	0.766
811.97	0.737
812.15	0.737
812.33	0.733
812.50	0.719
812.68	0.703
812.85	0.649
813.03	0.652
813.21	0.622
813.38	0.615
813.56	0.622
813.74	0.631
813.91	0.635
814.09	0.665
814.26	0.659
814.44	0.662
814.62	0.654
814.79	0.658
814.97	0.664
815.14	0.665
815.32	0.672
815.50	0.687
815.67	0.691
815.85	0.686
816.02	0.673
816.20	0.680
816.38	0.695
816.55	0.700
816.73	0.698
816.90	0.708
817.08	0.739
817.26	0.739
817.43	0.718
817.61	0.741
817.78	0.759
817.96	0.739
818.13	0.728
818.31	0.727
818.49	0.738
818.66	0.729
818.84	0.716
819.01	0.698
819.19	0.704
819.36	0.705
819.54	0.676
819.71	0.715
819.89	0.729
820.07	0.739
820.24	0.734
820.42	0.735
820.59	0.757
820.77	0.779
820.94	0.771
821.12	0.789
821.29	0.802
821.47	0.802
821.64	0.741
821.82	0.754
822.00	0.753
822.17	0.751
822.35	0.744
822.52	0.744
822.70	0.733
822.87	0.739
823.05	0.718
823.22	0.731
823.40	0.759
823.57	0.779
823.75	0.759
823.92	0.783
824.10	0.803
824.27	0.844
824.45	0.830
824.62	0.890
824.80	0.906
824.97	0.917
825.15	0.908
825.32	0.923
825.50	0.929
825.67	0.941
825.85	0.915
826.02	0.928
826.20	0.946
826.37	1.072
826.55	0.989
826.72	1.178
826.90	1.256
827.07	1.306
827.25	1.228
827.42	1.388
827.60	1.524
827.77	1.745
827.95	1.708
828.12	1.873
828.30	1.431
828.47	1.552
828.65	1.181
828.82	1.235
829.00	1.301
829.17	1.413
829.34	1.379
829.52	1.435
829.69	-0.000
829.87	-0.000
830.04	-0.000
830.22	-0.000
830.39	-0.000
830.57	-0.000
830.74	-0.000
830.92	-0.000
831.09	-0.000
831.26	-0.000
831.44	-0.000
831.61	-0.000
831.79	-0.000
831.96	-0.000
832.14	-0.000
832.31	-0.000
832.49	-0.000
832.66	-0.000
832.83	-0.000
833.01	-0.000
833.18	-0.000
833.36	-0.000
833.53	-0.000
833.70	-0.000
833.88	-0.000
834.05	-0.000
834.23	-0.000
834.40	-0.000
834.58	-0.000
834.75	-0.000
834.92	-0.000
835.10	-0.000
835.27	-0.000
835.45	-0.000
835.62	-0.000
835.79	-0.000
835.97	-0.000
836.14	-0.000
836.32	-0.000
836.49	-0.000
836.66	-0.000
836.84	-0.000
837.01	-0.000
837.18	-0.000
837.36	-0.000
837.53	-0.000
837.71	-0.000
837.88	-0.000
838.05	-0.000
838.23	-0.000
838.40	-0.000
838.58	-0.000
838.75	-0.000
838.92	-0.000
839.10	-0.000
839.27	-0.000
839.44	-0.000
839.62	-0.000
839.79	-0.000
839.96	-0.000
840.14	-0.000
840.31	-0.000
840.48	-0.000
840.66	-0.000
840.83	-0.000
841.01	-0.000
841.18	-0.000
841.35	-0.000
841.53	-0.000
841.70	-0.000
841.87	-0.000
842.05	-0.000
842.22	-0.000
842.39	-0.000
842.57	-0.000
842.74	-0.000
842.91	-0.000
843.09	-0.000
843.26	-0.000
843.43	-0.000
843.60	-0.000
843.78	-0.000
843.95	-0.000
844.12	-0.000
844.30	-0.000
844.47	-0.000
844.64	-0.000
844.82	-0.000
844.99	-0.000
845.16	-0.000
845.34	-0.000
845.51	-0.000
845.68	-0.000
845.85	-0.000
846.03	-0.000
846.20	-0.000
846.37	-0.000
846.55	-0.000
846.72	-0.000
846.89	-0.000
847.06	-0.000
847.24	-0.000
847.41	-0.000
847.58	-0.000
847.76	-0.000
847.93	-0.000
848.10	-0.000
848.27	-0.000
848.45	-0.000
848.62	-0.000
848.79	-0.000
848.97	-0.000
849.14	-0.000
849.31	-0.000
849.48	-0.000
849.66	-0.000
849.83	-0.000
850.00	-0.000
850.17	-0.000
850.35	-0.000
850.52	-0.000
850.69	-0.000
850.86	-0.000
851.04	-0.000
851.21	-0.000
851.38	-0.000
851.55	-0.000
851.72	-0.000
851.90	-0.000
852.07	-0.000
852.24	-0.000
852.41	-0.000
852.59	-0.000
852.76	-0.000
852.93	-0.000
853.10	-0.000
853.28	-0.000
853.45	-0.000
853.62	-0.000
853.79	-0.000
853.96	-0.000
854.14	-0.000
854.31	-0.000
854.48	-0.000
854.65	-0.000
854.82	-0.000
855.00	-0.000
855.17	-0.000
855.34	-0.000
855.51	-0.000
855.68	-0.000
855.86	-0.000
856.03	-0.000
856.20	-0.000
856.37	-0.000
856.54	-0.000
856.72	-0.000
856.89	-0.000
857.06	-0.000
857.23	-0.000
857.40	-0.000
857.57	-0.000
857.75	-0.000
857.92	-0.000
858.09	-0.000
858.26	-0.000
858.43	-0.000
858.60	-0.000
858.78	-0.000
858.95	-0.000
859.12	-0.000
859.29	-0.000
859.46	-0.000
859.63	-0.000
859.81	-0.000
859.98	-0.000
860.15	-0.000
860.32	-0.000
860.49	-0.000
860.66	-0.000
860.83	-0.000
861.01	-0.000
861.18	-0.000
861.35	-0.000
861.52	-0.000
861.69	-0.000
861.86	-0.000
862.03	-0.000
862.21	-0.000
862.38	-0.000
862.55	-0.000
862.72	-0.000
862.89	-0.000
863.06	-0.000
863.23	-0.000
863.40	-0.000
863.58	-0.000
863.75	-0.000
863.92	-0.000
864.09	-0.000
864.26	-0.000
864.43	-0.000
864.60	-0.000
864.77	-0.000
864.94	-0.000
865.11	-0.000
865.29	-0.000
865.46	-0.000
865.63	-0.000
865.80	-0.000
865.97	-0.000
866.14	-0.000
866.31	-0.000
866.48	-0.000
866.65	-0.000
866.82	-0.000
866.99	-0.000
867.16	-0.000
867.34	-0.000
867.51	-0.000
867.68	-0.000
867.85	-0.000
868.02	-0.000
868.19	-0.000
868.36	-0.000
868.53	-0.000
868.70	-0.000
868.87	-0.000
869.04	-0.000
869.21	-0.000
869.38	-0.000
869.55	-0.000
869.72	-0.000
869.89	-0.000
870.06	-0.000
870.24	-0.000
870.41	-0.000
870.58	-0.000
870.75	-0.000
870.92	-0.000
871.09	-0.000
871.26	-0.000
871.43	-0.000
871.60	-0.000
871.77	-0.000
871.94	-0.000
872.11	-0.000
872.28	-0.000
872.45	-0.000
872.62	-0.000
872.79	-0.000
872.96	-0.000
873.13	-0.000
873.30	-0.000
873.47	-0.000
873.64	-0.000
873.81	-0.000
873.98	-0.000
874.15	-0.000
874.32	-0.000
874.49	-0.000
874.66	-0.000
874.83	-0.000
875.00	-0.000
875.17	-0.000
875.34	-0.000
875.51	-0.000
875.68	-0.000
875.85	-0.000
876.02	-0.000
876.19	-0.000
876.36	-0.000
876.53	-0.000
876.70	-0.000
876.87	-0.000
877.04	-0.000
877.21	-0.000
877.38	-0.000
877.55	-0.000
877.72	-0.000
877.89	-0.000
878.06	-0.000
878.23	-0.000
878.39	-0.000
878.56	-0.000
878.73	-0.000
878.90	-0.000
879.07	-0.000
879.24	-0.000
879.41	-0.000
879.58	-0.000
879.75	-0.000
879.92	-0.000
880.09	-0.000
880.26	-0.000
880.43	-0.000
880.60	-0.000
880.77	-0.000
880.94	-0.000
881.11	-0.000
881.27	-0.000
881.44	-0.000
881.61	-0.000
881.78	-0.000
881.95	-0.000
882.12	-0.000
882.29	-0.000
882.46	-0.000
882.63	-0.000
882.80	-0.000
882.97	-0.000
883.14	-0.000
883.30	-0.000
883.47	-0.000
883.64	-0.000
883.81	-0.000
883.98	-0.000
884.15	-0.000
884.32	-0.000
884.49	-0.000
884.66	-0.000
884.82	-0.000
884.99	-0.000
885.16	-0.000
885.33	-0.000
885.50	-0.000
885.67	-0.000
885.84	-0.000
886.01	-0.000
886.17	-0.000
886.34	-0.000
886.51	-0.000
886.68	-0.000
886.85	-0.000
887.02	-0.000
887.19	-0.000
887.36	-0.000
887.52	-0.000
887.69	-0.000
887.86	-0.000
888.03	-0.000
888.20	-0.000
888.37	-0.000
888.54	-0.000
888.70	-0.000
888.87	-0.000
889.04	-0.000
889.21	-0.000
889.38	-0.000
889.55	-0.000
889.71	-0.000
889.88	-0.000
890.05	-0.000
890.22	-0.000
890.39	-0.000
>>>>>End Processed Spectral Data<<<<<
