SpectraSuite Data File
++++++++++++++++++++++++++++++++++++
Date: Fri Jun 19 12:45:02 CEST 2015
User: introlabs
Dark Spectrum Present: Yes
Reference Spectrum Present: Yes
Number of Sampled Component Spectra: 1
Spectrometers: USB4H08886
Integration Time (usec): 745692 (USB4H08886)
Spectra Averaged: 5 (USB4H08886)
Boxcar Smoothing: 5 (USB4H08886)
Correct for Electrical Dark: Yes (USB4H08886)
Strobe/Lamp Enabled: No (USB4H08886)
Correct for Detector Non-linearity: Yes (USB4H08886)
Correct for Stray Light: Yes (USB4H08886)
Number of Pixels in Processed Spectrum: 3648
>>>>>Begin Processed Spectral Data<<<<<
178.14	-0.000
178.36	-0.000
178.57	-0.000
178.79	-0.000
179.01	-0.000
179.22	-0.000
179.44	-0.000
179.65	-0.000
179.87	-0.000
180.08	-0.000
180.30	-0.000
180.52	-0.000
180.73	-0.000
180.95	-0.000
181.16	-0.000
181.38	-0.000
181.59	-0.000
181.81	-0.000
182.03	-0.000
182.24	-0.000
182.46	-0.000
182.67	-0.000
182.89	-0.000
183.10	-0.000
183.32	-0.000
183.54	-0.000
183.75	-0.000
183.97	-0.000
184.18	-0.000
184.40	-0.000
184.61	-0.000
184.83	-0.000
185.04	-0.000
185.26	-0.000
185.48	-0.000
185.69	-0.000
185.91	-0.000
186.12	-0.000
186.34	-0.000
186.55	-0.000
186.77	-0.000
186.98	-0.000
187.20	-0.000
187.42	-0.000
187.63	-0.000
187.85	-0.000
188.06	-0.000
188.28	-0.000
188.49	-0.000
188.71	-0.000
188.92	-0.000
189.14	-0.000
189.36	-0.000
189.57	-0.000
189.79	-0.000
190.00	-0.000
190.22	-0.000
190.43	-0.000
190.65	-0.000
190.86	-0.000
191.08	-0.000
191.29	-0.000
191.51	-0.000
191.72	-0.000
191.94	-0.000
192.16	-0.000
192.37	-0.000
192.59	-0.000
192.80	-0.000
193.02	-0.000
193.23	-0.000
193.45	-0.000
193.66	-0.000
193.88	-0.000
194.09	-0.000
194.31	-0.000
194.52	-0.000
194.74	-0.000
194.95	-0.000
195.17	-0.000
195.38	-0.000
195.60	-0.000
195.81	-0.000
196.03	-0.000
196.25	-0.000
196.46	-0.000
196.68	-0.000
196.89	-0.000
197.11	-0.000
197.32	-0.000
197.54	-0.000
197.75	-0.000
197.97	-0.000
198.18	-0.000
198.40	-0.000
198.61	-0.000
198.83	-0.000
199.04	-0.000
199.26	-0.000
199.47	-0.000
199.69	-0.000
199.90	-0.000
200.12	-0.000
200.33	-0.000
200.55	-0.000
200.76	-0.000
200.98	-0.000
201.19	-0.000
201.41	-0.000
201.62	-0.000
201.84	-0.000
202.05	-0.000
202.27	-0.000
202.48	-0.000
202.70	-0.000
202.91	-0.000
203.13	-0.000
203.34	-0.000
203.56	-0.000
203.77	-0.000
203.99	-0.000
204.20	-0.000
204.42	-0.000
204.63	-0.000
204.85	-0.000
205.06	-0.000
205.28	-0.000
205.49	-0.000
205.71	-0.000
205.92	-0.000
206.14	-0.000
206.35	-0.000
206.56	-0.000
206.78	-0.000
206.99	-0.000
207.21	-0.000
207.42	-0.000
207.64	-0.000
207.85	-0.000
208.07	-0.000
208.28	-0.000
208.50	-0.000
208.71	-0.000
208.93	-0.000
209.14	-0.000
209.36	-0.000
209.57	-0.000
209.79	-0.000
210.00	-0.000
210.22	-0.000
210.43	-0.000
210.64	-0.000
210.86	-0.000
211.07	-0.000
211.29	-0.000
211.50	-0.000
211.72	-0.000
211.93	-0.000
212.15	-0.000
212.36	-0.000
212.58	-0.000
212.79	-0.000
213.01	-0.000
213.22	-0.000
213.43	-0.000
213.65	-0.000
213.86	-0.000
214.08	-0.000
214.29	-0.000
214.51	-0.000
214.72	-0.000
214.94	-0.000
215.15	-0.000
215.36	-0.000
215.58	-0.000
215.79	-0.000
216.01	-0.000
216.22	-0.000
216.44	-0.000
216.65	-0.000
216.87	-0.000
217.08	-0.000
217.29	-0.000
217.51	-0.000
217.72	-0.000
217.94	-0.000
218.15	-0.000
218.37	-0.000
218.58	-0.000
218.80	-0.000
219.01	-0.000
219.22	-0.000
219.44	-0.000
219.65	-0.000
219.87	-0.000
220.08	-0.000
220.30	-0.000
220.51	-0.000
220.72	-0.000
220.94	-0.000
221.15	-0.000
221.37	-0.000
221.58	-0.000
221.79	-0.000
222.01	-0.000
222.22	-0.000
222.44	-0.000
222.65	-0.000
222.87	-0.000
223.08	-0.000
223.29	-0.000
223.51	-0.000
223.72	-0.000
223.94	-0.000
224.15	-0.000
224.36	-0.000
224.58	-0.000
224.79	-0.000
225.01	-0.000
225.22	-0.000
225.44	-0.000
225.65	-0.000
225.86	-0.000
226.08	-0.000
226.29	-0.000
226.51	-0.000
226.72	-0.000
226.93	-0.000
227.15	-0.000
227.36	-0.000
227.58	-0.000
227.79	-0.000
228.00	-0.000
228.22	-0.000
228.43	-0.000
228.65	-0.000
228.86	-0.000
229.07	-0.000
229.29	-0.000
229.50	-0.000
229.72	-0.000
229.93	-0.000
230.14	-0.000
230.36	-0.000
230.57	-0.000
230.78	-0.000
231.00	-0.000
231.21	-0.000
231.43	-0.000
231.64	-0.000
231.85	-0.000
232.07	-0.000
232.28	-0.000
232.50	-0.000
232.71	-0.000
232.92	-0.000
233.14	-0.000
233.35	-0.000
233.56	-0.000
233.78	-0.000
233.99	-0.000
234.21	-0.000
234.42	-0.000
234.63	-0.000
234.85	-0.000
235.06	-0.000
235.27	-0.000
235.49	-0.000
235.70	-0.000
235.91	-0.000
236.13	-0.000
236.34	-0.000
236.56	-0.000
236.77	-0.000
236.98	-0.000
237.20	-0.000
237.41	-0.000
237.62	-0.000
237.84	-0.000
238.05	-0.000
238.26	-0.000
238.48	-0.000
238.69	-0.000
238.91	-0.000
239.12	-0.000
239.33	-0.000
239.55	-0.000
239.76	-0.000
239.97	-0.000
240.19	-0.000
240.40	-0.000
240.61	-0.000
240.83	-0.000
241.04	-0.000
241.25	-0.000
241.47	-0.000
241.68	-0.000
241.89	-0.000
242.11	-0.000
242.32	-0.000
242.53	-0.000
242.75	-0.000
242.96	-0.000
243.17	-0.000
243.39	-0.000
243.60	-0.000
243.81	-0.000
244.03	-0.000
244.24	-0.000
244.45	-0.000
244.67	-0.000
244.88	-0.000
245.09	-0.000
245.31	-0.000
245.52	-0.000
245.73	-0.000
245.95	-0.000
246.16	-0.000
246.37	-0.000
246.59	-0.000
246.80	-0.000
247.01	-0.000
247.23	-0.000
247.44	-0.000
247.65	-0.000
247.87	-0.000
248.08	-0.000
248.29	-0.000
248.51	-0.000
248.72	-0.000
248.93	-0.000
249.15	-0.000
249.36	-0.000
249.57	-0.000
249.78	-0.000
250.00	-0.000
250.21	-0.000
250.42	-0.000
250.64	-0.000
250.85	-0.000
251.06	-0.000
251.28	-0.000
251.49	-0.000
251.70	-0.000
251.92	-0.000
252.13	-0.000
252.34	-0.000
252.55	-0.000
252.77	-0.000
252.98	-0.000
253.19	-0.000
253.41	-0.000
253.62	-0.000
253.83	-0.000
254.05	-0.000
254.26	-0.000
254.47	-0.000
254.68	-0.000
254.90	-0.000
255.11	-0.000
255.32	-0.000
255.54	-0.000
255.75	-0.000
255.96	-0.000
256.17	-0.000
256.39	-0.000
256.60	-0.000
256.81	-0.000
257.03	-0.000
257.24	-0.000
257.45	-0.000
257.66	-0.000
257.88	-0.000
258.09	-0.000
258.30	-0.000
258.51	-0.000
258.73	-0.000
258.94	-0.000
259.15	-0.000
259.37	-0.000
259.58	-0.000
259.79	-0.000
260.00	-0.000
260.22	-0.000
260.43	-0.000
260.64	-0.000
260.85	-0.000
261.07	-0.000
261.28	-0.000
261.49	-0.000
261.71	-0.000
261.92	-0.000
262.13	-0.000
262.34	-0.000
262.56	-0.000
262.77	-0.000
262.98	-0.000
263.19	-0.000
263.41	-0.000
263.62	-0.000
263.83	-0.000
264.04	-0.000
264.26	-0.000
264.47	-0.000
264.68	-0.000
264.89	-0.000
265.11	-0.000
265.32	-0.000
265.53	-0.000
265.74	-0.000
265.96	-0.000
266.17	-0.000
266.38	-0.000
266.59	-0.000
266.81	-0.000
267.02	-0.000
267.23	-0.000
267.44	-0.000
267.65	-0.000
267.87	-0.000
268.08	-0.000
268.29	-0.000
268.50	-0.000
268.72	-0.000
268.93	-0.000
269.14	-0.000
269.35	-0.000
269.57	-0.000
269.78	-0.000
269.99	-0.000
270.20	-0.000
270.41	-0.000
270.63	-0.000
270.84	-0.000
271.05	-0.000
271.26	-0.000
271.48	-0.000
271.69	-0.000
271.90	-0.000
272.11	-0.000
272.32	-0.000
272.54	-0.000
272.75	-0.000
272.96	-0.000
273.17	-0.000
273.39	-0.000
273.60	-0.000
273.81	-0.000
274.02	-0.000
274.23	-0.000
274.45	-0.000
274.66	-0.000
274.87	-0.000
275.08	-0.000
275.29	-0.000
275.51	-0.000
275.72	-0.000
275.93	-0.000
276.14	-0.000
276.35	-0.000
276.57	-0.000
276.78	-0.000
276.99	-0.000
277.20	-0.000
277.41	-0.000
277.63	-0.000
277.84	-0.000
278.05	-0.000
278.26	-0.000
278.47	-0.000
278.69	-0.000
278.90	-0.000
279.11	-0.000
279.32	-0.000
279.53	-0.000
279.74	-0.000
279.96	-0.000
280.17	-0.000
280.38	-0.000
280.59	-0.000
280.80	-0.000
281.02	-0.000
281.23	-0.000
281.44	-0.000
281.65	-0.000
281.86	-0.000
282.07	-0.000
282.29	-0.000
282.50	-0.000
282.71	-0.000
282.92	-0.000
283.13	-0.000
283.35	-0.000
283.56	-0.000
283.77	-0.000
283.98	-0.000
284.19	-0.000
284.40	-0.000
284.62	-0.000
284.83	-0.000
285.04	-0.000
285.25	-0.000
285.46	-0.000
285.67	-0.000
285.88	-0.000
286.10	-0.000
286.31	-0.000
286.52	-0.000
286.73	-0.000
286.94	-0.000
287.15	-0.000
287.37	-0.000
287.58	-0.000
287.79	-0.000
288.00	-0.000
288.21	-0.000
288.42	-0.000
288.63	-0.000
288.85	-0.000
289.06	-0.000
289.27	-0.000
289.48	-0.000
289.69	-0.000
289.90	-0.000
290.11	-0.000
290.33	-0.000
290.54	-0.000
290.75	-0.000
290.96	-0.000
291.17	-0.000
291.38	-0.000
291.59	-0.000
291.81	-0.000
292.02	-0.000
292.23	-0.000
292.44	-0.000
292.65	-0.000
292.86	-0.000
293.07	-0.000
293.28	-0.000
293.50	-0.000
293.71	-0.000
293.92	-0.000
294.13	-0.000
294.34	-0.000
294.55	-0.000
294.76	-0.000
294.97	-0.000
295.19	-0.000
295.40	-0.000
295.61	-0.000
295.82	-0.000
296.03	-0.000
296.24	-0.000
296.45	3.187
296.66	1.947
296.87	2.004
297.09	2.194
297.30	2.898
297.51	1.869
297.72	1.810
297.93	1.940
298.14	1.868
298.35	1.793
298.56	1.766
298.77	1.950
298.99	1.890
299.20	1.798
299.41	1.756
299.62	1.726
299.83	1.708
300.04	1.616
300.25	1.607
300.46	1.674
300.67	1.635
300.88	1.559
301.10	1.564
301.31	1.649
301.52	1.584
301.73	1.519
301.94	1.515
302.15	1.544
302.36	1.492
302.57	1.416
302.78	1.426
302.99	1.476
303.20	1.497
303.41	1.392
303.63	1.375
303.84	1.387
304.05	1.381
304.26	1.314
304.47	1.321
304.68	1.335
304.89	1.326
305.10	1.272
305.31	1.260
305.52	1.302
305.73	1.296
305.94	1.253
306.15	1.247
306.37	1.272
306.58	1.283
306.79	1.245
307.00	1.262
307.21	1.304
307.42	1.302
307.63	1.261
307.84	1.228
308.05	1.267
308.26	1.267
308.47	1.238
308.68	1.232
308.89	1.236
309.10	1.231
309.31	1.190
309.52	1.180
309.73	1.196
309.95	1.188
310.16	1.159
310.37	1.147
310.58	1.166
310.79	1.166
311.00	1.158
311.21	1.156
311.42	1.160
311.63	1.154
311.84	1.134
312.05	1.131
312.26	1.158
312.47	1.169
312.68	1.142
312.89	1.125
313.10	1.135
313.31	1.110
313.52	1.109
313.73	1.110
313.94	1.115
314.15	1.099
314.36	1.077
314.57	1.068
314.78	1.056
314.99	1.051
315.21	1.038
315.42	1.039
315.63	1.055
315.84	1.033
316.05	1.019
316.26	1.026
316.47	1.045
316.68	1.040
316.89	1.021
317.10	1.041
317.31	1.050
317.52	1.050
317.73	1.027
317.94	1.024
318.15	1.068
318.36	1.066
318.57	1.047
318.78	1.036
318.99	1.072
319.20	1.068
319.41	1.034
319.62	1.036
319.83	1.050
320.04	1.046
320.25	1.031
320.46	0.997
320.67	1.002
320.88	0.997
321.09	0.982
321.30	0.968
321.51	0.983
321.72	0.979
321.93	0.960
322.14	0.953
322.35	0.980
322.56	0.982
322.77	0.968
322.98	0.979
323.19	0.987
323.40	0.991
323.61	0.969
323.82	0.965
324.03	0.971
324.24	0.970
324.45	0.957
324.66	0.940
324.87	0.938
325.08	0.938
325.29	0.917
325.50	0.912
325.71	0.919
325.92	0.925
326.13	0.911
326.34	0.912
326.55	0.920
326.76	0.920
326.97	0.907
327.18	0.902
327.39	0.928
327.60	0.931
327.80	0.930
328.01	0.928
328.22	0.930
328.43	0.932
328.64	0.920
328.85	0.924
329.06	0.926
329.27	0.926
329.48	0.920
329.69	0.902
329.90	0.912
330.11	0.904
330.32	0.897
330.53	0.892
330.74	0.894
330.95	0.890
331.16	0.875
331.37	0.883
331.58	0.884
331.79	0.883
332.00	0.874
332.21	0.866
332.42	0.873
332.63	0.864
332.83	0.858
333.04	0.859
333.25	0.874
333.46	0.873
333.67	0.858
333.88	0.862
334.09	0.872
334.30	0.869
334.51	0.860
334.72	0.855
334.93	0.859
335.14	0.859
335.35	0.851
335.56	0.845
335.77	0.854
335.98	0.853
336.18	0.845
336.39	0.839
336.60	0.843
336.81	0.841
337.02	0.839
337.23	0.843
337.44	0.846
337.65	0.848
337.86	0.837
338.07	0.832
338.28	0.839
338.49	0.836
338.70	0.828
338.91	0.836
339.11	0.843
339.32	0.840
339.53	0.828
339.74	0.826
339.95	0.824
340.16	0.822
340.37	0.814
340.58	0.812
340.79	0.816
341.00	0.816
341.21	0.804
341.41	0.805
341.62	0.806
341.83	0.807
342.04	0.802
342.25	0.813
342.46	0.818
342.67	0.817
342.88	0.811
343.09	0.810
343.30	0.818
343.50	0.821
343.71	0.812
343.92	0.811
344.13	0.817
344.34	0.815
344.55	0.799
344.76	0.797
344.97	0.802
345.18	0.800
345.38	0.797
345.59	0.791
345.80	0.790
346.01	0.787
346.22	0.782
346.43	0.777
346.64	0.786
346.85	0.786
347.06	0.778
347.26	0.778
347.47	0.783
347.68	0.778
347.89	0.774
348.10	0.770
348.31	0.778
348.52	0.778
348.73	0.774
348.93	0.771
349.14	0.773
349.35	0.773
349.56	0.767
349.77	0.762
349.98	0.770
350.19	0.767
350.39	0.762
350.60	0.758
350.81	0.774
351.02	0.772
351.23	0.767
351.44	0.770
351.65	0.774
351.86	0.772
352.06	0.770
352.27	0.769
352.48	0.772
352.69	0.772
352.90	0.766
353.11	0.753
353.31	0.761
353.52	0.757
353.73	0.748
353.94	0.749
354.15	0.755
354.36	0.755
354.57	0.746
354.77	0.748
354.98	0.749
355.19	0.748
355.40	0.748
355.61	0.753
355.82	0.758
356.02	0.758
356.23	0.751
356.44	0.753
356.65	0.759
356.86	0.759
357.07	0.753
357.27	0.756
357.48	0.759
357.69	0.754
357.90	0.739
358.11	0.737
358.32	0.741
358.52	0.745
358.73	0.734
358.94	0.736
359.15	0.741
359.36	0.742
359.56	0.737
359.77	0.733
359.98	0.741
360.19	0.740
360.40	0.736
360.61	0.736
360.81	0.735
361.02	0.735
361.23	0.727
361.44	0.726
361.65	0.727
361.85	0.727
362.06	0.726
362.27	0.728
362.48	0.728
362.69	0.731
362.89	0.724
363.10	0.725
363.31	0.731
363.52	0.734
363.73	0.728
363.93	0.728
364.14	0.730
364.35	0.731
364.56	0.720
364.77	0.723
364.97	0.727
365.18	0.728
365.39	0.722
365.60	0.719
365.81	0.720
366.01	0.720
366.22	0.717
366.43	0.716
366.64	0.719
366.84	0.725
367.05	0.721
367.26	0.720
367.47	0.723
367.68	0.723
367.88	0.720
368.09	0.718
368.30	0.721
368.51	0.720
368.71	0.719
368.92	0.724
369.13	0.722
369.34	0.722
369.55	0.720
369.75	0.720
369.96	0.728
370.17	0.727
370.38	0.723
370.58	0.723
370.79	0.729
371.00	0.727
371.21	0.717
371.41	0.723
371.62	0.727
371.83	0.723
372.04	0.719
372.24	0.713
372.45	0.715
372.66	0.715
372.87	0.711
373.07	0.709
373.28	0.711
373.49	0.714
373.70	0.704
373.90	0.703
374.11	0.713
374.32	0.713
374.53	0.711
374.73	0.712
374.94	0.714
375.15	0.715
375.36	0.711
375.56	0.720
375.77	0.721
375.98	0.721
376.19	0.717
376.39	0.711
376.60	0.714
376.81	0.714
377.02	0.710
377.22	0.710
377.43	0.710
377.64	0.710
377.84	0.700
378.05	0.704
378.26	0.711
378.47	0.710
378.67	0.707
378.88	0.704
379.09	0.706
379.30	0.706
379.50	0.703
379.71	0.706
379.92	0.709
380.12	0.708
380.33	0.699
380.54	0.695
380.75	0.702
380.95	0.702
381.16	0.700
381.37	0.700
381.57	0.702
381.78	0.702
381.99	0.701
382.20	0.700
382.40	0.704
382.61	0.705
382.82	0.701
383.02	0.695
383.23	0.698
383.44	0.698
383.64	0.696
383.85	0.699
384.06	0.701
384.27	0.699
384.47	0.697
384.68	0.697
384.89	0.703
385.09	0.702
385.30	0.701
385.51	0.700
385.71	0.704
385.92	0.704
386.13	0.702
386.33	0.704
386.54	0.705
386.75	0.704
386.95	0.699
387.16	0.694
387.37	0.697
387.58	0.697
387.78	0.693
387.99	0.691
388.20	0.693
388.40	0.690
388.61	0.685
388.82	0.689
389.02	0.691
389.23	0.691
389.44	0.689
389.64	0.689
389.85	0.700
390.06	0.700
390.26	0.700
390.47	0.699
390.68	0.702
390.88	0.700
391.09	0.695
391.30	0.695
391.50	0.694
391.71	0.694
391.92	0.692
392.12	0.684
392.33	0.685
392.53	0.685
392.74	0.684
392.95	0.683
393.15	0.686
393.36	0.688
393.57	0.685
393.77	0.688
393.98	0.689
394.19	0.689
394.39	0.688
394.60	0.689
394.81	0.691
395.01	0.690
395.22	0.688
395.43	0.688
395.63	0.693
395.84	0.695
396.04	0.690
396.25	0.692
396.46	0.695
396.66	0.694
396.87	0.690
397.08	0.687
397.28	0.689
397.49	0.691
397.69	0.687
397.90	0.681
398.11	0.682
398.31	0.683
398.52	0.678
398.73	0.678
398.93	0.677
399.14	0.676
399.34	0.675
399.55	0.676
399.76	0.675
399.96	0.676
400.17	0.674
400.37	0.672
400.58	0.679
400.79	0.680
400.99	0.677
401.20	0.683
401.41	0.686
401.61	0.687
401.82	0.691
402.02	0.690
402.23	0.692
402.44	0.692
402.64	0.692
402.85	0.686
403.05	0.686
403.26	0.685
403.47	0.678
403.67	0.677
403.88	0.678
404.08	0.672
404.29	0.670
404.50	0.670
404.70	0.670
404.91	0.669
405.11	0.666
405.32	0.666
405.52	0.667
405.73	0.667
405.94	0.665
406.14	0.667
406.35	0.670
406.55	0.669
406.76	0.666
406.97	0.667
407.17	0.670
407.38	0.670
407.58	0.668
407.79	0.671
407.99	0.673
408.20	0.673
408.41	0.669
408.61	0.666
408.82	0.668
409.02	0.668
409.23	0.665
409.43	0.664
409.64	0.666
409.84	0.665
410.05	0.661
410.26	0.660
410.46	0.660
410.67	0.659
410.87	0.660
411.08	0.662
411.28	0.663
411.49	0.665
411.69	0.662
411.90	0.664
412.11	0.666
412.31	0.667
412.52	0.665
412.72	0.666
412.93	0.667
413.13	0.665
413.34	0.661
413.54	0.663
413.75	0.665
413.95	0.664
414.16	0.661
414.37	0.664
414.57	0.664
414.78	0.667
414.98	0.664
415.19	0.666
415.39	0.664
415.60	0.667
415.80	0.666
416.01	0.664
416.21	0.667
416.42	0.666
416.62	0.661
416.83	0.662
417.03	0.662
417.24	0.661
417.44	0.659
417.65	0.658
417.86	0.658
418.06	0.656
418.27	0.654
418.47	0.655
418.68	0.657
418.88	0.657
419.09	0.655
419.29	0.655
419.50	0.656
419.70	0.656
419.91	0.654
420.11	0.652
420.32	0.654
420.52	0.654
420.73	0.653
420.93	0.653
421.14	0.655
421.34	0.654
421.55	0.651
421.75	0.651
421.96	0.653
422.16	0.653
422.37	0.653
422.57	0.650
422.78	0.652
422.98	0.650
423.19	0.647
423.39	0.646
423.60	0.649
423.80	0.651
424.01	0.649
424.21	0.651
424.42	0.653
424.62	0.653
424.83	0.651
425.03	0.651
425.23	0.654
425.44	0.655
425.64	0.654
425.85	0.654
426.05	0.655
426.26	0.656
426.46	0.652
426.67	0.651
426.87	0.656
427.08	0.657
427.28	0.655
427.49	0.656
427.69	0.657
427.90	0.656
428.10	0.652
428.31	0.652
428.51	0.654
428.71	0.653
428.92	0.654
429.12	0.651
429.33	0.652
429.53	0.655
429.74	0.659
429.94	0.660
430.15	0.660
430.35	0.660
430.56	0.657
430.76	0.657
430.96	0.659
431.17	0.656
431.37	0.653
431.58	0.652
431.78	0.649
431.99	0.642
432.19	0.643
432.40	0.645
432.60	0.647
432.80	0.650
433.01	0.647
433.21	0.648
433.42	0.650
433.62	0.651
433.83	0.650
434.03	0.652
434.23	0.655
434.44	0.655
434.64	0.652
434.85	0.656
435.05	0.657
435.26	0.658
435.46	0.656
435.66	0.656
435.87	0.656
436.07	0.656
436.28	0.651
436.48	0.649
436.69	0.649
436.89	0.650
437.09	0.644
437.30	0.643
437.50	0.644
437.71	0.655
437.91	0.654
438.11	0.655
438.32	0.661
438.52	0.661
438.73	0.660
438.93	0.659
439.13	0.659
439.34	0.662
439.54	0.660
439.75	0.660
439.95	0.651
440.15	0.655
440.36	0.653
440.56	0.651
440.77	0.652
440.97	0.652
441.17	0.651
441.38	0.652
441.58	0.650
441.79	0.649
441.99	0.647
442.19	0.647
442.40	0.645
442.60	0.645
442.81	0.642
443.01	0.643
443.21	0.644
443.42	0.644
443.62	0.642
443.82	0.642
444.03	0.644
444.23	0.644
444.44	0.644
444.64	0.644
444.84	0.645
445.05	0.645
445.25	0.643
445.45	0.643
445.66	0.646
445.86	0.645
446.06	0.647
446.27	0.646
446.47	0.650
446.68	0.648
446.88	0.647
447.08	0.646
447.29	0.649
447.49	0.648
447.69	0.647
447.90	0.646
448.10	0.650
448.30	0.647
448.51	0.648
448.71	0.645
448.91	0.648
449.12	0.647
449.32	0.649
449.52	0.647
449.73	0.651
449.93	0.651
450.14	0.650
450.34	0.650
450.54	0.653
450.75	0.650
450.95	0.649
451.15	0.649
451.36	0.652
451.56	0.648
451.76	0.647
451.97	0.644
452.17	0.645
452.37	0.644
452.58	0.640
452.78	0.640
452.98	0.643
453.19	0.642
453.39	0.643
453.59	0.642
453.79	0.644
454.00	0.644
454.20	0.643
454.40	0.644
454.61	0.647
454.81	0.647
455.01	0.645
455.22	0.645
455.42	0.648
455.62	0.645
455.83	0.644
456.03	0.647
456.23	0.649
456.44	0.649
456.64	0.648
456.84	0.648
457.04	0.649
457.25	0.649
457.45	0.646
457.65	0.644
457.86	0.645
458.06	0.644
458.26	0.639
458.47	0.638
458.67	0.641
458.87	0.640
459.07	0.638
459.28	0.639
459.48	0.643
459.68	0.642
459.89	0.641
460.09	0.640
460.29	0.642
460.49	0.643
460.70	0.642
460.90	0.642
461.10	0.643
461.31	0.642
461.51	0.639
461.71	0.640
461.91	0.642
462.12	0.642
462.32	0.641
462.52	0.642
462.72	0.645
462.93	0.645
463.13	0.644
463.33	0.645
463.53	0.647
463.74	0.647
463.94	0.642
464.14	0.643
464.35	0.645
464.55	0.645
464.75	0.643
464.95	0.641
465.16	0.642
465.36	0.642
465.56	0.640
465.76	0.639
465.97	0.640
466.17	0.641
466.37	0.639
466.57	0.640
466.78	0.642
466.98	0.641
467.18	0.639
467.38	0.638
467.59	0.640
467.79	0.642
467.99	0.641
468.19	0.642
468.39	0.645
468.60	0.645
468.80	0.643
469.00	0.644
469.20	0.645
469.41	0.646
469.61	0.645
469.81	0.645
470.01	0.645
470.22	0.645
470.42	0.643
470.62	0.641
470.82	0.643
471.02	0.642
471.23	0.640
471.43	0.640
471.63	0.643
471.83	0.641
472.04	0.640
472.24	0.638
472.44	0.644
472.64	0.644
472.84	0.641
473.05	0.641
473.25	0.644
473.45	0.643
473.65	0.641
473.85	0.642
474.06	0.645
474.26	0.644
474.46	0.645
474.66	0.642
474.86	0.643
475.07	0.643
475.27	0.641
475.47	0.638
475.67	0.639
475.87	0.642
476.08	0.637
476.28	0.638
476.48	0.640
476.68	0.638
476.88	0.636
477.09	0.637
477.29	0.640
477.49	0.640
477.69	0.640
477.89	0.639
478.09	0.638
478.30	0.641
478.50	0.638
478.70	0.637
478.90	0.637
479.10	0.640
479.31	0.640
479.51	0.638
479.71	0.639
479.91	0.639
480.11	0.638
480.31	0.639
480.52	0.638
480.72	0.638
480.92	0.637
481.12	0.636
481.32	0.634
481.52	0.632
481.72	0.632
481.93	0.635
482.13	0.636
482.33	0.636
482.53	0.633
482.73	0.634
482.93	0.635
483.14	0.634
483.34	0.633
483.54	0.634
483.74	0.634
483.94	0.633
484.14	0.629
484.34	0.629
484.55	0.630
484.75	0.630
484.95	0.628
485.15	0.628
485.35	0.629
485.55	0.629
485.75	0.626
485.96	0.627
486.16	0.629
486.36	0.628
486.56	0.627
486.76	0.627
486.96	0.627
487.16	0.627
487.36	0.625
487.57	0.625
487.77	0.625
487.97	0.627
488.17	0.624
488.37	0.623
488.57	0.624
488.77	0.624
488.97	0.622
489.18	0.622
489.38	0.624
489.58	0.625
489.78	0.624
489.98	0.624
490.18	0.624
490.38	0.625
490.58	0.623
490.78	0.624
490.98	0.626
491.19	0.627
491.39	0.626
491.59	0.625
491.79	0.628
491.99	0.629
492.19	0.628
492.39	0.632
492.59	0.632
492.79	0.634
492.99	0.634
493.20	0.634
493.40	0.634
493.60	0.635
493.80	0.633
494.00	0.631
494.20	0.632
494.40	0.631
494.60	0.628
494.80	0.633
495.00	0.632
495.20	0.630
495.40	0.628
495.61	0.630
495.81	0.631
496.01	0.634
496.21	0.635
496.41	0.634
496.61	0.635
496.81	0.634
497.01	0.628
497.21	0.628
497.41	0.629
497.61	0.629
497.81	0.626
498.01	0.626
498.21	0.625
498.41	0.622
498.61	0.622
498.82	0.624
499.02	0.626
499.22	0.627
499.42	0.626
499.62	0.628
499.82	0.628
500.02	0.630
500.22	0.628
500.42	0.630
500.62	0.631
500.82	0.631
501.02	0.629
501.22	0.630
501.42	0.630
501.62	0.632
501.82	0.631
502.02	0.632
502.22	0.632
502.42	0.633
502.62	0.630
502.82	0.631
503.02	0.631
503.22	0.631
503.42	0.629
503.63	0.628
503.83	0.626
504.03	0.625
504.23	0.624
504.43	0.624
504.63	0.626
504.83	0.626
505.03	0.625
505.23	0.626
505.43	0.629
505.63	0.629
505.83	0.629
506.03	0.630
506.23	0.633
506.43	0.633
506.63	0.633
506.83	0.631
507.03	0.633
507.23	0.633
507.43	0.630
507.63	0.631
507.83	0.631
508.03	0.632
508.23	0.631
508.43	0.629
508.63	0.631
508.83	0.631
509.03	0.632
509.23	0.631
509.43	0.632
509.63	0.633
509.83	0.631
510.03	0.634
510.23	0.636
510.43	0.636
510.63	0.637
510.83	0.637
511.03	0.639
511.23	0.636
511.43	0.636
511.63	0.637
511.83	0.640
512.03	0.639
512.22	0.636
512.42	0.635
512.62	0.637
512.82	0.636
513.02	0.635
513.22	0.634
513.42	0.636
513.62	0.639
513.82	0.637
514.02	0.636
514.22	0.638
514.42	0.639
514.62	0.638
514.82	0.638
515.02	0.640
515.22	0.644
515.42	0.643
515.62	0.645
515.82	0.644
516.02	0.645
516.22	0.645
516.42	0.646
516.62	0.649
516.82	0.650
517.01	0.648
517.21	0.647
517.41	0.651
517.61	0.651
517.81	0.647
518.01	0.646
518.21	0.647
518.41	0.646
518.61	0.644
518.81	0.645
519.01	0.646
519.21	0.646
519.41	0.644
519.61	0.639
519.81	0.641
520.00	0.642
520.20	0.642
520.40	0.644
520.60	0.645
520.80	0.645
521.00	0.645
521.20	0.645
521.40	0.650
521.60	0.651
521.80	0.650
522.00	0.651
522.20	0.653
522.39	0.652
522.59	0.648
522.79	0.650
522.99	0.653
523.19	0.651
523.39	0.649
523.59	0.647
523.79	0.651
523.99	0.653
524.19	0.651
524.38	0.651
524.58	0.654
524.78	0.655
524.98	0.653
525.18	0.655
525.38	0.656
525.58	0.657
525.78	0.654
525.98	0.652
526.18	0.653
526.37	0.652
526.57	0.654
526.77	0.653
526.97	0.654
527.17	0.654
527.37	0.649
527.57	0.651
527.77	0.654
527.96	0.654
528.16	0.653
528.36	0.653
528.56	0.656
528.76	0.653
528.96	0.651
529.16	0.653
529.36	0.657
529.55	0.657
529.75	0.653
529.95	0.653
530.15	0.655
530.35	0.657
530.55	0.655
530.75	0.655
530.94	0.658
531.14	0.657
531.34	0.655
531.54	0.653
531.74	0.657
531.94	0.660
532.13	0.658
532.33	0.659
532.53	0.658
532.73	0.658
532.93	0.656
533.13	0.657
533.33	0.658
533.52	0.658
533.72	0.660
533.92	0.658
534.12	0.657
534.32	0.657
534.52	0.655
534.71	0.657
534.91	0.660
535.11	0.662
535.31	0.660
535.51	0.662
535.71	0.664
535.90	0.661
536.10	0.662
536.30	0.664
536.50	0.665
536.70	0.666
536.89	0.663
537.09	0.662
537.29	0.664
537.49	0.664
537.69	0.662
537.89	0.663
538.08	0.662
538.28	0.660
538.48	0.660
538.68	0.662
538.88	0.664
539.07	0.664
539.27	0.662
539.47	0.661
539.67	0.662
539.87	0.663
540.06	0.660
540.26	0.661
540.46	0.664
540.66	0.662
540.86	0.659
541.05	0.658
541.25	0.661
541.45	0.660
541.65	0.658
541.84	0.660
542.04	0.661
542.24	0.662
542.44	0.661
542.64	0.661
542.83	0.664
543.03	0.665
543.23	0.662
543.43	0.663
543.62	0.665
543.82	0.666
544.02	0.664
544.22	0.664
544.42	0.668
544.61	0.669
544.81	0.666
545.01	0.665
545.21	0.667
545.40	0.668
545.60	0.665
545.80	0.669
546.00	0.669
546.19	0.668
546.39	0.667
546.59	0.664
546.79	0.666
546.98	0.666
547.18	0.665
547.38	0.666
547.58	0.669
547.77	0.669
547.97	0.665
548.17	0.667
548.37	0.668
548.56	0.668
548.76	0.667
548.96	0.669
549.16	0.672
549.35	0.672
549.55	0.669
549.75	0.669
549.95	0.674
550.14	0.674
550.34	0.672
550.54	0.678
550.73	0.682
550.93	0.682
551.13	0.679
551.33	0.677
551.52	0.678
551.72	0.678
551.92	0.676
552.12	0.676
552.31	0.677
552.51	0.677
552.71	0.671
552.90	0.671
553.10	0.672
553.30	0.672
553.50	0.671
553.69	0.673
553.89	0.674
554.09	0.674
554.28	0.671
554.48	0.672
554.68	0.675
554.87	0.676
555.07	0.672
555.27	0.672
555.47	0.674
555.66	0.675
555.86	0.673
556.06	0.675
556.25	0.677
556.45	0.685
556.65	0.683
556.84	0.686
557.04	0.689
557.24	0.690
557.43	0.690
557.63	0.692
557.83	0.695
558.02	0.695
558.22	0.698
558.42	0.697
558.61	0.690
558.81	0.691
559.01	0.687
559.21	0.687
559.40	0.689
559.60	0.689
559.80	0.684
559.99	0.685
560.19	0.687
560.39	0.681
560.58	0.678
560.78	0.679
560.97	0.683
561.17	0.681
561.37	0.678
561.56	0.679
561.76	0.681
561.96	0.680
562.15	0.678
562.35	0.681
562.55	0.683
562.74	0.684
562.94	0.682
563.14	0.679
563.33	0.681
563.53	0.681
563.73	0.678
563.92	0.679
564.12	0.683
564.31	0.685
564.51	0.683
564.71	0.684
564.90	0.688
565.10	0.688
565.30	0.691
565.49	0.691
565.69	0.694
565.89	0.695
566.08	0.691
566.28	0.692
566.47	0.694
566.67	0.692
566.87	0.689
567.06	0.690
567.26	0.697
567.46	0.692
567.65	0.692
567.85	0.693
568.04	0.696
568.24	0.695
568.44	0.691
568.63	0.690
568.83	0.692
569.02	0.690
569.22	0.685
569.42	0.681
569.61	0.684
569.81	0.682
570.00	0.679
570.20	0.681
570.40	0.682
570.59	0.683
570.79	0.680
570.98	0.678
571.18	0.679
571.38	0.679
571.57	0.675
571.77	0.673
571.96	0.677
572.16	0.675
572.35	0.669
572.55	0.670
572.75	0.669
572.94	0.669
573.14	0.667
573.33	0.668
573.53	0.669
573.73	0.669
573.92	0.666
574.12	0.665
574.31	0.668
574.51	0.668
574.70	0.665
574.90	0.666
575.09	0.669
575.29	0.669
575.49	0.666
575.68	0.666
575.88	0.669
576.07	0.671
576.27	0.668
576.46	0.667
576.66	0.667
576.86	0.666
577.05	0.663
577.25	0.661
577.44	0.663
577.64	0.663
577.83	0.661
578.03	0.662
578.22	0.661
578.42	0.660
578.61	0.658
578.81	0.659
579.00	0.660
579.20	0.660
579.40	0.659
579.59	0.657
579.79	0.658
579.98	0.658
580.18	0.657
580.37	0.658
580.57	0.661
580.76	0.666
580.96	0.663
581.15	0.664
581.35	0.667
581.54	0.666
581.74	0.665
581.93	0.666
582.13	0.667
582.32	0.665
582.52	0.663
582.71	0.662
582.91	0.658
583.10	0.658
583.30	0.656
583.49	0.656
583.69	0.660
583.88	0.662
584.08	0.661
584.27	0.663
584.47	0.666
584.66	0.666
584.86	0.664
585.05	0.667
585.25	0.669
585.44	0.669
585.64	0.667
585.83	0.664
586.03	0.665
586.22	0.664
586.42	0.660
586.61	0.662
586.81	0.665
587.00	0.665
587.20	0.662
587.39	0.663
587.59	0.666
587.78	0.667
587.98	0.667
588.17	0.668
588.37	0.671
588.56	0.673
588.76	0.668
588.95	0.668
589.15	0.672
589.34	0.674
589.54	0.672
589.73	0.672
589.92	0.676
590.12	0.676
590.31	0.673
590.51	0.677
590.70	0.679
590.90	0.679
591.09	0.677
591.29	0.676
591.48	0.676
591.68	0.677
591.87	0.675
592.06	0.674
592.26	0.677
592.45	0.676
592.65	0.669
592.84	0.668
593.04	0.672
593.23	0.674
593.43	0.671
593.62	0.671
593.81	0.672
594.01	0.672
594.20	0.670
594.40	0.669
594.59	0.672
594.79	0.674
594.98	0.672
595.17	0.671
595.37	0.672
595.56	0.674
595.76	0.672
595.95	0.673
596.14	0.676
596.34	0.677
596.53	0.675
596.73	0.676
596.92	0.677
597.12	0.680
597.31	0.679
597.50	0.678
597.70	0.680
597.89	0.680
598.09	0.677
598.28	0.678
598.47	0.681
598.67	0.679
598.86	0.675
599.06	0.677
599.25	0.678
599.44	0.676
599.64	0.674
599.83	0.672
600.03	0.675
600.22	0.676
600.41	0.675
600.61	0.673
600.80	0.676
601.00	0.677
601.19	0.673
601.38	0.671
601.58	0.674
601.77	0.675
601.96	0.677
602.16	0.677
602.35	0.686
602.55	0.683
602.74	0.683
602.93	0.685
603.13	0.691
603.32	0.692
603.51	0.690
603.71	0.693
603.90	0.695
604.09	0.695
604.29	0.692
604.48	0.686
604.68	0.688
604.87	0.687
605.06	0.682
605.26	0.679
605.45	0.680
605.64	0.680
605.84	0.675
606.03	0.674
606.22	0.674
606.42	0.673
606.61	0.669
606.80	0.670
607.00	0.671
607.19	0.672
607.38	0.670
607.58	0.672
607.77	0.675
607.96	0.675
608.16	0.673
608.35	0.678
608.54	0.682
608.74	0.685
608.93	0.690
609.12	0.693
609.32	0.696
609.51	0.699
609.70	0.698
609.90	0.699
610.09	0.704
610.28	0.709
610.48	0.701
610.67	0.703
610.86	0.704
611.06	0.698
611.25	0.695
611.44	0.695
611.64	0.696
611.83	0.698
612.02	0.694
612.21	0.693
612.41	0.693
612.60	0.692
612.79	0.687
612.99	0.688
613.18	0.690
613.37	0.688
613.57	0.685
613.76	0.688
613.95	0.686
614.14	0.686
614.34	0.683
614.53	0.684
614.72	0.688
614.92	0.688
615.11	0.685
615.30	0.682
615.49	0.684
615.69	0.687
615.88	0.684
616.07	0.685
616.26	0.688
616.46	0.689
616.65	0.685
616.84	0.684
617.04	0.686
617.23	0.690
617.42	0.689
617.61	0.693
617.81	0.694
618.00	0.695
618.19	0.693
618.38	0.697
618.58	0.701
618.77	0.703
618.96	0.701
619.15	0.703
619.35	0.705
619.54	0.706
619.73	0.700
619.92	0.703
620.12	0.707
620.31	0.707
620.50	0.701
620.69	0.702
620.89	0.705
621.08	0.705
621.27	0.704
621.46	0.703
621.66	0.708
621.85	0.708
622.04	0.703
622.23	0.704
622.43	0.705
622.62	0.705
622.81	0.704
623.00	0.703
623.19	0.708
623.39	0.707
623.58	0.703
623.77	0.702
623.96	0.706
624.16	0.706
624.35	0.700
624.54	0.703
624.73	0.708
624.92	0.705
625.12	0.703
625.31	0.703
625.50	0.707
625.69	0.708
625.88	0.704
626.08	0.704
626.27	0.706
626.46	0.707
626.65	0.703
626.84	0.704
627.04	0.710
627.23	0.710
627.42	0.704
627.61	0.706
627.80	0.709
628.00	0.710
628.19	0.708
628.38	0.712
628.57	0.715
628.76	0.714
628.96	0.710
629.15	0.711
629.34	0.714
629.53	0.715
629.72	0.709
629.91	0.709
630.11	0.717
630.30	0.717
630.49	0.719
630.68	0.720
630.87	0.724
631.06	0.726
631.26	0.719
631.45	0.721
631.64	0.731
631.83	0.733
632.02	0.730
632.21	0.727
632.41	0.735
632.60	0.729
632.79	0.727
632.98	0.727
633.17	0.729
633.36	0.730
633.55	0.726
633.75	0.722
633.94	0.724
634.13	0.725
634.32	0.721
634.51	0.715
634.70	0.718
634.89	0.717
635.09	0.714
635.28	0.714
635.47	0.716
635.66	0.719
635.85	0.713
636.04	0.715
636.23	0.720
636.43	0.721
636.62	0.719
636.81	0.718
637.00	0.722
637.19	0.725
637.38	0.721
637.57	0.721
637.76	0.724
637.95	0.724
638.15	0.720
638.34	0.718
638.53	0.723
638.72	0.726
638.91	0.722
639.10	0.719
639.29	0.721
639.48	0.722
639.67	0.721
639.87	0.719
640.06	0.726
640.25	0.726
640.44	0.724
640.63	0.723
640.82	0.726
641.01	0.726
641.20	0.725
641.39	0.726
641.58	0.730
641.78	0.728
641.97	0.724
642.16	0.738
642.35	0.739
642.54	0.739
642.73	0.733
642.92	0.732
643.11	0.737
643.30	0.737
643.49	0.730
643.68	0.732
643.87	0.735
644.06	0.736
644.25	0.714
644.45	0.718
644.64	0.720
644.83	0.721
645.02	0.716
645.21	0.715
645.40	0.718
645.59	0.718
645.78	0.711
645.97	0.713
646.16	0.713
646.35	0.713
646.54	0.710
646.73	0.710
646.92	0.712
647.11	0.712
647.30	0.706
647.49	0.708
647.68	0.709
647.88	0.708
648.07	0.700
648.26	0.704
648.45	0.706
648.64	0.702
648.83	0.699
649.02	0.702
649.21	0.713
649.40	0.712
649.59	0.706
649.78	0.706
649.97	0.722
650.16	0.721
650.35	0.716
650.54	0.718
650.73	0.727
650.92	0.724
651.11	0.717
651.30	0.714
651.49	0.720
651.68	0.721
651.87	0.717
652.06	0.707
652.25	0.711
652.44	0.713
652.63	0.706
652.82	0.705
653.01	0.704
653.20	0.701
653.39	0.688
653.58	0.685
653.77	0.684
653.96	0.679
654.15	0.670
654.34	0.668
654.53	0.664
654.72	0.660
654.91	0.651
655.10	0.647
655.29	0.645
655.48	0.644
655.67	0.639
655.86	0.636
656.05	0.635
656.24	0.635
656.43	0.630
656.62	0.629
656.81	0.631
657.00	0.630
657.19	0.628
657.38	0.629
657.57	0.629
657.76	0.633
657.95	0.631
658.14	0.636
658.33	0.640
658.51	0.645
658.70	0.646
658.89	0.646
659.08	0.654
659.27	0.661
659.46	0.660
659.65	0.667
659.84	0.670
660.03	0.673
660.22	0.673
660.41	0.677
660.60	0.676
660.79	0.678
660.98	0.684
661.17	0.683
661.36	0.682
661.55	0.683
661.74	0.679
661.92	0.682
662.11	0.684
662.30	0.682
662.49	0.675
662.68	0.674
662.87	0.679
663.06	0.673
663.25	0.673
663.44	0.674
663.63	0.676
663.82	0.674
664.01	0.669
664.20	0.667
664.38	0.670
664.57	0.670
664.76	0.671
664.95	0.671
665.14	0.677
665.33	0.672
665.52	0.678
665.71	0.682
665.90	0.682
666.09	0.684
666.28	0.681
666.46	0.680
666.65	0.681
666.84	0.679
667.03	0.672
667.22	0.669
667.41	0.673
667.60	0.663
667.79	0.656
667.98	0.657
668.16	0.658
668.35	0.657
668.54	0.652
668.73	0.653
668.92	0.654
669.11	0.654
669.30	0.648
669.49	0.644
669.67	0.645
669.86	0.647
670.05	0.644
670.24	0.642
670.43	0.640
670.62	0.640
670.81	0.634
671.00	0.635
671.18	0.636
671.37	0.635
671.56	0.633
671.75	0.632
671.94	0.630
672.13	0.628
672.32	0.623
672.50	0.622
672.69	0.622
672.88	0.622
673.07	0.617
673.26	0.619
673.45	0.620
673.63	0.619
673.82	0.614
674.01	0.616
674.20	0.616
674.39	0.615
674.58	0.614
674.76	0.613
674.95	0.612
675.14	0.612
675.33	0.608
675.52	0.606
675.71	0.607
675.89	0.606
676.08	0.601
676.27	0.601
676.46	0.602
676.65	0.602
676.84	0.601
677.02	0.603
677.21	0.605
677.40	0.604
677.59	0.602
677.78	0.603
677.96	0.606
678.15	0.606
678.34	0.603
678.53	0.605
678.72	0.605
678.90	0.602
679.09	0.597
679.28	0.594
679.47	0.594
679.66	0.594
679.84	0.590
680.03	0.588
680.22	0.587
680.41	0.589
680.60	0.584
680.78	0.584
680.97	0.587
681.16	0.587
681.35	0.586
681.53	0.585
681.72	0.586
681.91	0.588
682.10	0.586
682.29	0.589
682.47	0.587
682.66	0.586
682.85	0.584
683.04	0.582
683.22	0.582
683.41	0.584
683.60	0.582
683.79	0.583
683.97	0.583
684.16	0.581
684.35	0.577
684.54	0.579
684.72	0.579
684.91	0.580
685.10	0.578
685.29	0.579
685.47	0.577
685.66	0.576
685.85	0.572
686.04	0.571
686.22	0.575
686.41	0.578
686.60	0.574
686.79	0.577
686.97	0.579
687.16	0.581
687.35	0.577
687.54	0.580
687.72	0.585
687.91	0.584
688.10	0.586
688.29	0.585
688.47	0.583
688.66	0.583
688.85	0.578
689.03	0.576
689.22	0.581
689.41	0.581
689.60	0.576
689.78	0.573
689.97	0.575
690.16	0.572
690.34	0.568
690.53	0.567
690.72	0.568
690.91	0.566
691.09	0.563
691.28	0.557
691.47	0.556
691.65	0.555
691.84	0.552
692.03	0.551
692.21	0.549
692.40	0.550
692.59	0.547
692.77	0.546
692.96	0.548
693.15	0.548
693.34	0.545
693.52	0.546
693.71	0.547
693.90	0.548
694.08	0.549
694.27	0.550
694.46	0.560
694.64	0.561
694.83	0.560
695.02	0.558
695.20	0.558
695.39	0.558
695.58	0.557
695.76	0.557
695.95	0.557
696.14	0.556
696.32	0.553
696.51	0.543
696.70	0.544
696.88	0.544
697.07	0.543
697.26	0.545
697.44	0.547
697.63	0.546
697.81	0.543
698.00	0.542
698.19	0.542
698.37	0.543
698.56	0.542
698.75	0.542
698.93	0.542
699.12	0.541
699.31	0.540
699.49	0.539
699.68	0.541
699.87	0.544
700.05	0.543
700.24	0.542
700.42	0.544
700.61	0.543
700.80	0.540
700.98	0.539
701.17	0.542
701.36	0.540
701.54	0.538
701.73	0.540
701.91	0.537
702.10	0.537
702.29	0.534
702.47	0.533
702.66	0.535
702.84	0.537
703.03	0.535
703.22	0.537
703.40	0.537
703.59	0.539
703.77	0.538
703.96	0.538
704.15	0.540
704.33	0.540
704.52	0.539
704.70	0.538
704.89	0.539
705.08	0.537
705.26	0.532
705.45	0.532
705.63	0.532
705.82	0.529
706.00	0.527
706.19	0.526
706.38	0.526
706.56	0.525
706.75	0.523
706.93	0.522
707.12	0.524
707.30	0.524
707.49	0.521
707.68	0.519
707.86	0.518
708.05	0.518
708.23	0.516
708.42	0.516
708.60	0.519
708.79	0.519
708.98	0.518
709.16	0.518
709.35	0.520
709.53	0.525
709.72	0.524
709.90	0.526
710.09	0.528
710.27	0.530
710.46	0.533
710.64	0.531
710.83	0.533
711.02	0.535
711.20	0.532
711.39	0.530
711.57	0.528
711.76	0.529
711.94	0.526
712.13	0.526
712.31	0.526
712.50	0.521
712.68	0.518
712.87	0.519
713.05	0.519
713.24	0.519
713.42	0.519
713.61	0.519
713.79	0.520
713.98	0.521
714.16	0.521
714.35	0.521
714.54	0.523
714.72	0.523
714.91	0.520
715.09	0.526
715.28	0.530
715.46	0.529
715.65	0.527
715.83	0.527
716.02	0.531
716.20	0.527
716.39	0.526
716.57	0.527
716.76	0.530
716.94	0.530
717.12	0.521
717.31	0.523
717.49	0.526
717.68	0.529
717.86	0.528
718.05	0.529
718.23	0.532
718.42	0.534
718.60	0.535
718.79	0.543
718.97	0.547
719.16	0.548
719.34	0.545
719.53	0.544
719.71	0.544
719.90	0.546
720.08	0.543
720.27	0.543
720.45	0.544
720.63	0.543
720.82	0.536
721.00	0.538
721.19	0.541
721.37	0.541
721.56	0.540
721.74	0.543
721.93	0.552
722.11	0.558
722.30	0.557
722.48	0.562
722.66	0.564
722.85	0.563
723.03	0.562
723.22	0.560
723.40	0.565
723.59	0.564
723.77	0.567
723.95	0.561
724.14	0.564
724.32	0.566
724.51	0.564
724.69	0.564
724.88	0.565
725.06	0.564
725.24	0.564
725.43	0.565
725.61	0.569
725.80	0.563
725.98	0.560
726.16	0.556
726.35	0.562
726.53	0.562
726.72	0.560
726.90	0.571
727.09	0.573
727.27	0.579
727.45	0.574
727.64	0.584
727.82	0.593
728.01	0.598
728.19	0.594
728.37	0.600
728.56	0.605
728.74	0.611
728.92	0.597
729.11	0.600
729.29	0.600
729.48	0.603
729.66	0.591
729.84	0.589
730.03	0.594
730.21	0.596
730.40	0.585
730.58	0.587
730.76	0.587
730.95	0.591
731.13	0.589
731.31	0.603
731.50	0.612
731.68	0.616
731.86	0.613
732.05	0.628
732.23	0.632
732.42	0.636
732.60	0.638
732.78	0.645
732.97	0.664
733.15	0.672
733.33	0.660
733.52	0.669
733.70	0.682
733.88	0.690
734.07	0.672
734.25	0.700
734.43	0.711
734.62	0.714
734.80	0.708
734.98	0.698
735.17	0.706
735.35	0.712
735.53	0.697
735.72	0.699
735.90	0.724
736.08	0.745
736.27	0.718
736.45	0.728
736.63	0.743
736.82	0.751
737.00	0.752
737.18	0.763
737.37	0.798
737.55	0.824
737.73	0.818
737.92	0.823
738.10	0.822
738.28	0.843
738.46	0.825
738.65	0.840
738.83	0.868
739.01	0.927
739.20	0.912
739.38	0.893
739.56	0.886
739.75	0.890
739.93	0.847
740.11	0.875
740.29	0.881
740.48	0.891
740.66	0.863
740.84	0.861
741.03	0.826
741.21	0.841
741.39	0.818
741.57	0.836
741.76	0.860
741.94	0.866
742.12	0.824
742.31	0.829
742.49	0.854
742.67	0.880
742.85	0.889
743.04	0.893
743.22	0.907
743.40	0.963
743.58	0.935
743.77	0.952
743.95	1.001
744.13	1.062
744.31	1.038
744.50	1.029
744.68	1.040
744.86	1.011
745.04	1.023
745.23	1.100
745.41	1.096
745.59	1.097
745.77	1.055
745.96	1.037
746.14	1.054
746.32	1.050
746.50	1.032
746.69	1.006
746.87	1.022
747.05	0.997
747.23	0.908
747.42	0.894
747.60	0.933
747.78	0.932
747.96	0.965
748.14	0.912
748.33	0.955
748.51	0.949
748.69	0.938
748.87	0.976
749.06	0.982
749.24	0.983
749.42	0.953
749.60	0.933
749.78	0.948
749.97	0.894
750.15	0.881
750.33	0.880
750.51	0.913
750.69	0.919
750.88	0.916
751.06	0.930
751.24	0.974
751.42	0.969
751.60	0.950
751.79	1.034
751.97	1.102
752.15	1.104
752.33	1.055
752.51	1.133
752.69	1.161
752.88	1.117
753.06	1.158
753.24	1.114
753.42	1.166
753.60	1.399
753.78	1.189
753.97	1.203
754.15	1.245
754.33	1.280
754.51	1.117
754.69	1.102
754.87	1.149
755.06	1.064
755.24	1.065
755.42	1.071
755.60	0.960
755.78	0.969
755.96	0.900
756.15	0.898
756.33	0.911
756.51	0.930
756.69	0.907
756.87	0.865
757.05	0.889
757.23	0.866
757.42	0.828
757.60	0.825
757.78	0.817
757.96	0.817
758.14	0.796
758.32	0.777
758.50	0.795
758.69	0.794
758.87	0.783
759.05	0.786
759.23	0.799
759.41	0.800
759.59	0.789
759.77	0.815
759.95	0.848
760.13	0.904
760.32	0.903
760.50	0.897
760.68	0.929
760.86	0.933
761.04	0.901
761.22	0.907
761.40	0.967
761.58	0.970
761.76	0.930
761.95	0.907
762.13	0.856
762.31	0.855
762.49	0.815
762.67	0.831
762.85	0.849
763.03	0.842
763.21	0.819
763.39	0.798
763.57	0.806
763.75	0.801
763.94	0.785
764.12	0.787
764.30	0.817
764.48	0.822
764.66	0.781
764.84	0.778
765.02	0.823
765.20	0.831
765.38	0.806
765.56	0.810
765.74	0.855
765.92	0.857
766.10	0.863
766.28	0.853
766.46	0.890
766.65	0.891
766.83	0.873
767.01	0.854
767.19	0.864
767.37	0.866
767.55	0.848
767.73	0.827
767.91	0.834
768.09	0.822
768.27	0.806
768.45	0.793
768.63	0.798
768.81	0.802
768.99	0.771
769.17	0.798
769.35	0.814
769.53	0.811
769.71	0.788
769.89	0.798
770.07	0.806
770.25	0.788
770.43	0.763
770.61	0.789
770.79	0.800
770.97	0.811
771.15	0.773
771.33	0.778
771.51	0.783
771.69	0.795
771.87	0.800
772.05	0.806
772.24	0.820
772.42	0.830
772.60	0.805
772.78	0.869
772.96	0.900
773.14	0.895
773.32	0.867
773.49	0.879
773.67	0.876
773.85	0.853
774.03	0.837
774.21	0.873
774.39	0.887
774.57	0.915
774.75	0.832
774.93	0.831
775.11	0.864
775.29	0.871
775.47	0.871
775.65	0.885
775.83	0.911
776.01	0.935
776.19	0.874
776.37	0.874
776.55	0.875
776.73	0.872
776.91	0.861
777.09	0.842
777.27	0.844
777.45	0.830
777.63	0.803
777.81	0.799
777.99	0.788
778.17	0.787
778.35	0.762
778.53	0.748
778.71	0.759
778.89	0.747
779.07	0.732
779.24	0.735
779.42	0.738
779.60	0.758
779.78	0.750
779.96	0.759
780.14	0.775
780.32	0.797
780.50	0.777
780.68	0.773
780.86	0.765
781.04	0.784
781.22	0.789
781.40	0.802
781.58	0.793
781.75	0.784
781.93	0.761
782.11	0.760
782.29	0.747
782.47	0.746
782.65	0.734
782.83	0.767
783.01	0.760
783.19	0.751
783.37	0.734
783.55	0.738
783.72	0.760
783.90	0.773
784.08	0.760
784.26	0.775
784.44	0.799
784.62	0.799
784.80	0.758
784.98	0.765
785.16	0.774
785.33	0.790
785.51	0.768
785.69	0.755
785.87	0.758
786.05	0.769
786.23	0.758
786.41	0.755
786.59	0.764
786.77	0.764
786.94	0.746
787.12	0.749
787.30	0.753
787.48	0.753
787.66	0.735
787.84	0.734
788.02	0.727
788.19	0.725
788.37	0.708
788.55	0.710
788.73	0.711
788.91	0.706
789.09	0.686
789.27	0.673
789.44	0.684
789.62	0.692
789.80	0.698
789.98	0.726
790.16	0.714
790.34	0.712
790.51	0.696
790.69	0.718
790.87	0.728
791.05	0.724
791.23	0.715
791.41	0.719
791.58	0.729
791.76	0.707
791.94	0.672
792.12	0.682
792.30	0.686
792.48	0.683
792.65	0.676
792.83	0.683
793.01	0.692
793.19	0.691
793.37	0.673
793.54	0.669
793.72	0.683
793.90	0.682
794.08	0.669
794.26	0.670
794.43	0.682
794.61	0.665
794.79	0.651
794.97	0.652
795.15	0.661
795.32	0.665
795.50	0.653
795.68	0.648
795.86	0.653
796.04	0.657
796.21	0.648
796.39	0.646
796.57	0.663
796.75	0.670
796.92	0.669
797.10	0.674
797.28	0.680
797.46	0.682
797.64	0.682
797.81	0.690
797.99	0.693
798.17	0.699
798.35	0.691
798.52	0.694
798.70	0.693
798.88	0.701
799.06	0.696
799.23	0.698
799.41	0.709
799.59	0.702
799.77	0.687
799.94	0.698
800.12	0.709
800.30	0.727
800.48	0.724
800.65	0.724
800.83	0.714
801.01	0.705
801.19	0.702
801.36	0.700
801.54	0.703
801.72	0.715
801.90	0.698
802.07	0.695
802.25	0.682
802.43	0.664
802.60	0.658
802.78	0.667
802.96	0.675
803.14	0.668
803.31	0.661
803.49	0.661
803.67	0.657
803.84	0.661
804.02	0.649
804.20	0.652
804.38	0.659
804.55	0.656
804.73	0.639
804.91	0.640
805.08	0.653
805.26	0.648
805.44	0.707
805.61	0.711
805.79	0.712
805.97	0.713
806.15	0.702
806.32	0.698
806.50	0.707
806.68	0.708
806.85	0.698
807.03	0.691
807.21	0.712
807.38	0.647
807.56	0.635
807.74	0.646
807.91	0.654
808.09	0.654
808.27	0.672
808.44	0.702
808.62	0.715
808.80	0.714
808.97	0.707
809.15	0.702
809.33	0.724
809.50	0.732
809.68	0.714
809.86	0.723
810.03	0.764
810.21	0.741
810.39	0.719
810.56	0.723
810.74	0.751
810.91	0.831
811.09	0.816
811.27	0.841
811.44	0.851
811.62	0.851
811.80	0.828
811.97	0.792
812.15	0.796
812.33	0.787
812.50	0.769
812.68	0.758
812.85	0.700
813.03	0.701
813.21	0.664
813.38	0.656
813.56	0.662
813.74	0.674
813.91	0.680
814.09	0.712
814.26	0.709
814.44	0.713
814.62	0.698
814.79	0.703
814.97	0.711
815.14	0.717
815.32	0.721
815.50	0.740
815.67	0.744
815.85	0.736
816.02	0.723
816.20	0.729
816.38	0.746
816.55	0.755
816.73	0.750
816.90	0.761
817.08	0.796
817.26	0.802
817.43	0.776
817.61	0.804
817.78	0.828
817.96	0.805
818.13	0.792
818.31	0.797
818.49	0.813
818.66	0.803
818.84	0.785
819.01	0.766
819.19	0.777
819.36	0.780
819.54	0.746
819.71	0.791
819.89	0.812
820.07	0.824
820.24	0.810
820.42	0.813
820.59	0.838
820.77	0.864
820.94	0.848
821.12	0.868
821.29	0.889
821.47	0.890
821.64	0.814
821.82	0.827
822.00	0.830
822.17	0.826
822.35	0.813
822.52	0.817
822.70	0.806
822.87	0.815
823.05	0.787
823.22	0.800
823.40	0.831
823.57	0.860
823.75	0.833
823.92	0.861
824.10	0.893
824.27	0.947
824.45	0.927
824.62	1.011
824.80	1.037
824.97	1.060
825.15	1.040
825.32	1.063
825.50	1.072
825.67	1.088
825.85	1.055
826.02	1.082
826.20	1.118
826.37	1.322
826.55	1.180
826.72	1.539
826.90	1.773
827.07	1.995
827.25	1.764
827.42	-0.000
827.60	-0.000
827.77	-0.000
827.95	-0.000
828.12	-0.000
828.30	-0.000
828.47	-0.000
828.65	1.895
828.82	2.282
829.00	-0.000
829.17	-0.000
829.34	-0.000
829.52	-0.000
829.69	-0.000
829.87	-0.000
830.04	-0.000
830.22	-0.000
830.39	-0.000
830.57	-0.000
830.74	-0.000
830.92	-0.000
831.09	-0.000
831.26	-0.000
831.44	-0.000
831.61	-0.000
831.79	-0.000
831.96	-0.000
832.14	-0.000
832.31	-0.000
832.49	-0.000
832.66	-0.000
832.83	-0.000
833.01	-0.000
833.18	-0.000
833.36	-0.000
833.53	-0.000
833.70	-0.000
833.88	-0.000
834.05	-0.000
834.23	-0.000
834.40	-0.000
834.58	-0.000
834.75	-0.000
834.92	-0.000
835.10	-0.000
835.27	-0.000
835.45	-0.000
835.62	-0.000
835.79	-0.000
835.97	-0.000
836.14	-0.000
836.32	-0.000
836.49	-0.000
836.66	-0.000
836.84	-0.000
837.01	-0.000
837.18	-0.000
837.36	-0.000
837.53	-0.000
837.71	-0.000
837.88	-0.000
838.05	-0.000
838.23	-0.000
838.40	-0.000
838.58	-0.000
838.75	-0.000
838.92	-0.000
839.10	-0.000
839.27	-0.000
839.44	-0.000
839.62	-0.000
839.79	-0.000
839.96	-0.000
840.14	-0.000
840.31	-0.000
840.48	-0.000
840.66	-0.000
840.83	-0.000
841.01	-0.000
841.18	-0.000
841.35	-0.000
841.53	-0.000
841.70	-0.000
841.87	-0.000
842.05	-0.000
842.22	-0.000
842.39	-0.000
842.57	-0.000
842.74	-0.000
842.91	-0.000
843.09	-0.000
843.26	-0.000
843.43	-0.000
843.60	-0.000
843.78	-0.000
843.95	-0.000
844.12	-0.000
844.30	-0.000
844.47	-0.000
844.64	-0.000
844.82	-0.000
844.99	-0.000
845.16	-0.000
845.34	-0.000
845.51	-0.000
845.68	-0.000
845.85	-0.000
846.03	-0.000
846.20	-0.000
846.37	-0.000
846.55	-0.000
846.72	-0.000
846.89	-0.000
847.06	-0.000
847.24	-0.000
847.41	-0.000
847.58	-0.000
847.76	-0.000
847.93	-0.000
848.10	-0.000
848.27	-0.000
848.45	-0.000
848.62	-0.000
848.79	-0.000
848.97	-0.000
849.14	-0.000
849.31	-0.000
849.48	-0.000
849.66	-0.000
849.83	-0.000
850.00	-0.000
850.17	-0.000
850.35	-0.000
850.52	-0.000
850.69	-0.000
850.86	-0.000
851.04	-0.000
851.21	-0.000
851.38	-0.000
851.55	-0.000
851.72	-0.000
851.90	-0.000
852.07	-0.000
852.24	-0.000
852.41	-0.000
852.59	-0.000
852.76	-0.000
852.93	-0.000
853.10	-0.000
853.28	-0.000
853.45	-0.000
853.62	-0.000
853.79	-0.000
853.96	-0.000
854.14	-0.000
854.31	-0.000
854.48	-0.000
854.65	-0.000
854.82	-0.000
855.00	-0.000
855.17	-0.000
855.34	-0.000
855.51	-0.000
855.68	-0.000
855.86	-0.000
856.03	-0.000
856.20	-0.000
856.37	-0.000
856.54	-0.000
856.72	-0.000
856.89	-0.000
857.06	-0.000
857.23	-0.000
857.40	-0.000
857.57	-0.000
857.75	-0.000
857.92	-0.000
858.09	-0.000
858.26	-0.000
858.43	-0.000
858.60	-0.000
858.78	-0.000
858.95	-0.000
859.12	-0.000
859.29	-0.000
859.46	-0.000
859.63	-0.000
859.81	-0.000
859.98	-0.000
860.15	-0.000
860.32	-0.000
860.49	-0.000
860.66	-0.000
860.83	-0.000
861.01	-0.000
861.18	-0.000
861.35	-0.000
861.52	-0.000
861.69	-0.000
861.86	-0.000
862.03	-0.000
862.21	-0.000
862.38	-0.000
862.55	-0.000
862.72	-0.000
862.89	-0.000
863.06	-0.000
863.23	-0.000
863.40	-0.000
863.58	-0.000
863.75	-0.000
863.92	-0.000
864.09	-0.000
864.26	-0.000
864.43	-0.000
864.60	-0.000
864.77	-0.000
864.94	-0.000
865.11	-0.000
865.29	-0.000
865.46	-0.000
865.63	-0.000
865.80	-0.000
865.97	-0.000
866.14	-0.000
866.31	-0.000
866.48	-0.000
866.65	-0.000
866.82	-0.000
866.99	-0.000
867.16	-0.000
867.34	-0.000
867.51	-0.000
867.68	-0.000
867.85	-0.000
868.02	-0.000
868.19	-0.000
868.36	-0.000
868.53	-0.000
868.70	-0.000
868.87	-0.000
869.04	-0.000
869.21	-0.000
869.38	-0.000
869.55	-0.000
869.72	-0.000
869.89	-0.000
870.06	-0.000
870.24	-0.000
870.41	-0.000
870.58	-0.000
870.75	-0.000
870.92	-0.000
871.09	-0.000
871.26	-0.000
871.43	-0.000
871.60	-0.000
871.77	-0.000
871.94	-0.000
872.11	-0.000
872.28	-0.000
872.45	-0.000
872.62	-0.000
872.79	-0.000
872.96	-0.000
873.13	-0.000
873.30	-0.000
873.47	-0.000
873.64	-0.000
873.81	-0.000
873.98	-0.000
874.15	-0.000
874.32	-0.000
874.49	-0.000
874.66	-0.000
874.83	-0.000
875.00	-0.000
875.17	-0.000
875.34	-0.000
875.51	-0.000
875.68	-0.000
875.85	-0.000
876.02	-0.000
876.19	-0.000
876.36	-0.000
876.53	-0.000
876.70	-0.000
876.87	-0.000
877.04	-0.000
877.21	-0.000
877.38	-0.000
877.55	-0.000
877.72	-0.000
877.89	-0.000
878.06	-0.000
878.23	-0.000
878.39	-0.000
878.56	-0.000
878.73	-0.000
878.90	-0.000
879.07	-0.000
879.24	-0.000
879.41	-0.000
879.58	-0.000
879.75	-0.000
879.92	-0.000
880.09	-0.000
880.26	-0.000
880.43	-0.000
880.60	-0.000
880.77	-0.000
880.94	-0.000
881.11	-0.000
881.27	-0.000
881.44	-0.000
881.61	-0.000
881.78	-0.000
881.95	-0.000
882.12	-0.000
882.29	-0.000
882.46	-0.000
882.63	-0.000
882.80	-0.000
882.97	-0.000
883.14	-0.000
883.30	-0.000
883.47	-0.000
883.64	-0.000
883.81	-0.000
883.98	-0.000
884.15	-0.000
884.32	-0.000
884.49	-0.000
884.66	-0.000
884.82	-0.000
884.99	-0.000
885.16	-0.000
885.33	-0.000
885.50	-0.000
885.67	-0.000
885.84	-0.000
886.01	-0.000
886.17	-0.000
886.34	-0.000
886.51	-0.000
886.68	-0.000
886.85	-0.000
887.02	-0.000
887.19	-0.000
887.36	-0.000
887.52	-0.000
887.69	-0.000
887.86	-0.000
888.03	-0.000
888.20	-0.000
888.37	-0.000
888.54	-0.000
888.70	-0.000
888.87	-0.000
889.04	-0.000
889.21	-0.000
889.38	-0.000
889.55	-0.000
889.71	-0.000
889.88	-0.000
890.05	-0.000
890.22	-0.000
890.39	-0.000
>>>>>End Processed Spectral Data<<<<<
