SpectraSuite Data File
++++++++++++++++++++++++++++++++++++
Date: Fri Jun 19 15:06:42 CEST 2015
User: introlabs
Dark Spectrum Present: Yes
Reference Spectrum Present: Yes
Number of Sampled Component Spectra: 1
Spectrometers: USB4H08886
Integration Time (usec): 745692 (USB4H08886)
Spectra Averaged: 5 (USB4H08886)
Boxcar Smoothing: 5 (USB4H08886)
Correct for Electrical Dark: Yes (USB4H08886)
Strobe/Lamp Enabled: No (USB4H08886)
Correct for Detector Non-linearity: Yes (USB4H08886)
Correct for Stray Light: Yes (USB4H08886)
Number of Pixels in Processed Spectrum: 3648
>>>>>Begin Processed Spectral Data<<<<<
178.14	-0.000
178.36	-0.000
178.57	-0.000
178.79	-0.000
179.01	-0.000
179.22	-0.000
179.44	-0.000
179.65	-0.000
179.87	-0.000
180.08	-0.000
180.30	-0.000
180.52	-0.000
180.73	-0.000
180.95	-0.000
181.16	-0.000
181.38	-0.000
181.59	-0.000
181.81	-0.000
182.03	-0.000
182.24	-0.000
182.46	-0.000
182.67	-0.000
182.89	-0.000
183.10	-0.000
183.32	-0.000
183.54	-0.000
183.75	-0.000
183.97	-0.000
184.18	-0.000
184.40	-0.000
184.61	-0.000
184.83	-0.000
185.04	-0.000
185.26	-0.000
185.48	-0.000
185.69	-0.000
185.91	-0.000
186.12	-0.000
186.34	-0.000
186.55	-0.000
186.77	-0.000
186.98	-0.000
187.20	-0.000
187.42	-0.000
187.63	-0.000
187.85	-0.000
188.06	-0.000
188.28	-0.000
188.49	-0.000
188.71	-0.000
188.92	-0.000
189.14	-0.000
189.36	-0.000
189.57	-0.000
189.79	-0.000
190.00	-0.000
190.22	-0.000
190.43	-0.000
190.65	-0.000
190.86	-0.000
191.08	-0.000
191.29	-0.000
191.51	-0.000
191.72	-0.000
191.94	-0.000
192.16	-0.000
192.37	-0.000
192.59	-0.000
192.80	-0.000
193.02	-0.000
193.23	-0.000
193.45	-0.000
193.66	-0.000
193.88	-0.000
194.09	-0.000
194.31	-0.000
194.52	-0.000
194.74	-0.000
194.95	-0.000
195.17	-0.000
195.38	-0.000
195.60	-0.000
195.81	-0.000
196.03	-0.000
196.25	-0.000
196.46	-0.000
196.68	-0.000
196.89	-0.000
197.11	-0.000
197.32	-0.000
197.54	-0.000
197.75	-0.000
197.97	-0.000
198.18	-0.000
198.40	-0.000
198.61	-0.000
198.83	-0.000
199.04	-0.000
199.26	-0.000
199.47	-0.000
199.69	-0.000
199.90	-0.000
200.12	-0.000
200.33	-0.000
200.55	-0.000
200.76	-0.000
200.98	-0.000
201.19	-0.000
201.41	-0.000
201.62	-0.000
201.84	-0.000
202.05	-0.000
202.27	-0.000
202.48	-0.000
202.70	-0.000
202.91	-0.000
203.13	-0.000
203.34	-0.000
203.56	-0.000
203.77	-0.000
203.99	-0.000
204.20	-0.000
204.42	-0.000
204.63	-0.000
204.85	-0.000
205.06	-0.000
205.28	-0.000
205.49	-0.000
205.71	-0.000
205.92	-0.000
206.14	-0.000
206.35	-0.000
206.56	-0.000
206.78	-0.000
206.99	-0.000
207.21	-0.000
207.42	-0.000
207.64	-0.000
207.85	-0.000
208.07	-0.000
208.28	-0.000
208.50	-0.000
208.71	-0.000
208.93	-0.000
209.14	-0.000
209.36	-0.000
209.57	-0.000
209.79	-0.000
210.00	-0.000
210.22	-0.000
210.43	-0.000
210.64	-0.000
210.86	-0.000
211.07	-0.000
211.29	-0.000
211.50	-0.000
211.72	-0.000
211.93	-0.000
212.15	-0.000
212.36	-0.000
212.58	-0.000
212.79	-0.000
213.01	-0.000
213.22	-0.000
213.43	-0.000
213.65	-0.000
213.86	-0.000
214.08	-0.000
214.29	-0.000
214.51	-0.000
214.72	-0.000
214.94	-0.000
215.15	-0.000
215.36	-0.000
215.58	-0.000
215.79	-0.000
216.01	-0.000
216.22	-0.000
216.44	-0.000
216.65	-0.000
216.87	-0.000
217.08	-0.000
217.29	-0.000
217.51	-0.000
217.72	-0.000
217.94	-0.000
218.15	-0.000
218.37	-0.000
218.58	-0.000
218.80	-0.000
219.01	-0.000
219.22	-0.000
219.44	-0.000
219.65	-0.000
219.87	-0.000
220.08	-0.000
220.30	-0.000
220.51	-0.000
220.72	-0.000
220.94	-0.000
221.15	-0.000
221.37	-0.000
221.58	-0.000
221.79	-0.000
222.01	-0.000
222.22	-0.000
222.44	-0.000
222.65	-0.000
222.87	-0.000
223.08	-0.000
223.29	-0.000
223.51	-0.000
223.72	-0.000
223.94	-0.000
224.15	-0.000
224.36	-0.000
224.58	-0.000
224.79	-0.000
225.01	-0.000
225.22	-0.000
225.44	-0.000
225.65	-0.000
225.86	-0.000
226.08	-0.000
226.29	-0.000
226.51	-0.000
226.72	-0.000
226.93	-0.000
227.15	-0.000
227.36	-0.000
227.58	-0.000
227.79	-0.000
228.00	-0.000
228.22	-0.000
228.43	-0.000
228.65	-0.000
228.86	-0.000
229.07	-0.000
229.29	-0.000
229.50	-0.000
229.72	-0.000
229.93	-0.000
230.14	-0.000
230.36	-0.000
230.57	-0.000
230.78	-0.000
231.00	-0.000
231.21	-0.000
231.43	-0.000
231.64	-0.000
231.85	-0.000
232.07	-0.000
232.28	-0.000
232.50	-0.000
232.71	-0.000
232.92	-0.000
233.14	-0.000
233.35	-0.000
233.56	-0.000
233.78	-0.000
233.99	-0.000
234.21	-0.000
234.42	-0.000
234.63	-0.000
234.85	-0.000
235.06	-0.000
235.27	-0.000
235.49	-0.000
235.70	-0.000
235.91	-0.000
236.13	-0.000
236.34	-0.000
236.56	-0.000
236.77	-0.000
236.98	-0.000
237.20	-0.000
237.41	-0.000
237.62	-0.000
237.84	-0.000
238.05	-0.000
238.26	-0.000
238.48	-0.000
238.69	-0.000
238.91	-0.000
239.12	-0.000
239.33	-0.000
239.55	-0.000
239.76	-0.000
239.97	-0.000
240.19	-0.000
240.40	-0.000
240.61	-0.000
240.83	-0.000
241.04	-0.000
241.25	-0.000
241.47	-0.000
241.68	-0.000
241.89	-0.000
242.11	-0.000
242.32	-0.000
242.53	-0.000
242.75	-0.000
242.96	-0.000
243.17	-0.000
243.39	-0.000
243.60	-0.000
243.81	-0.000
244.03	-0.000
244.24	-0.000
244.45	-0.000
244.67	-0.000
244.88	-0.000
245.09	-0.000
245.31	-0.000
245.52	-0.000
245.73	-0.000
245.95	-0.000
246.16	-0.000
246.37	-0.000
246.59	-0.000
246.80	-0.000
247.01	-0.000
247.23	-0.000
247.44	-0.000
247.65	-0.000
247.87	-0.000
248.08	-0.000
248.29	-0.000
248.51	-0.000
248.72	-0.000
248.93	-0.000
249.15	-0.000
249.36	-0.000
249.57	-0.000
249.78	-0.000
250.00	-0.000
250.21	-0.000
250.42	-0.000
250.64	-0.000
250.85	-0.000
251.06	-0.000
251.28	-0.000
251.49	-0.000
251.70	-0.000
251.92	-0.000
252.13	-0.000
252.34	-0.000
252.55	-0.000
252.77	-0.000
252.98	-0.000
253.19	-0.000
253.41	-0.000
253.62	-0.000
253.83	-0.000
254.05	-0.000
254.26	-0.000
254.47	-0.000
254.68	-0.000
254.90	-0.000
255.11	-0.000
255.32	-0.000
255.54	-0.000
255.75	-0.000
255.96	-0.000
256.17	-0.000
256.39	-0.000
256.60	-0.000
256.81	-0.000
257.03	-0.000
257.24	-0.000
257.45	-0.000
257.66	-0.000
257.88	-0.000
258.09	-0.000
258.30	-0.000
258.51	-0.000
258.73	-0.000
258.94	-0.000
259.15	-0.000
259.37	-0.000
259.58	-0.000
259.79	-0.000
260.00	-0.000
260.22	-0.000
260.43	-0.000
260.64	-0.000
260.85	-0.000
261.07	-0.000
261.28	-0.000
261.49	-0.000
261.71	-0.000
261.92	-0.000
262.13	-0.000
262.34	-0.000
262.56	-0.000
262.77	-0.000
262.98	-0.000
263.19	-0.000
263.41	-0.000
263.62	-0.000
263.83	-0.000
264.04	-0.000
264.26	-0.000
264.47	-0.000
264.68	-0.000
264.89	-0.000
265.11	-0.000
265.32	-0.000
265.53	-0.000
265.74	-0.000
265.96	-0.000
266.17	-0.000
266.38	-0.000
266.59	-0.000
266.81	-0.000
267.02	-0.000
267.23	-0.000
267.44	-0.000
267.65	-0.000
267.87	-0.000
268.08	-0.000
268.29	-0.000
268.50	-0.000
268.72	-0.000
268.93	-0.000
269.14	-0.000
269.35	-0.000
269.57	-0.000
269.78	-0.000
269.99	-0.000
270.20	-0.000
270.41	-0.000
270.63	-0.000
270.84	-0.000
271.05	-0.000
271.26	-0.000
271.48	-0.000
271.69	-0.000
271.90	-0.000
272.11	-0.000
272.32	-0.000
272.54	-0.000
272.75	-0.000
272.96	-0.000
273.17	-0.000
273.39	-0.000
273.60	-0.000
273.81	-0.000
274.02	-0.000
274.23	-0.000
274.45	-0.000
274.66	-0.000
274.87	-0.000
275.08	-0.000
275.29	-0.000
275.51	-0.000
275.72	-0.000
275.93	-0.000
276.14	-0.000
276.35	-0.000
276.57	-0.000
276.78	-0.000
276.99	-0.000
277.20	-0.000
277.41	-0.000
277.63	-0.000
277.84	-0.000
278.05	-0.000
278.26	-0.000
278.47	-0.000
278.69	-0.000
278.90	-0.000
279.11	-0.000
279.32	-0.000
279.53	-0.000
279.74	-0.000
279.96	-0.000
280.17	-0.000
280.38	-0.000
280.59	-0.000
280.80	-0.000
281.02	-0.000
281.23	-0.000
281.44	-0.000
281.65	-0.000
281.86	-0.000
282.07	-0.000
282.29	-0.000
282.50	-0.000
282.71	-0.000
282.92	-0.000
283.13	-0.000
283.35	-0.000
283.56	-0.000
283.77	-0.000
283.98	-0.000
284.19	-0.000
284.40	-0.000
284.62	-0.000
284.83	-0.000
285.04	-0.000
285.25	-0.000
285.46	-0.000
285.67	-0.000
285.88	-0.000
286.10	-0.000
286.31	-0.000
286.52	-0.000
286.73	-0.000
286.94	-0.000
287.15	-0.000
287.37	-0.000
287.58	-0.000
287.79	-0.000
288.00	-0.000
288.21	-0.000
288.42	-0.000
288.63	-0.000
288.85	-0.000
289.06	-0.000
289.27	-0.000
289.48	-0.000
289.69	-0.000
289.90	-0.000
290.11	-0.000
290.33	-0.000
290.54	-0.000
290.75	-0.000
290.96	-0.000
291.17	-0.000
291.38	-0.000
291.59	-0.000
291.81	-0.000
292.02	-0.000
292.23	-0.000
292.44	-0.000
292.65	-0.000
292.86	-0.000
293.07	-0.000
293.28	-0.000
293.50	-0.000
293.71	-0.000
293.92	-0.000
294.13	-0.000
294.34	-0.000
294.55	-0.000
294.76	-0.000
294.97	-0.000
295.19	-0.000
295.40	-0.000
295.61	-0.000
295.82	-0.000
296.03	-0.000
296.24	-0.000
296.45	2.029
296.66	1.729
296.87	1.731
297.09	1.792
297.30	1.968
297.51	1.670
297.72	1.639
297.93	1.714
298.14	1.684
298.35	1.653
298.56	1.634
298.77	1.745
298.99	1.709
299.20	1.693
299.41	1.676
299.62	1.625
299.83	1.613
300.04	1.560
300.25	1.548
300.46	1.577
300.67	1.550
300.88	1.505
301.10	1.508
301.31	1.568
301.52	1.519
301.73	1.469
301.94	1.474
302.15	1.493
302.36	1.454
302.57	1.400
302.78	1.411
302.99	1.449
303.20	1.470
303.41	1.383
303.63	1.374
303.84	1.381
304.05	1.377
304.26	1.323
304.47	1.323
304.68	1.324
304.89	1.315
305.10	1.274
305.31	1.263
305.52	1.302
305.73	1.298
305.94	1.260
306.15	1.251
306.37	1.270
306.58	1.275
306.79	1.250
307.00	1.270
307.21	1.310
307.42	1.306
307.63	1.273
307.84	1.241
308.05	1.278
308.26	1.276
308.47	1.255
308.68	1.252
308.89	1.250
309.10	1.247
309.31	1.208
309.52	1.199
309.73	1.212
309.95	1.206
310.16	1.178
310.37	1.166
310.58	1.182
310.79	1.182
311.00	1.178
311.21	1.182
311.42	1.183
311.63	1.178
311.84	1.158
312.05	1.157
312.26	1.179
312.47	1.189
312.68	1.167
312.89	1.153
313.10	1.157
313.31	1.132
313.52	1.135
313.73	1.134
313.94	1.137
314.15	1.121
314.36	1.100
314.57	1.093
314.78	1.080
314.99	1.075
315.21	1.062
315.42	1.067
315.63	1.078
315.84	1.056
316.05	1.045
316.26	1.054
316.47	1.069
316.68	1.065
316.89	1.046
317.10	1.065
317.31	1.071
317.52	1.075
317.73	1.053
317.94	1.051
318.15	1.090
318.36	1.087
318.57	1.070
318.78	1.061
318.99	1.094
319.20	1.091
319.41	1.060
319.62	1.061
319.83	1.072
320.04	1.070
320.25	1.057
320.46	1.027
320.67	1.031
320.88	1.026
321.09	1.014
321.30	1.001
321.51	1.016
321.72	1.013
321.93	0.997
322.14	0.990
322.35	1.015
322.56	1.019
322.77	1.006
322.98	1.017
323.19	1.025
323.40	1.032
323.61	1.011
323.82	1.005
324.03	1.011
324.24	1.008
324.45	0.996
324.66	0.978
324.87	0.975
325.08	0.976
325.29	0.958
325.50	0.955
325.71	0.959
325.92	0.968
326.13	0.955
326.34	0.955
326.55	0.961
326.76	0.960
326.97	0.949
327.18	0.942
327.39	0.966
327.60	0.967
327.80	0.964
328.01	0.962
328.22	0.961
328.43	0.966
328.64	0.956
328.85	0.961
329.06	0.961
329.27	0.961
329.48	0.958
329.69	0.940
329.90	0.949
330.11	0.942
330.32	0.936
330.53	0.929
330.74	0.927
330.95	0.926
331.16	0.912
331.37	0.922
331.58	0.921
331.79	0.921
332.00	0.912
332.21	0.904
332.42	0.907
332.63	0.899
332.83	0.895
333.04	0.897
333.25	0.909
333.46	0.907
333.67	0.894
333.88	0.896
334.09	0.905
334.30	0.903
334.51	0.896
334.72	0.893
334.93	0.894
335.14	0.894
335.35	0.888
335.56	0.884
335.77	0.892
335.98	0.890
336.18	0.883
336.39	0.876
336.60	0.880
336.81	0.877
337.02	0.877
337.23	0.882
337.44	0.884
337.65	0.884
337.86	0.873
338.07	0.869
338.28	0.874
338.49	0.872
338.70	0.865
338.91	0.871
339.11	0.880
339.32	0.875
339.53	0.864
339.74	0.861
339.95	0.860
340.16	0.858
340.37	0.851
340.58	0.848
340.79	0.851
341.00	0.851
341.21	0.841
341.41	0.840
341.62	0.842
341.83	0.842
342.04	0.838
342.25	0.848
342.46	0.852
342.67	0.850
342.88	0.844
343.09	0.844
343.30	0.850
343.50	0.854
343.71	0.844
343.92	0.843
344.13	0.848
344.34	0.848
344.55	0.832
344.76	0.831
344.97	0.835
345.18	0.833
345.38	0.832
345.59	0.826
345.80	0.824
346.01	0.823
346.22	0.818
346.43	0.812
346.64	0.820
346.85	0.819
347.06	0.812
347.26	0.811
347.47	0.815
347.68	0.810
347.89	0.806
348.10	0.801
348.31	0.808
348.52	0.807
348.73	0.804
348.93	0.801
349.14	0.803
349.35	0.803
349.56	0.798
349.77	0.794
349.98	0.800
350.19	0.798
350.39	0.794
350.60	0.790
350.81	0.805
351.02	0.805
351.23	0.800
351.44	0.803
351.65	0.806
351.86	0.804
352.06	0.802
352.27	0.801
352.48	0.802
352.69	0.801
352.90	0.796
353.11	0.782
353.31	0.788
353.52	0.784
353.73	0.776
353.94	0.778
354.15	0.784
354.36	0.784
354.57	0.776
354.77	0.779
354.98	0.777
355.19	0.777
355.40	0.776
355.61	0.782
355.82	0.787
356.02	0.786
356.23	0.779
356.44	0.781
356.65	0.785
356.86	0.785
357.07	0.778
357.27	0.782
357.48	0.784
357.69	0.780
357.90	0.765
358.11	0.761
358.32	0.764
358.52	0.766
358.73	0.756
358.94	0.758
359.15	0.762
359.36	0.762
359.56	0.758
359.77	0.755
359.98	0.761
360.19	0.761
360.40	0.758
360.61	0.759
360.81	0.757
361.02	0.759
361.23	0.751
361.44	0.750
361.65	0.750
361.85	0.750
362.06	0.749
362.27	0.750
362.48	0.750
362.69	0.752
362.89	0.747
363.10	0.749
363.31	0.753
363.52	0.755
363.73	0.751
363.93	0.752
364.14	0.753
364.35	0.755
364.56	0.745
364.77	0.747
364.97	0.749
365.18	0.750
365.39	0.745
365.60	0.742
365.81	0.742
366.01	0.742
366.22	0.739
366.43	0.739
366.64	0.741
366.84	0.747
367.05	0.745
367.26	0.744
367.47	0.745
367.68	0.745
367.88	0.742
368.09	0.740
368.30	0.742
368.51	0.742
368.71	0.741
368.92	0.745
369.13	0.742
369.34	0.741
369.55	0.741
369.75	0.741
369.96	0.748
370.17	0.748
370.38	0.745
370.58	0.745
370.79	0.750
371.00	0.748
371.21	0.739
371.41	0.744
371.62	0.749
371.83	0.744
372.04	0.742
372.24	0.735
372.45	0.736
372.66	0.736
372.87	0.733
373.07	0.729
373.28	0.730
373.49	0.734
373.70	0.725
373.90	0.724
374.11	0.733
374.32	0.732
374.53	0.731
374.73	0.732
374.94	0.734
375.15	0.734
375.36	0.732
375.56	0.741
375.77	0.740
375.98	0.740
376.19	0.738
376.39	0.731
376.60	0.735
376.81	0.735
377.02	0.733
377.22	0.731
377.43	0.731
377.64	0.731
377.84	0.723
378.05	0.728
378.26	0.734
378.47	0.733
378.67	0.730
378.88	0.728
379.09	0.729
379.30	0.730
379.50	0.728
379.71	0.730
379.92	0.732
380.12	0.731
380.33	0.723
380.54	0.719
380.75	0.726
380.95	0.726
381.16	0.724
381.37	0.724
381.57	0.725
381.78	0.726
381.99	0.726
382.20	0.726
382.40	0.728
382.61	0.729
382.82	0.726
383.02	0.719
383.23	0.722
383.44	0.722
383.64	0.721
383.85	0.724
384.06	0.727
384.27	0.725
384.47	0.722
384.68	0.723
384.89	0.728
385.09	0.728
385.30	0.729
385.51	0.728
385.71	0.731
385.92	0.731
386.13	0.730
386.33	0.732
386.54	0.733
386.75	0.732
386.95	0.728
387.16	0.724
387.37	0.726
387.58	0.725
387.78	0.723
387.99	0.720
388.20	0.722
388.40	0.719
388.61	0.715
388.82	0.718
389.02	0.719
389.23	0.719
389.44	0.718
389.64	0.719
389.85	0.731
390.06	0.731
390.26	0.732
390.47	0.732
390.68	0.734
390.88	0.733
391.09	0.728
391.30	0.728
391.50	0.728
391.71	0.728
391.92	0.725
392.12	0.717
392.33	0.718
392.53	0.718
392.74	0.718
392.95	0.718
393.15	0.720
393.36	0.722
393.57	0.720
393.77	0.723
393.98	0.724
394.19	0.724
394.39	0.723
394.60	0.724
394.81	0.726
395.01	0.724
395.22	0.723
395.43	0.723
395.63	0.728
395.84	0.729
396.04	0.725
396.25	0.727
396.46	0.730
396.66	0.728
396.87	0.726
397.08	0.722
397.28	0.725
397.49	0.726
397.69	0.722
397.90	0.718
398.11	0.719
398.31	0.720
398.52	0.716
398.73	0.717
398.93	0.716
399.14	0.715
399.34	0.715
399.55	0.715
399.76	0.716
399.96	0.717
400.17	0.715
400.37	0.714
400.58	0.721
400.79	0.722
400.99	0.719
401.20	0.726
401.41	0.728
401.61	0.729
401.82	0.735
402.02	0.734
402.23	0.735
402.44	0.735
402.64	0.735
402.85	0.730
403.05	0.729
403.26	0.728
403.47	0.722
403.67	0.721
403.88	0.722
404.08	0.716
404.29	0.714
404.50	0.714
404.70	0.714
404.91	0.713
405.11	0.710
405.32	0.711
405.52	0.711
405.73	0.711
405.94	0.709
406.14	0.712
406.35	0.714
406.55	0.714
406.76	0.712
406.97	0.713
407.17	0.716
407.38	0.715
407.58	0.713
407.79	0.716
407.99	0.718
408.20	0.719
408.41	0.714
408.61	0.712
408.82	0.713
409.02	0.712
409.23	0.711
409.43	0.709
409.64	0.711
409.84	0.711
410.05	0.707
410.26	0.705
410.46	0.704
410.67	0.704
410.87	0.706
411.08	0.708
411.28	0.708
411.49	0.710
411.69	0.708
411.90	0.709
412.11	0.711
412.31	0.712
412.52	0.711
412.72	0.712
412.93	0.713
413.13	0.712
413.34	0.708
413.54	0.710
413.75	0.713
413.95	0.713
414.16	0.709
414.37	0.712
414.57	0.712
414.78	0.714
414.98	0.712
415.19	0.713
415.39	0.710
415.60	0.712
415.80	0.711
416.01	0.709
416.21	0.710
416.42	0.710
416.62	0.706
416.83	0.706
417.03	0.705
417.24	0.706
417.44	0.704
417.65	0.703
417.86	0.704
418.06	0.702
418.27	0.700
418.47	0.702
418.68	0.702
418.88	0.703
419.09	0.701
419.29	0.702
419.50	0.702
419.70	0.702
419.91	0.701
420.11	0.698
420.32	0.701
420.52	0.700
420.73	0.699
420.93	0.700
421.14	0.702
421.34	0.701
421.55	0.698
421.75	0.698
421.96	0.699
422.16	0.699
422.37	0.699
422.57	0.696
422.78	0.697
422.98	0.693
423.19	0.691
423.39	0.689
423.60	0.692
423.80	0.693
424.01	0.691
424.21	0.694
424.42	0.694
424.62	0.694
424.83	0.693
425.03	0.694
425.23	0.695
425.44	0.696
425.64	0.696
425.85	0.695
426.05	0.696
426.26	0.696
426.46	0.692
426.67	0.692
426.87	0.697
427.08	0.697
427.28	0.695
427.49	0.696
427.69	0.696
427.90	0.696
428.10	0.693
428.31	0.693
428.51	0.694
428.71	0.694
428.92	0.695
429.12	0.692
429.33	0.693
429.53	0.697
429.74	0.701
429.94	0.701
430.15	0.700
430.35	0.700
430.56	0.697
430.76	0.696
430.96	0.697
431.17	0.695
431.37	0.692
431.58	0.690
431.78	0.686
431.99	0.679
432.19	0.681
432.40	0.683
432.60	0.683
432.80	0.686
433.01	0.684
433.21	0.684
433.42	0.686
433.62	0.686
433.83	0.686
434.03	0.689
434.23	0.692
434.44	0.691
434.64	0.689
434.85	0.694
435.05	0.695
435.26	0.695
435.46	0.694
435.66	0.694
435.87	0.694
436.07	0.694
436.28	0.689
436.48	0.686
436.69	0.685
436.89	0.685
437.09	0.678
437.30	0.676
437.50	0.676
437.71	0.688
437.91	0.687
438.11	0.687
438.32	0.692
438.52	0.692
438.73	0.691
438.93	0.689
439.13	0.689
439.34	0.692
439.54	0.691
439.75	0.691
439.95	0.681
440.15	0.686
440.36	0.684
440.56	0.681
440.77	0.681
440.97	0.681
441.17	0.679
441.38	0.681
441.58	0.678
441.79	0.677
441.99	0.676
442.19	0.675
442.40	0.672
442.60	0.672
442.81	0.670
443.01	0.671
443.21	0.672
443.42	0.671
443.62	0.670
443.82	0.670
444.03	0.671
444.23	0.671
444.44	0.671
444.64	0.670
444.84	0.671
445.05	0.671
445.25	0.669
445.45	0.670
445.66	0.672
445.86	0.671
446.06	0.672
446.27	0.671
446.47	0.674
446.68	0.672
446.88	0.671
447.08	0.671
447.29	0.672
447.49	0.673
447.69	0.672
447.90	0.671
448.10	0.674
448.30	0.671
448.51	0.673
448.71	0.671
448.91	0.673
449.12	0.672
449.32	0.674
449.52	0.672
449.73	0.675
449.93	0.674
450.14	0.675
450.34	0.674
450.54	0.677
450.75	0.674
450.95	0.674
451.15	0.673
451.36	0.675
451.56	0.672
451.76	0.671
451.97	0.668
452.17	0.669
452.37	0.667
452.58	0.664
452.78	0.663
452.98	0.665
453.19	0.665
453.39	0.665
453.59	0.663
453.79	0.664
454.00	0.664
454.20	0.663
454.40	0.664
454.61	0.666
454.81	0.666
455.01	0.664
455.22	0.665
455.42	0.667
455.62	0.665
455.83	0.664
456.03	0.668
456.23	0.668
456.44	0.669
456.64	0.669
456.84	0.668
457.04	0.669
457.25	0.669
457.45	0.666
457.65	0.664
457.86	0.666
458.06	0.664
458.26	0.660
458.47	0.659
458.67	0.660
458.87	0.659
459.07	0.657
459.28	0.659
459.48	0.661
459.68	0.661
459.89	0.660
460.09	0.659
460.29	0.660
460.49	0.661
460.70	0.660
460.90	0.659
461.10	0.660
461.31	0.660
461.51	0.657
461.71	0.659
461.91	0.660
462.12	0.661
462.32	0.660
462.52	0.661
462.72	0.664
462.93	0.664
463.13	0.663
463.33	0.664
463.53	0.665
463.74	0.665
463.94	0.660
464.14	0.660
464.35	0.662
464.55	0.662
464.75	0.659
464.95	0.657
465.16	0.659
465.36	0.658
465.56	0.657
465.76	0.656
465.97	0.656
466.17	0.657
466.37	0.654
466.57	0.655
466.78	0.656
466.98	0.656
467.18	0.654
467.38	0.653
467.59	0.654
467.79	0.656
467.99	0.655
468.19	0.656
468.39	0.659
468.60	0.659
468.80	0.657
469.00	0.658
469.20	0.660
469.41	0.660
469.61	0.659
469.81	0.659
470.01	0.659
470.22	0.659
470.42	0.657
470.62	0.656
470.82	0.657
471.02	0.657
471.23	0.654
471.43	0.654
471.63	0.657
471.83	0.656
472.04	0.655
472.24	0.654
472.44	0.659
472.64	0.659
472.84	0.658
473.05	0.657
473.25	0.660
473.45	0.660
473.65	0.658
473.85	0.658
474.06	0.660
474.26	0.660
474.46	0.661
474.66	0.657
474.86	0.658
475.07	0.658
475.27	0.656
475.47	0.653
475.67	0.653
475.87	0.656
476.08	0.653
476.28	0.653
476.48	0.655
476.68	0.653
476.88	0.651
477.09	0.652
477.29	0.653
477.49	0.653
477.69	0.653
477.89	0.653
478.09	0.652
478.30	0.654
478.50	0.652
478.70	0.651
478.90	0.651
479.10	0.654
479.31	0.655
479.51	0.653
479.71	0.654
479.91	0.654
480.11	0.653
480.31	0.654
480.52	0.652
480.72	0.652
480.92	0.651
481.12	0.651
481.32	0.648
481.52	0.646
481.72	0.646
481.93	0.649
482.13	0.650
482.33	0.649
482.53	0.647
482.73	0.648
482.93	0.649
483.14	0.649
483.34	0.649
483.54	0.650
483.74	0.649
483.94	0.647
484.14	0.644
484.34	0.644
484.55	0.644
484.75	0.644
484.95	0.642
485.15	0.642
485.35	0.642
485.55	0.641
485.75	0.639
485.96	0.640
486.16	0.642
486.36	0.641
486.56	0.639
486.76	0.640
486.96	0.640
487.16	0.639
487.36	0.637
487.57	0.637
487.77	0.638
487.97	0.638
488.17	0.636
488.37	0.635
488.57	0.635
488.77	0.635
488.97	0.634
489.18	0.633
489.38	0.635
489.58	0.636
489.78	0.636
489.98	0.635
490.18	0.635
490.38	0.636
490.58	0.635
490.78	0.635
490.98	0.637
491.19	0.637
491.39	0.637
491.59	0.636
491.79	0.638
491.99	0.639
492.19	0.638
492.39	0.641
492.59	0.641
492.79	0.643
492.99	0.643
493.20	0.643
493.40	0.643
493.60	0.645
493.80	0.643
494.00	0.641
494.20	0.641
494.40	0.641
494.60	0.638
494.80	0.643
495.00	0.642
495.20	0.640
495.40	0.639
495.61	0.641
495.81	0.640
496.01	0.644
496.21	0.645
496.41	0.644
496.61	0.645
496.81	0.644
497.01	0.639
497.21	0.639
497.41	0.639
497.61	0.639
497.81	0.636
498.01	0.636
498.21	0.634
498.41	0.632
498.61	0.633
498.82	0.634
499.02	0.635
499.22	0.636
499.42	0.635
499.62	0.636
499.82	0.637
500.02	0.639
500.22	0.637
500.42	0.640
500.62	0.640
500.82	0.640
501.02	0.638
501.22	0.639
501.42	0.639
501.62	0.641
501.82	0.641
502.02	0.641
502.22	0.640
502.42	0.642
502.62	0.639
502.82	0.639
503.02	0.639
503.22	0.639
503.42	0.638
503.63	0.638
503.83	0.636
504.03	0.635
504.23	0.634
504.43	0.634
504.63	0.635
504.83	0.635
505.03	0.634
505.23	0.636
505.43	0.637
505.63	0.638
505.83	0.637
506.03	0.639
506.23	0.641
506.43	0.641
506.63	0.640
506.83	0.639
507.03	0.641
507.23	0.641
507.43	0.639
507.63	0.639
507.83	0.639
508.03	0.639
508.23	0.639
508.43	0.638
508.63	0.639
508.83	0.639
509.03	0.640
509.23	0.639
509.43	0.640
509.63	0.640
509.83	0.638
510.03	0.641
510.23	0.642
510.43	0.643
510.63	0.643
510.83	0.643
511.03	0.645
511.23	0.643
511.43	0.642
511.63	0.644
511.83	0.646
512.03	0.646
512.22	0.643
512.42	0.643
512.62	0.643
512.82	0.643
513.02	0.642
513.22	0.642
513.42	0.643
513.62	0.646
513.82	0.644
514.02	0.643
514.22	0.644
514.42	0.644
514.62	0.644
514.82	0.644
515.02	0.647
515.22	0.650
515.42	0.649
515.62	0.651
515.82	0.650
516.02	0.651
516.22	0.651
516.42	0.653
516.62	0.655
516.82	0.656
517.01	0.655
517.21	0.654
517.41	0.657
517.61	0.658
517.81	0.655
518.01	0.654
518.21	0.653
518.41	0.652
518.61	0.650
518.81	0.651
519.01	0.651
519.21	0.651
519.41	0.650
519.61	0.645
519.81	0.647
520.00	0.648
520.20	0.648
520.40	0.651
520.60	0.651
520.80	0.651
521.00	0.651
521.20	0.653
521.40	0.657
521.60	0.657
521.80	0.656
522.00	0.656
522.20	0.658
522.39	0.658
522.59	0.656
522.79	0.657
522.99	0.660
523.19	0.658
523.39	0.655
523.59	0.654
523.79	0.657
523.99	0.659
524.19	0.658
524.38	0.656
524.58	0.657
524.78	0.657
524.98	0.655
525.18	0.657
525.38	0.658
525.58	0.659
525.78	0.657
525.98	0.656
526.18	0.656
526.37	0.656
526.57	0.658
526.77	0.658
526.97	0.659
527.17	0.659
527.37	0.656
527.57	0.658
527.77	0.659
527.96	0.659
528.16	0.657
528.36	0.658
528.56	0.659
528.76	0.657
528.96	0.656
529.16	0.657
529.36	0.660
529.55	0.660
529.75	0.656
529.95	0.657
530.15	0.659
530.35	0.662
530.55	0.659
530.75	0.660
530.94	0.661
531.14	0.661
531.34	0.659
531.54	0.657
531.74	0.661
531.94	0.664
532.13	0.662
532.33	0.663
532.53	0.662
532.73	0.662
532.93	0.660
533.13	0.661
533.33	0.662
533.52	0.663
533.72	0.666
533.92	0.664
534.12	0.662
534.32	0.662
534.52	0.660
534.71	0.662
534.91	0.665
535.11	0.667
535.31	0.665
535.51	0.667
535.71	0.668
535.90	0.665
536.10	0.667
536.30	0.669
536.50	0.670
536.70	0.670
536.89	0.667
537.09	0.667
537.29	0.668
537.49	0.669
537.69	0.667
537.89	0.668
538.08	0.668
538.28	0.666
538.48	0.666
538.68	0.668
538.88	0.670
539.07	0.670
539.27	0.668
539.47	0.668
539.67	0.668
539.87	0.669
540.06	0.667
540.26	0.667
540.46	0.669
540.66	0.666
540.86	0.664
541.05	0.664
541.25	0.665
541.45	0.666
541.65	0.664
541.84	0.666
542.04	0.667
542.24	0.667
542.44	0.666
542.64	0.667
542.83	0.670
543.03	0.670
543.23	0.668
543.43	0.669
543.62	0.670
543.82	0.670
544.02	0.668
544.22	0.669
544.42	0.672
544.61	0.673
544.81	0.669
545.01	0.668
545.21	0.670
545.40	0.670
545.60	0.668
545.80	0.672
546.00	0.672
546.19	0.671
546.39	0.670
546.59	0.667
546.79	0.669
546.98	0.669
547.18	0.669
547.38	0.670
547.58	0.673
547.77	0.673
547.97	0.669
548.17	0.671
548.37	0.672
548.56	0.672
548.76	0.671
548.96	0.673
549.16	0.675
549.35	0.675
549.55	0.672
549.75	0.673
549.95	0.676
550.14	0.676
550.34	0.675
550.54	0.679
550.73	0.682
550.93	0.683
551.13	0.679
551.33	0.678
551.52	0.678
551.72	0.679
551.92	0.676
552.12	0.677
552.31	0.678
552.51	0.678
552.71	0.673
552.90	0.674
553.10	0.675
553.30	0.676
553.50	0.675
553.69	0.677
553.89	0.677
554.09	0.677
554.28	0.675
554.48	0.677
554.68	0.678
554.87	0.678
555.07	0.674
555.27	0.674
555.47	0.675
555.66	0.676
555.86	0.675
556.06	0.677
556.25	0.678
556.45	0.685
556.65	0.683
556.84	0.687
557.04	0.690
557.24	0.692
557.43	0.692
557.63	0.695
557.83	0.696
558.02	0.696
558.22	0.701
558.42	0.702
558.61	0.694
558.81	0.695
559.01	0.690
559.21	0.690
559.40	0.691
559.60	0.691
559.80	0.687
559.99	0.688
560.19	0.690
560.39	0.684
560.58	0.682
560.78	0.682
560.97	0.686
561.17	0.685
561.37	0.683
561.56	0.684
561.76	0.686
561.96	0.685
562.15	0.682
562.35	0.685
562.55	0.685
562.74	0.685
562.94	0.684
563.14	0.682
563.33	0.682
563.53	0.682
563.73	0.680
563.92	0.681
564.12	0.684
564.31	0.686
564.51	0.684
564.71	0.686
564.90	0.689
565.10	0.690
565.30	0.692
565.49	0.694
565.69	0.696
565.89	0.696
566.08	0.693
566.28	0.695
566.47	0.697
566.67	0.696
566.87	0.694
567.06	0.695
567.26	0.702
567.46	0.697
567.65	0.697
567.85	0.699
568.04	0.701
568.24	0.701
568.44	0.698
568.63	0.697
568.83	0.697
569.02	0.696
569.22	0.691
569.42	0.687
569.61	0.689
569.81	0.688
570.00	0.685
570.20	0.687
570.40	0.688
570.59	0.687
570.79	0.685
570.98	0.684
571.18	0.685
571.38	0.685
571.57	0.683
571.77	0.680
571.96	0.684
572.16	0.681
572.35	0.677
572.55	0.677
572.75	0.675
572.94	0.676
573.14	0.674
573.33	0.674
573.53	0.674
573.73	0.673
573.92	0.671
574.12	0.670
574.31	0.673
574.51	0.673
574.70	0.670
574.90	0.671
575.09	0.673
575.29	0.674
575.49	0.671
575.68	0.672
575.88	0.673
576.07	0.674
576.27	0.672
576.46	0.670
576.66	0.669
576.86	0.669
577.05	0.667
577.25	0.665
577.44	0.666
577.64	0.666
577.83	0.665
578.03	0.666
578.22	0.665
578.42	0.664
578.61	0.663
578.81	0.663
579.00	0.664
579.20	0.663
579.40	0.662
579.59	0.661
579.79	0.661
579.98	0.661
580.18	0.659
580.37	0.660
580.57	0.662
580.76	0.666
580.96	0.665
581.15	0.666
581.35	0.668
581.54	0.668
581.74	0.668
581.93	0.669
582.13	0.670
582.32	0.667
582.52	0.665
582.71	0.665
582.91	0.661
583.10	0.661
583.30	0.659
583.49	0.659
583.69	0.663
583.88	0.664
584.08	0.663
584.27	0.665
584.47	0.669
584.66	0.670
584.86	0.669
585.05	0.672
585.25	0.674
585.44	0.674
585.64	0.672
585.83	0.668
586.03	0.668
586.22	0.666
586.42	0.662
586.61	0.664
586.81	0.665
587.00	0.665
587.20	0.662
587.39	0.662
587.59	0.664
587.78	0.665
587.98	0.666
588.17	0.667
588.37	0.670
588.56	0.672
588.76	0.668
588.95	0.667
589.15	0.671
589.34	0.674
589.54	0.673
589.73	0.674
589.92	0.677
590.12	0.677
590.31	0.675
590.51	0.681
590.70	0.682
590.90	0.682
591.09	0.681
591.29	0.679
591.48	0.679
591.68	0.680
591.87	0.678
592.06	0.677
592.26	0.680
592.45	0.679
592.65	0.673
592.84	0.673
593.04	0.675
593.23	0.678
593.43	0.675
593.62	0.674
593.81	0.674
594.01	0.674
594.20	0.671
594.40	0.670
594.59	0.672
594.79	0.673
594.98	0.671
595.17	0.670
595.37	0.671
595.56	0.674
595.76	0.673
595.95	0.675
596.14	0.678
596.34	0.679
596.53	0.678
596.73	0.680
596.92	0.682
597.12	0.685
597.31	0.684
597.50	0.683
597.70	0.685
597.89	0.684
598.09	0.681
598.28	0.682
598.47	0.685
598.67	0.683
598.86	0.679
599.06	0.680
599.25	0.680
599.44	0.678
599.64	0.676
599.83	0.674
600.03	0.676
600.22	0.676
600.41	0.676
600.61	0.674
600.80	0.675
601.00	0.676
601.19	0.672
601.38	0.670
601.58	0.673
601.77	0.674
601.96	0.676
602.16	0.676
602.35	0.685
602.55	0.682
602.74	0.684
602.93	0.686
603.13	0.691
603.32	0.692
603.51	0.692
603.71	0.695
603.90	0.697
604.09	0.698
604.29	0.695
604.48	0.690
604.68	0.691
604.87	0.690
605.06	0.686
605.26	0.683
605.45	0.683
605.64	0.683
605.84	0.678
606.03	0.677
606.22	0.675
606.42	0.675
606.61	0.671
606.80	0.671
607.00	0.673
607.19	0.673
607.38	0.672
607.58	0.673
607.77	0.675
607.96	0.675
608.16	0.673
608.35	0.677
608.54	0.681
608.74	0.683
608.93	0.688
609.12	0.690
609.32	0.692
609.51	0.695
609.70	0.694
609.90	0.696
610.09	0.701
610.28	0.707
610.48	0.701
610.67	0.702
610.86	0.703
611.06	0.697
611.25	0.695
611.44	0.696
611.64	0.696
611.83	0.699
612.02	0.695
612.21	0.694
612.41	0.693
612.60	0.692
612.79	0.688
612.99	0.689
613.18	0.691
613.37	0.689
613.57	0.686
613.76	0.688
613.95	0.685
614.14	0.685
614.34	0.681
614.53	0.682
614.72	0.684
614.92	0.685
615.11	0.682
615.30	0.679
615.49	0.680
615.69	0.682
615.88	0.678
616.07	0.680
616.26	0.682
616.46	0.683
616.65	0.680
616.84	0.679
617.04	0.680
617.23	0.683
617.42	0.684
617.61	0.688
617.81	0.689
618.00	0.691
618.19	0.689
618.38	0.694
618.58	0.698
618.77	0.699
618.96	0.698
619.15	0.700
619.35	0.701
619.54	0.701
619.73	0.697
619.92	0.699
620.12	0.704
620.31	0.704
620.50	0.698
620.69	0.698
620.89	0.701
621.08	0.701
621.27	0.701
621.46	0.701
621.66	0.704
621.85	0.704
622.04	0.700
622.23	0.700
622.43	0.701
622.62	0.702
622.81	0.701
623.00	0.701
623.19	0.704
623.39	0.703
623.58	0.700
623.77	0.699
623.96	0.701
624.16	0.701
624.35	0.696
624.54	0.699
624.73	0.703
624.92	0.700
625.12	0.697
625.31	0.698
625.50	0.701
625.69	0.702
625.88	0.698
626.08	0.698
626.27	0.699
626.46	0.700
626.65	0.697
626.84	0.697
627.04	0.703
627.23	0.703
627.42	0.698
627.61	0.699
627.80	0.702
628.00	0.702
628.19	0.700
628.38	0.704
628.57	0.705
628.76	0.705
628.96	0.702
629.15	0.703
629.34	0.705
629.53	0.706
629.72	0.701
629.91	0.702
630.11	0.706
630.30	0.707
630.49	0.709
630.68	0.710
630.87	0.713
631.06	0.715
631.26	0.710
631.45	0.711
631.64	0.719
631.83	0.721
632.02	0.719
632.21	0.718
632.41	0.724
632.60	0.719
632.79	0.716
632.98	0.717
633.17	0.718
633.36	0.720
633.55	0.717
633.75	0.713
633.94	0.714
634.13	0.715
634.32	0.713
634.51	0.709
634.70	0.710
634.89	0.710
635.09	0.707
635.28	0.707
635.47	0.708
635.66	0.710
635.85	0.706
636.04	0.708
636.23	0.712
636.43	0.713
636.62	0.712
636.81	0.711
637.00	0.714
637.19	0.718
637.38	0.715
637.57	0.714
637.76	0.716
637.95	0.717
638.15	0.714
638.34	0.711
638.53	0.713
638.72	0.714
638.91	0.712
639.10	0.709
639.29	0.709
639.48	0.709
639.67	0.710
639.87	0.708
640.06	0.713
640.25	0.713
640.44	0.714
640.63	0.713
640.82	0.716
641.01	0.715
641.20	0.715
641.39	0.717
641.58	0.719
641.78	0.717
641.97	0.713
642.16	0.727
642.35	0.727
642.54	0.725
642.73	0.720
642.92	0.718
643.11	0.722
643.30	0.723
643.49	0.718
643.68	0.720
643.87	0.722
644.06	0.722
644.25	0.703
644.45	0.706
644.64	0.708
644.83	0.709
645.02	0.706
645.21	0.705
645.40	0.706
645.59	0.706
645.78	0.701
645.97	0.703
646.16	0.704
646.35	0.704
646.54	0.701
646.73	0.701
646.92	0.702
647.11	0.702
647.30	0.699
647.49	0.701
647.68	0.700
647.88	0.698
648.07	0.692
648.26	0.696
648.45	0.698
648.64	0.695
648.83	0.694
649.02	0.697
649.21	0.706
649.40	0.705
649.59	0.701
649.78	0.702
649.97	0.716
650.16	0.715
650.35	0.708
650.54	0.710
650.73	0.718
650.92	0.714
651.11	0.707
651.30	0.705
651.49	0.709
651.68	0.709
651.87	0.705
652.06	0.695
652.25	0.699
652.44	0.703
652.63	0.703
652.82	0.703
653.01	0.704
653.20	0.703
653.39	0.693
653.58	0.690
653.77	0.690
653.96	0.686
654.15	0.678
654.34	0.676
654.53	0.670
654.72	0.664
654.91	0.654
655.10	0.649
655.29	0.647
655.48	0.644
655.67	0.639
655.86	0.636
656.05	0.635
656.24	0.634
656.43	0.629
656.62	0.628
656.81	0.627
657.00	0.624
657.19	0.620
657.38	0.620
657.57	0.618
657.76	0.620
657.95	0.618
658.14	0.620
658.33	0.622
658.51	0.627
658.70	0.627
658.89	0.628
659.08	0.638
659.27	0.646
659.46	0.646
659.65	0.653
659.84	0.656
660.03	0.660
660.22	0.662
660.41	0.665
660.60	0.664
660.79	0.666
660.98	0.672
661.17	0.671
661.36	0.670
661.55	0.671
661.74	0.669
661.92	0.671
662.11	0.673
662.30	0.671
662.49	0.665
662.68	0.665
662.87	0.668
663.06	0.662
663.25	0.663
663.44	0.663
663.63	0.664
663.82	0.662
664.01	0.657
664.20	0.656
664.38	0.657
664.57	0.658
664.76	0.658
664.95	0.658
665.14	0.662
665.33	0.658
665.52	0.666
665.71	0.670
665.90	0.670
666.09	0.672
666.28	0.669
666.46	0.668
666.65	0.669
666.84	0.667
667.03	0.662
667.22	0.660
667.41	0.663
667.60	0.652
667.79	0.645
667.98	0.647
668.16	0.648
668.35	0.647
668.54	0.643
668.73	0.644
668.92	0.645
669.11	0.645
669.30	0.639
669.49	0.636
669.67	0.638
669.86	0.640
670.05	0.638
670.24	0.635
670.43	0.633
670.62	0.633
670.81	0.629
671.00	0.630
671.18	0.628
671.37	0.628
671.56	0.625
671.75	0.624
671.94	0.621
672.13	0.619
672.32	0.615
672.50	0.615
672.69	0.614
672.88	0.615
673.07	0.611
673.26	0.613
673.45	0.614
673.63	0.614
673.82	0.610
674.01	0.612
674.20	0.611
674.39	0.611
674.58	0.610
674.76	0.610
674.95	0.608
675.14	0.608
675.33	0.603
675.52	0.602
675.71	0.602
675.89	0.602
676.08	0.598
676.27	0.598
676.46	0.598
676.65	0.597
676.84	0.597
677.02	0.598
677.21	0.599
677.40	0.598
677.59	0.597
677.78	0.597
677.96	0.600
678.15	0.599
678.34	0.598
678.53	0.598
678.72	0.598
678.90	0.594
679.09	0.591
679.28	0.588
679.47	0.588
679.66	0.587
679.84	0.584
680.03	0.581
680.22	0.580
680.41	0.581
680.60	0.578
680.78	0.577
680.97	0.580
681.16	0.580
681.35	0.579
681.53	0.579
681.72	0.579
681.91	0.581
682.10	0.580
682.29	0.583
682.47	0.580
682.66	0.580
682.85	0.579
683.04	0.576
683.22	0.576
683.41	0.577
683.60	0.576
683.79	0.577
683.97	0.575
684.16	0.574
684.35	0.570
684.54	0.572
684.72	0.572
684.91	0.573
685.10	0.571
685.29	0.573
685.47	0.570
685.66	0.570
685.85	0.567
686.04	0.566
686.22	0.569
686.41	0.571
686.60	0.568
686.79	0.570
686.97	0.571
687.16	0.572
687.35	0.570
687.54	0.574
687.72	0.577
687.91	0.577
688.10	0.578
688.29	0.578
688.47	0.576
688.66	0.576
688.85	0.572
689.03	0.570
689.22	0.575
689.41	0.575
689.60	0.570
689.78	0.568
689.97	0.569
690.16	0.567
690.34	0.563
690.53	0.563
690.72	0.564
690.91	0.562
691.09	0.560
691.28	0.554
691.47	0.552
691.65	0.551
691.84	0.548
692.03	0.547
692.21	0.545
692.40	0.544
692.59	0.541
692.77	0.540
692.96	0.541
693.15	0.542
693.34	0.539
693.52	0.540
693.71	0.540
693.90	0.542
694.08	0.542
694.27	0.543
694.46	0.552
694.64	0.553
694.83	0.553
695.02	0.552
695.20	0.552
695.39	0.552
695.58	0.551
695.76	0.551
695.95	0.550
696.14	0.549
696.32	0.547
696.51	0.538
696.70	0.537
696.88	0.538
697.07	0.537
697.26	0.538
697.44	0.539
697.63	0.538
697.81	0.536
698.00	0.535
698.19	0.535
698.37	0.535
698.56	0.534
698.75	0.534
698.93	0.533
699.12	0.533
699.31	0.532
699.49	0.531
699.68	0.532
699.87	0.534
700.05	0.535
700.24	0.534
700.42	0.536
700.61	0.535
700.80	0.534
700.98	0.534
701.17	0.535
701.36	0.534
701.54	0.534
701.73	0.535
701.91	0.533
702.10	0.532
702.29	0.530
702.47	0.529
702.66	0.531
702.84	0.532
703.03	0.530
703.22	0.532
703.40	0.531
703.59	0.533
703.77	0.533
703.96	0.533
704.15	0.533
704.33	0.533
704.52	0.532
704.70	0.531
704.89	0.531
705.08	0.530
705.26	0.526
705.45	0.526
705.63	0.525
705.82	0.522
706.00	0.520
706.19	0.520
706.38	0.520
706.56	0.520
706.75	0.518
706.93	0.517
707.12	0.518
707.30	0.518
707.49	0.516
707.68	0.514
707.86	0.513
708.05	0.514
708.23	0.510
708.42	0.511
708.60	0.514
708.79	0.513
708.98	0.511
709.16	0.510
709.35	0.512
709.53	0.516
709.72	0.515
709.90	0.517
710.09	0.519
710.27	0.521
710.46	0.525
710.64	0.524
710.83	0.525
711.02	0.527
711.20	0.527
711.39	0.525
711.57	0.523
711.76	0.523
711.94	0.522
712.13	0.523
712.31	0.523
712.50	0.518
712.68	0.516
712.87	0.517
713.05	0.517
713.24	0.518
713.42	0.517
713.61	0.518
713.79	0.519
713.98	0.520
714.16	0.519
714.35	0.519
714.54	0.520
714.72	0.519
714.91	0.517
715.09	0.523
715.28	0.525
715.46	0.525
715.65	0.522
715.83	0.522
716.02	0.524
716.20	0.520
716.39	0.520
716.57	0.521
716.76	0.523
716.94	0.523
717.12	0.515
717.31	0.516
717.49	0.518
717.68	0.520
717.86	0.519
718.05	0.521
718.23	0.524
718.42	0.526
718.60	0.527
718.79	0.535
718.97	0.538
719.16	0.538
719.34	0.535
719.53	0.535
719.71	0.535
719.90	0.537
720.08	0.534
720.27	0.534
720.45	0.533
720.63	0.532
720.82	0.526
721.00	0.528
721.19	0.531
721.37	0.531
721.56	0.531
721.74	0.534
721.93	0.542
722.11	0.549
722.30	0.549
722.48	0.553
722.66	0.554
722.85	0.555
723.03	0.555
723.22	0.553
723.40	0.557
723.59	0.556
723.77	0.560
723.95	0.554
724.14	0.555
724.32	0.556
724.51	0.556
724.69	0.557
724.88	0.557
725.06	0.556
725.24	0.557
725.43	0.559
725.61	0.561
725.80	0.555
725.98	0.553
726.16	0.550
726.35	0.556
726.53	0.554
726.72	0.554
726.90	0.564
727.09	0.565
727.27	0.571
727.45	0.568
727.64	0.578
727.82	0.585
728.01	0.591
728.19	0.589
728.37	0.594
728.56	0.599
728.74	0.604
728.92	0.592
729.11	0.593
729.29	0.592
729.48	0.593
729.66	0.583
729.84	0.582
730.03	0.584
730.21	0.586
730.40	0.576
730.58	0.576
730.76	0.577
730.95	0.580
731.13	0.579
731.31	0.593
731.50	0.602
731.68	0.605
731.86	0.602
732.05	0.615
732.23	0.617
732.42	0.622
732.60	0.626
732.78	0.629
732.97	0.646
733.15	0.653
733.33	0.640
733.52	0.647
733.70	0.657
733.88	0.668
734.07	0.654
734.25	0.680
734.43	0.686
734.62	0.689
734.80	0.685
734.98	0.675
735.17	0.682
735.35	0.688
735.53	0.676
735.72	0.677
735.90	0.695
736.08	0.713
736.27	0.692
736.45	0.699
736.63	0.710
736.82	0.720
737.00	0.722
737.18	0.731
737.37	0.757
737.55	0.778
737.73	0.777
737.92	0.780
738.10	0.776
738.28	0.796
738.46	0.789
738.65	0.801
738.83	0.819
739.01	0.868
739.20	0.860
739.38	0.847
739.56	0.836
739.75	0.841
739.93	0.810
740.11	0.832
740.29	0.829
740.48	0.835
740.66	0.813
740.84	0.809
741.03	0.773
741.21	0.783
741.39	0.768
741.57	0.783
741.76	0.794
741.94	0.795
742.12	0.764
742.31	0.768
742.49	0.784
742.67	0.807
742.85	0.819
743.04	0.825
743.22	0.830
743.40	0.876
743.58	0.861
743.77	0.875
743.95	0.907
744.13	0.956
744.31	0.938
744.50	0.933
744.68	0.927
744.86	0.907
745.04	0.919
745.23	0.982
745.41	0.964
745.59	0.966
745.77	0.934
745.96	0.925
746.14	0.926
746.32	0.929
746.50	0.920
746.69	0.905
746.87	0.907
747.05	0.893
747.23	0.825
747.42	0.813
747.60	0.837
747.78	0.841
747.96	0.868
748.14	0.834
748.33	0.859
748.51	0.853
748.69	0.845
748.87	0.870
749.06	0.867
749.24	0.867
749.42	0.854
749.60	0.840
749.78	0.847
749.97	0.807
750.15	0.798
750.33	0.798
750.51	0.822
750.69	0.831
750.88	0.834
751.06	0.844
751.24	0.867
751.42	0.860
751.60	0.855
751.79	0.921
751.97	0.959
752.15	0.961
752.33	0.929
752.51	0.985
752.69	0.996
752.88	0.975
753.06	1.019
753.24	0.998
753.42	1.026
753.60	1.173
753.78	1.044
753.97	1.066
754.15	1.085
754.33	1.117
754.51	1.003
754.69	0.987
754.87	1.007
755.06	0.943
755.24	0.946
755.42	0.952
755.60	0.857
755.78	0.869
755.96	0.817
756.15	0.814
756.33	0.817
756.51	0.838
756.69	0.828
756.87	0.796
757.05	0.812
757.23	0.797
757.42	0.770
757.60	0.767
757.78	0.757
757.96	0.756
758.14	0.745
758.32	0.729
758.50	0.738
758.69	0.736
758.87	0.730
759.05	0.731
759.23	0.737
759.41	0.736
759.59	0.733
759.77	0.749
759.95	0.773
760.13	0.814
760.32	0.819
760.50	0.812
760.68	0.835
760.86	0.837
761.04	0.814
761.22	0.819
761.40	0.862
761.58	0.863
761.76	0.840
761.95	0.824
762.13	0.781
762.31	0.779
762.49	0.752
762.67	0.765
762.85	0.775
763.03	0.771
763.21	0.756
763.39	0.739
763.57	0.742
763.75	0.738
763.94	0.725
764.12	0.730
764.30	0.751
764.48	0.758
764.66	0.728
764.84	0.725
765.02	0.760
765.20	0.765
765.38	0.746
765.56	0.752
765.74	0.787
765.92	0.786
766.10	0.790
766.28	0.784
766.46	0.808
766.65	0.808
766.83	0.798
767.01	0.784
767.19	0.790
767.37	0.791
767.55	0.779
767.73	0.761
767.91	0.764
768.09	0.756
768.27	0.746
768.45	0.734
768.63	0.738
768.81	0.741
768.99	0.718
769.17	0.739
769.35	0.752
769.53	0.747
769.71	0.731
769.89	0.737
770.07	0.738
770.25	0.723
770.43	0.705
770.61	0.726
770.79	0.732
770.97	0.741
771.15	0.716
771.33	0.716
771.51	0.722
771.69	0.728
771.87	0.739
772.05	0.743
772.24	0.747
772.42	0.756
772.60	0.736
772.78	0.790
772.96	0.814
773.14	0.807
773.32	0.789
773.49	0.791
773.67	0.793
773.85	0.773
774.03	0.766
774.21	0.798
774.39	0.804
774.57	0.825
774.75	0.759
774.93	0.752
775.11	0.771
775.29	0.777
775.47	0.780
775.65	0.791
775.83	0.806
776.01	0.826
776.19	0.783
776.37	0.786
776.55	0.783
776.73	0.783
776.91	0.781
777.09	0.767
777.27	0.766
777.45	0.757
777.63	0.734
777.81	0.731
777.99	0.717
778.17	0.716
778.35	0.697
778.53	0.687
778.71	0.690
778.89	0.679
779.07	0.668
779.24	0.672
779.42	0.671
779.60	0.689
779.78	0.683
779.96	0.690
780.14	0.697
780.32	0.716
780.50	0.703
780.68	0.699
780.86	0.692
781.04	0.710
781.22	0.716
781.40	0.726
781.58	0.717
781.75	0.710
781.93	0.694
782.11	0.694
782.29	0.680
782.47	0.678
782.65	0.670
782.83	0.694
783.01	0.685
783.19	0.678
783.37	0.665
783.55	0.665
783.72	0.681
783.90	0.691
784.08	0.685
784.26	0.697
784.44	0.715
784.62	0.717
784.80	0.688
784.98	0.695
785.16	0.699
785.33	0.715
785.51	0.705
785.69	0.693
785.87	0.693
786.05	0.704
786.23	0.699
786.41	0.697
786.59	0.702
786.77	0.703
786.94	0.694
787.12	0.696
787.30	0.697
787.48	0.694
787.66	0.684
787.84	0.684
788.02	0.674
788.19	0.673
788.37	0.662
788.55	0.665
788.73	0.665
788.91	0.657
789.09	0.644
789.27	0.632
789.44	0.643
789.62	0.649
789.80	0.658
789.98	0.681
790.16	0.667
790.34	0.663
790.51	0.651
790.69	0.669
790.87	0.676
791.05	0.672
791.23	0.666
791.41	0.667
791.58	0.671
791.76	0.651
791.94	0.624
792.12	0.633
792.30	0.634
792.48	0.633
792.65	0.627
792.83	0.633
793.01	0.639
793.19	0.638
793.37	0.625
793.54	0.623
793.72	0.632
793.90	0.632
794.08	0.622
794.26	0.623
794.43	0.632
794.61	0.617
794.79	0.606
794.97	0.605
795.15	0.609
795.32	0.612
795.50	0.602
795.68	0.597
795.86	0.599
796.04	0.600
796.21	0.595
796.39	0.592
796.57	0.604
796.75	0.611
796.92	0.612
797.10	0.618
797.28	0.619
797.46	0.621
797.64	0.622
797.81	0.630
797.99	0.633
798.17	0.637
798.35	0.633
798.52	0.635
798.70	0.632
798.88	0.642
799.06	0.641
799.23	0.646
799.41	0.654
799.59	0.650
799.77	0.639
799.94	0.646
800.12	0.655
800.30	0.671
800.48	0.670
800.65	0.669
800.83	0.658
801.01	0.650
801.19	0.650
801.36	0.645
801.54	0.646
801.72	0.654
801.90	0.642
802.07	0.637
802.25	0.623
802.43	0.609
802.60	0.606
802.78	0.611
802.96	0.615
803.14	0.609
803.31	0.609
803.49	0.609
803.67	0.606
803.84	0.611
804.02	0.604
804.20	0.606
804.38	0.612
804.55	0.610
804.73	0.599
804.91	0.599
805.08	0.609
805.26	0.604
805.44	0.665
805.61	0.669
805.79	0.666
805.97	0.666
806.15	0.660
806.32	0.655
806.50	0.661
806.68	0.661
806.85	0.654
807.03	0.647
807.21	0.661
807.38	0.598
807.56	0.587
807.74	0.597
807.91	0.603
808.09	0.605
808.27	0.622
808.44	0.647
808.62	0.653
808.80	0.655
808.97	0.649
809.15	0.646
809.33	0.661
809.50	0.670
809.68	0.659
809.86	0.666
810.03	0.694
810.21	0.674
810.39	0.656
810.56	0.663
810.74	0.685
810.91	0.753
811.09	0.741
811.27	0.761
811.44	0.766
811.62	0.765
811.80	0.751
811.97	0.724
812.15	0.724
812.33	0.722
812.50	0.709
812.68	0.697
812.85	0.644
813.03	0.646
813.21	0.615
813.38	0.610
813.56	0.612
813.74	0.621
813.91	0.629
814.09	0.656
814.26	0.649
814.44	0.652
814.62	0.642
814.79	0.646
814.97	0.650
815.14	0.656
815.32	0.656
815.50	0.673
815.67	0.674
815.85	0.664
816.02	0.655
816.20	0.660
816.38	0.671
816.55	0.677
816.73	0.677
816.90	0.689
817.08	0.713
817.26	0.722
817.43	0.703
817.61	0.724
817.78	0.743
817.96	0.725
818.13	0.717
818.31	0.718
818.49	0.728
818.66	0.720
818.84	0.707
819.01	0.686
819.19	0.690
819.36	0.692
819.54	0.666
819.71	0.705
819.89	0.717
820.07	0.727
820.24	0.725
820.42	0.723
820.59	0.740
820.77	0.761
820.94	0.757
821.12	0.773
821.29	0.788
821.47	0.791
821.64	0.731
821.82	0.740
822.00	0.737
822.17	0.735
822.35	0.730
822.52	0.731
822.70	0.721
822.87	0.728
823.05	0.712
823.22	0.719
823.40	0.741
823.57	0.761
823.75	0.747
823.92	0.772
824.10	0.784
824.27	0.823
824.45	0.811
824.62	0.862
824.80	0.879
824.97	0.890
825.15	0.883
825.32	0.894
825.50	0.893
825.67	0.900
825.85	0.879
826.02	0.894
826.20	0.907
826.37	1.019
826.55	0.948
826.72	1.105
826.90	1.161
827.07	1.207
827.25	1.163
827.42	1.292
827.60	1.399
827.77	1.519
827.95	1.514
828.12	1.595
828.30	1.327
828.47	1.442
828.65	1.144
828.82	1.186
829.00	1.231
829.17	1.320
829.34	1.331
829.52	1.388
829.69	-0.000
829.87	-0.000
830.04	-0.000
830.22	-0.000
830.39	-0.000
830.57	-0.000
830.74	-0.000
830.92	-0.000
831.09	-0.000
831.26	-0.000
831.44	-0.000
831.61	-0.000
831.79	-0.000
831.96	-0.000
832.14	-0.000
832.31	-0.000
832.49	-0.000
832.66	-0.000
832.83	-0.000
833.01	-0.000
833.18	-0.000
833.36	-0.000
833.53	-0.000
833.70	-0.000
833.88	-0.000
834.05	-0.000
834.23	-0.000
834.40	-0.000
834.58	-0.000
834.75	-0.000
834.92	-0.000
835.10	-0.000
835.27	-0.000
835.45	-0.000
835.62	-0.000
835.79	-0.000
835.97	-0.000
836.14	-0.000
836.32	-0.000
836.49	-0.000
836.66	-0.000
836.84	-0.000
837.01	-0.000
837.18	-0.000
837.36	-0.000
837.53	-0.000
837.71	-0.000
837.88	-0.000
838.05	-0.000
838.23	-0.000
838.40	-0.000
838.58	-0.000
838.75	-0.000
838.92	-0.000
839.10	-0.000
839.27	-0.000
839.44	-0.000
839.62	-0.000
839.79	-0.000
839.96	-0.000
840.14	-0.000
840.31	-0.000
840.48	-0.000
840.66	-0.000
840.83	-0.000
841.01	-0.000
841.18	-0.000
841.35	-0.000
841.53	-0.000
841.70	-0.000
841.87	-0.000
842.05	-0.000
842.22	-0.000
842.39	-0.000
842.57	-0.000
842.74	-0.000
842.91	-0.000
843.09	-0.000
843.26	-0.000
843.43	-0.000
843.60	-0.000
843.78	-0.000
843.95	-0.000
844.12	-0.000
844.30	-0.000
844.47	-0.000
844.64	-0.000
844.82	-0.000
844.99	-0.000
845.16	-0.000
845.34	-0.000
845.51	-0.000
845.68	-0.000
845.85	-0.000
846.03	-0.000
846.20	-0.000
846.37	-0.000
846.55	-0.000
846.72	-0.000
846.89	-0.000
847.06	-0.000
847.24	-0.000
847.41	-0.000
847.58	-0.000
847.76	-0.000
847.93	-0.000
848.10	-0.000
848.27	-0.000
848.45	-0.000
848.62	-0.000
848.79	-0.000
848.97	-0.000
849.14	-0.000
849.31	-0.000
849.48	-0.000
849.66	-0.000
849.83	-0.000
850.00	-0.000
850.17	-0.000
850.35	-0.000
850.52	-0.000
850.69	-0.000
850.86	-0.000
851.04	-0.000
851.21	-0.000
851.38	-0.000
851.55	-0.000
851.72	-0.000
851.90	-0.000
852.07	-0.000
852.24	-0.000
852.41	-0.000
852.59	-0.000
852.76	-0.000
852.93	-0.000
853.10	-0.000
853.28	-0.000
853.45	-0.000
853.62	-0.000
853.79	-0.000
853.96	-0.000
854.14	-0.000
854.31	-0.000
854.48	-0.000
854.65	-0.000
854.82	-0.000
855.00	-0.000
855.17	-0.000
855.34	-0.000
855.51	-0.000
855.68	-0.000
855.86	-0.000
856.03	-0.000
856.20	-0.000
856.37	-0.000
856.54	-0.000
856.72	-0.000
856.89	-0.000
857.06	-0.000
857.23	-0.000
857.40	-0.000
857.57	-0.000
857.75	-0.000
857.92	-0.000
858.09	-0.000
858.26	-0.000
858.43	-0.000
858.60	-0.000
858.78	-0.000
858.95	-0.000
859.12	-0.000
859.29	-0.000
859.46	-0.000
859.63	-0.000
859.81	-0.000
859.98	-0.000
860.15	-0.000
860.32	-0.000
860.49	-0.000
860.66	-0.000
860.83	-0.000
861.01	-0.000
861.18	-0.000
861.35	-0.000
861.52	-0.000
861.69	-0.000
861.86	-0.000
862.03	-0.000
862.21	-0.000
862.38	-0.000
862.55	-0.000
862.72	-0.000
862.89	-0.000
863.06	-0.000
863.23	-0.000
863.40	-0.000
863.58	-0.000
863.75	-0.000
863.92	-0.000
864.09	-0.000
864.26	-0.000
864.43	-0.000
864.60	-0.000
864.77	-0.000
864.94	-0.000
865.11	-0.000
865.29	-0.000
865.46	-0.000
865.63	-0.000
865.80	-0.000
865.97	-0.000
866.14	-0.000
866.31	-0.000
866.48	-0.000
866.65	-0.000
866.82	-0.000
866.99	-0.000
867.16	-0.000
867.34	-0.000
867.51	-0.000
867.68	-0.000
867.85	-0.000
868.02	-0.000
868.19	-0.000
868.36	-0.000
868.53	-0.000
868.70	-0.000
868.87	-0.000
869.04	-0.000
869.21	-0.000
869.38	-0.000
869.55	-0.000
869.72	-0.000
869.89	-0.000
870.06	-0.000
870.24	-0.000
870.41	-0.000
870.58	-0.000
870.75	-0.000
870.92	-0.000
871.09	-0.000
871.26	-0.000
871.43	-0.000
871.60	-0.000
871.77	-0.000
871.94	-0.000
872.11	-0.000
872.28	-0.000
872.45	-0.000
872.62	-0.000
872.79	-0.000
872.96	-0.000
873.13	-0.000
873.30	-0.000
873.47	-0.000
873.64	-0.000
873.81	-0.000
873.98	-0.000
874.15	-0.000
874.32	-0.000
874.49	-0.000
874.66	-0.000
874.83	-0.000
875.00	-0.000
875.17	-0.000
875.34	-0.000
875.51	-0.000
875.68	-0.000
875.85	-0.000
876.02	-0.000
876.19	-0.000
876.36	-0.000
876.53	-0.000
876.70	-0.000
876.87	-0.000
877.04	-0.000
877.21	-0.000
877.38	-0.000
877.55	-0.000
877.72	-0.000
877.89	-0.000
878.06	-0.000
878.23	-0.000
878.39	-0.000
878.56	-0.000
878.73	-0.000
878.90	-0.000
879.07	-0.000
879.24	-0.000
879.41	-0.000
879.58	-0.000
879.75	-0.000
879.92	-0.000
880.09	-0.000
880.26	-0.000
880.43	-0.000
880.60	-0.000
880.77	-0.000
880.94	-0.000
881.11	-0.000
881.27	-0.000
881.44	-0.000
881.61	-0.000
881.78	-0.000
881.95	-0.000
882.12	-0.000
882.29	-0.000
882.46	-0.000
882.63	-0.000
882.80	-0.000
882.97	-0.000
883.14	-0.000
883.30	-0.000
883.47	-0.000
883.64	-0.000
883.81	-0.000
883.98	-0.000
884.15	-0.000
884.32	-0.000
884.49	-0.000
884.66	-0.000
884.82	-0.000
884.99	-0.000
885.16	-0.000
885.33	-0.000
885.50	-0.000
885.67	-0.000
885.84	-0.000
886.01	-0.000
886.17	-0.000
886.34	-0.000
886.51	-0.000
886.68	-0.000
886.85	-0.000
887.02	-0.000
887.19	-0.000
887.36	-0.000
887.52	-0.000
887.69	-0.000
887.86	-0.000
888.03	-0.000
888.20	-0.000
888.37	-0.000
888.54	-0.000
888.70	-0.000
888.87	-0.000
889.04	-0.000
889.21	-0.000
889.38	-0.000
889.55	-0.000
889.71	-0.000
889.88	-0.000
890.05	-0.000
890.22	-0.000
890.39	-0.000
>>>>>End Processed Spectral Data<<<<<
