SpectraSuite Data File
++++++++++++++++++++++++++++++++++++
Date: Fri Jun 19 11:46:24 CEST 2015
User: introlabs
Dark Spectrum Present: Yes
Reference Spectrum Present: Yes
Number of Sampled Component Spectra: 1
Spectrometers: USB4H08886
Integration Time (usec): 5245692 (USB4H08886)
Spectra Averaged: 5 (USB4H08886)
Boxcar Smoothing: 5 (USB4H08886)
Correct for Electrical Dark: Yes (USB4H08886)
Strobe/Lamp Enabled: No (USB4H08886)
Correct for Detector Non-linearity: Yes (USB4H08886)
Correct for Stray Light: Yes (USB4H08886)
Number of Pixels in Processed Spectrum: 3648
>>>>>Begin Processed Spectral Data<<<<<
178.14	-0.000
178.36	-0.000
178.57	-0.000
178.79	-0.000
179.01	-0.000
179.22	-0.000
179.44	-0.000
179.65	-0.000
179.87	-0.000
180.08	-0.000
180.30	-0.000
180.52	-0.000
180.73	-0.000
180.95	-0.000
181.16	-0.000
181.38	-0.000
181.59	-0.000
181.81	-0.000
182.03	-0.000
182.24	-0.000
182.46	-0.000
182.67	-0.000
182.89	-0.000
183.10	-0.000
183.32	-0.000
183.54	-0.000
183.75	-0.000
183.97	-0.000
184.18	-0.000
184.40	-0.000
184.61	-0.000
184.83	-0.000
185.04	-0.000
185.26	-0.000
185.48	-0.000
185.69	-0.000
185.91	-0.000
186.12	-0.000
186.34	-0.000
186.55	-0.000
186.77	-0.000
186.98	-0.000
187.20	-0.000
187.42	-0.000
187.63	-0.000
187.85	-0.000
188.06	-0.000
188.28	-0.000
188.49	-0.000
188.71	-0.000
188.92	-0.000
189.14	-0.000
189.36	-0.000
189.57	-0.000
189.79	-0.000
190.00	-0.000
190.22	-0.000
190.43	-0.000
190.65	-0.000
190.86	-0.000
191.08	-0.000
191.29	-0.000
191.51	-0.000
191.72	-0.000
191.94	-0.000
192.16	-0.000
192.37	-0.000
192.59	-0.000
192.80	-0.000
193.02	-0.000
193.23	-0.000
193.45	-0.000
193.66	-0.000
193.88	-0.000
194.09	-0.000
194.31	-0.000
194.52	-0.000
194.74	-0.000
194.95	-0.000
195.17	-0.000
195.38	-0.000
195.60	-0.000
195.81	-0.000
196.03	-0.000
196.25	-0.000
196.46	-0.000
196.68	-0.000
196.89	-0.000
197.11	-0.000
197.32	-0.000
197.54	-0.000
197.75	-0.000
197.97	-0.000
198.18	-0.000
198.40	-0.000
198.61	-0.000
198.83	-0.000
199.04	-0.000
199.26	-0.000
199.47	-0.000
199.69	-0.000
199.90	-0.000
200.12	-0.000
200.33	-0.000
200.55	-0.000
200.76	-0.000
200.98	-0.000
201.19	-0.000
201.41	-0.000
201.62	-0.000
201.84	-0.000
202.05	-0.000
202.27	-0.000
202.48	-0.000
202.70	-0.000
202.91	-0.000
203.13	-0.000
203.34	-0.000
203.56	-0.000
203.77	-0.000
203.99	-0.000
204.20	-0.000
204.42	-0.000
204.63	-0.000
204.85	-0.000
205.06	-0.000
205.28	-0.000
205.49	-0.000
205.71	-0.000
205.92	-0.000
206.14	-0.000
206.35	-0.000
206.56	-0.000
206.78	-0.000
206.99	-0.000
207.21	-0.000
207.42	-0.000
207.64	-0.000
207.85	-0.000
208.07	-0.000
208.28	-0.000
208.50	-0.000
208.71	-0.000
208.93	-0.000
209.14	-0.000
209.36	-0.000
209.57	-0.000
209.79	-0.000
210.00	-0.000
210.22	-0.000
210.43	-0.000
210.64	-0.000
210.86	-0.000
211.07	-0.000
211.29	-0.000
211.50	-0.000
211.72	-0.000
211.93	-0.000
212.15	-0.000
212.36	-0.000
212.58	-0.000
212.79	-0.000
213.01	-0.000
213.22	-0.000
213.43	-0.000
213.65	-0.000
213.86	-0.000
214.08	-0.000
214.29	-0.000
214.51	-0.000
214.72	-0.000
214.94	-0.000
215.15	-0.000
215.36	-0.000
215.58	-0.000
215.79	-0.000
216.01	-0.000
216.22	-0.000
216.44	-0.000
216.65	-0.000
216.87	-0.000
217.08	-0.000
217.29	-0.000
217.51	-0.000
217.72	-0.000
217.94	-0.000
218.15	-0.000
218.37	-0.000
218.58	-0.000
218.80	-0.000
219.01	-0.000
219.22	-0.000
219.44	-0.000
219.65	-0.000
219.87	-0.000
220.08	-0.000
220.30	-0.000
220.51	-0.000
220.72	-0.000
220.94	-0.000
221.15	-0.000
221.37	-0.000
221.58	-0.000
221.79	-0.000
222.01	-0.000
222.22	-0.000
222.44	-0.000
222.65	-0.000
222.87	-0.000
223.08	-0.000
223.29	-0.000
223.51	-0.000
223.72	-0.000
223.94	-0.000
224.15	-0.000
224.36	-0.000
224.58	-0.000
224.79	-0.000
225.01	-0.000
225.22	-0.000
225.44	-0.000
225.65	-0.000
225.86	-0.000
226.08	-0.000
226.29	-0.000
226.51	-0.000
226.72	-0.000
226.93	-0.000
227.15	-0.000
227.36	-0.000
227.58	-0.000
227.79	-0.000
228.00	-0.000
228.22	-0.000
228.43	-0.000
228.65	-0.000
228.86	-0.000
229.07	-0.000
229.29	-0.000
229.50	-0.000
229.72	-0.000
229.93	-0.000
230.14	-0.000
230.36	-0.000
230.57	-0.000
230.78	-0.000
231.00	-0.000
231.21	-0.000
231.43	-0.000
231.64	-0.000
231.85	-0.000
232.07	-0.000
232.28	-0.000
232.50	-0.000
232.71	-0.000
232.92	-0.000
233.14	-0.000
233.35	-0.000
233.56	-0.000
233.78	-0.000
233.99	-0.000
234.21	-0.000
234.42	-0.000
234.63	-0.000
234.85	-0.000
235.06	-0.000
235.27	-0.000
235.49	-0.000
235.70	-0.000
235.91	-0.000
236.13	-0.000
236.34	-0.000
236.56	-0.000
236.77	-0.000
236.98	-0.000
237.20	-0.000
237.41	-0.000
237.62	-0.000
237.84	-0.000
238.05	-0.000
238.26	-0.000
238.48	-0.000
238.69	-0.000
238.91	-0.000
239.12	-0.000
239.33	-0.000
239.55	-0.000
239.76	-0.000
239.97	-0.000
240.19	-0.000
240.40	-0.000
240.61	-0.000
240.83	-0.000
241.04	-0.000
241.25	-0.000
241.47	-0.000
241.68	-0.000
241.89	-0.000
242.11	-0.000
242.32	-0.000
242.53	-0.000
242.75	-0.000
242.96	-0.000
243.17	-0.000
243.39	-0.000
243.60	-0.000
243.81	-0.000
244.03	-0.000
244.24	-0.000
244.45	-0.000
244.67	-0.000
244.88	-0.000
245.09	-0.000
245.31	-0.000
245.52	-0.000
245.73	-0.000
245.95	-0.000
246.16	-0.000
246.37	-0.000
246.59	-0.000
246.80	-0.000
247.01	-0.000
247.23	-0.000
247.44	-0.000
247.65	-0.000
247.87	-0.000
248.08	-0.000
248.29	-0.000
248.51	-0.000
248.72	-0.000
248.93	-0.000
249.15	-0.000
249.36	-0.000
249.57	-0.000
249.78	-0.000
250.00	-0.000
250.21	-0.000
250.42	-0.000
250.64	-0.000
250.85	-0.000
251.06	-0.000
251.28	-0.000
251.49	-0.000
251.70	-0.000
251.92	-0.000
252.13	-0.000
252.34	-0.000
252.55	-0.000
252.77	-0.000
252.98	-0.000
253.19	-0.000
253.41	-0.000
253.62	-0.000
253.83	-0.000
254.05	-0.000
254.26	-0.000
254.47	-0.000
254.68	-0.000
254.90	-0.000
255.11	-0.000
255.32	-0.000
255.54	-0.000
255.75	-0.000
255.96	-0.000
256.17	-0.000
256.39	-0.000
256.60	-0.000
256.81	-0.000
257.03	-0.000
257.24	-0.000
257.45	-0.000
257.66	-0.000
257.88	-0.000
258.09	-0.000
258.30	-0.000
258.51	-0.000
258.73	-0.000
258.94	-0.000
259.15	-0.000
259.37	-0.000
259.58	-0.000
259.79	-0.000
260.00	-0.000
260.22	-0.000
260.43	-0.000
260.64	-0.000
260.85	-0.000
261.07	-0.000
261.28	-0.000
261.49	-0.000
261.71	-0.000
261.92	-0.000
262.13	-0.000
262.34	-0.000
262.56	-0.000
262.77	-0.000
262.98	-0.000
263.19	-0.000
263.41	-0.000
263.62	-0.000
263.83	-0.000
264.04	-0.000
264.26	-0.000
264.47	-0.000
264.68	-0.000
264.89	-0.000
265.11	-0.000
265.32	-0.000
265.53	-0.000
265.74	-0.000
265.96	-0.000
266.17	-0.000
266.38	-0.000
266.59	-0.000
266.81	-0.000
267.02	-0.000
267.23	-0.000
267.44	-0.000
267.65	-0.000
267.87	-0.000
268.08	-0.000
268.29	-0.000
268.50	2.108
268.72	1.940
268.93	1.308
269.14	1.241
269.35	1.401
269.57	1.352
269.78	1.159
269.99	1.143
270.20	1.058
270.41	1.038
270.63	1.104
270.84	1.090
271.05	1.037
271.26	1.062
271.48	1.118
271.69	1.179
271.90	1.172
272.11	1.193
272.32	1.445
272.54	1.354
272.75	1.308
272.96	1.327
273.17	1.137
273.39	1.217
273.60	1.197
273.81	1.300
274.02	1.266
274.23	1.372
274.45	1.559
274.66	1.250
274.87	1.302
275.08	1.200
275.29	1.367
275.51	1.542
275.72	1.398
275.93	1.370
276.14	1.085
276.35	1.100
276.57	1.055
276.78	1.084
276.99	1.111
277.20	1.169
277.41	1.166
277.63	1.000
277.84	0.968
278.05	1.009
278.26	0.986
278.47	1.058
278.69	0.931
278.90	0.912
279.11	0.827
279.32	0.809
279.53	0.750
279.74	0.799
279.96	0.805
280.17	0.791
280.38	0.809
280.59	0.826
280.80	0.838
281.02	0.883
281.23	0.883
281.44	0.913
281.65	0.904
281.86	0.976
282.07	0.918
282.29	0.952
282.50	0.994
282.71	0.924
282.92	0.880
283.13	0.841
283.35	0.827
283.56	0.809
283.77	0.825
283.98	0.826
284.19	0.781
284.40	0.790
284.62	0.753
284.83	0.727
285.04	0.717
285.25	0.713
285.46	0.698
285.67	0.682
285.88	0.694
286.10	0.686
286.31	0.703
286.52	0.724
286.73	0.720
286.94	0.719
287.15	0.709
287.37	0.727
287.58	0.730
287.79	0.728
288.00	0.743
288.21	0.733
288.42	0.706
288.63	0.690
288.85	0.664
289.06	0.641
289.27	0.643
289.48	0.640
289.69	0.623
289.90	0.618
290.11	0.620
290.33	0.602
290.54	0.595
290.75	0.607
290.96	0.599
291.17	0.605
291.38	0.610
291.59	0.602
291.81	0.611
292.02	0.608
292.23	0.611
292.44	0.606
292.65	0.610
292.86	0.604
293.07	0.594
293.28	0.598
293.50	0.588
293.71	0.588
293.92	0.590
294.13	0.580
294.34	0.581
294.55	0.576
294.76	0.578
294.97	0.579
295.19	0.579
295.40	0.574
295.61	0.573
295.82	0.583
296.03	0.583
296.24	0.580
296.45	0.585
296.66	0.592
296.87	0.594
297.09	0.595
297.30	0.590
297.51	0.592
297.72	0.592
297.93	0.586
298.14	0.580
298.35	0.576
298.56	0.583
298.77	0.577
298.99	0.574
299.20	0.572
299.41	0.571
299.62	0.571
299.83	0.571
300.04	0.569
300.25	0.573
300.46	0.572
300.67	0.574
300.88	0.568
301.10	0.568
301.31	0.561
301.52	0.562
301.73	0.561
301.94	0.561
302.15	0.561
302.36	0.566
302.57	0.564
302.78	0.561
302.99	0.562
303.20	0.561
303.41	0.561
303.63	0.568
303.84	0.571
304.05	0.569
304.26	0.570
304.47	0.567
304.68	0.563
304.89	0.563
305.10	0.567
305.31	0.563
305.52	0.563
305.73	0.564
305.94	0.560
306.15	0.557
306.37	0.555
306.58	0.552
306.79	0.553
307.00	0.554
307.21	0.554
307.42	0.551
307.63	0.551
307.84	0.557
308.05	0.553
308.26	0.552
308.47	0.554
308.68	0.553
308.89	0.553
309.10	0.553
309.31	0.554
309.52	0.551
309.73	0.550
309.95	0.552
310.16	0.546
310.37	0.547
310.58	0.545
310.79	0.542
311.00	0.541
311.21	0.542
311.42	0.545
311.63	0.543
311.84	0.541
312.05	0.540
312.26	0.535
312.47	0.537
312.68	0.536
312.89	0.540
313.10	0.543
313.31	0.545
313.52	0.542
313.73	0.538
313.94	0.539
314.15	0.543
314.36	0.542
314.57	0.544
314.78	0.546
314.99	0.546
315.21	0.541
315.42	0.538
315.63	0.536
315.84	0.538
316.05	0.538
316.26	0.535
316.47	0.531
316.68	0.535
316.89	0.535
317.10	0.532
317.31	0.532
317.52	0.534
317.73	0.536
317.94	0.536
318.15	0.540
318.36	0.542
318.57	0.545
318.78	0.548
318.99	0.543
319.20	0.545
319.41	0.546
319.62	0.546
319.83	0.548
320.04	0.547
320.25	0.546
320.46	0.541
320.67	0.539
320.88	0.538
321.09	0.537
321.30	0.538
321.51	0.535
321.72	0.535
321.93	0.534
322.14	0.530
322.35	0.528
322.56	0.530
322.77	0.528
322.98	0.528
323.19	0.525
323.40	0.524
323.61	0.524
323.82	0.523
324.03	0.523
324.24	0.525
324.45	0.525
324.66	0.526
324.87	0.526
325.08	0.525
325.29	0.527
325.50	0.528
325.71	0.529
325.92	0.528
326.13	0.528
326.34	0.529
326.55	0.529
326.76	0.530
326.97	0.530
327.18	0.532
327.39	0.531
327.60	0.528
327.80	0.526
328.01	0.525
328.22	0.528
328.43	0.527
328.64	0.525
328.85	0.523
329.06	0.521
329.27	0.522
329.48	0.520
329.69	0.520
329.90	0.520
330.11	0.523
330.32	0.522
330.53	0.521
330.74	0.520
330.95	0.520
331.16	0.520
331.37	0.521
331.58	0.519
331.79	0.519
332.00	0.518
332.21	0.519
332.42	0.518
332.63	0.520
332.83	0.522
333.04	0.525
333.25	0.522
333.46	0.524
333.67	0.524
333.88	0.524
334.09	0.522
334.30	0.526
334.51	0.525
334.72	0.526
334.93	0.525
335.14	0.523
335.35	0.519
335.56	0.520
335.77	0.516
335.98	0.518
336.18	0.516
336.39	0.516
336.60	0.514
336.81	0.515
337.02	0.513
337.23	0.512
337.44	0.512
337.65	0.513
337.86	0.514
338.07	0.515
338.28	0.513
338.49	0.515
338.70	0.515
338.91	0.514
339.11	0.513
339.32	0.514
339.53	0.516
339.74	0.518
339.95	0.517
340.16	0.519
340.37	0.519
340.58	0.521
340.79	0.517
341.00	0.518
341.21	0.517
341.41	0.515
341.62	0.516
341.83	0.514
342.04	0.512
342.25	0.512
342.46	0.510
342.67	0.510
342.88	0.510
343.09	0.509
343.30	0.508
343.50	0.509
343.71	0.509
343.92	0.508
344.13	0.508
344.34	0.507
344.55	0.507
344.76	0.508
344.97	0.506
345.18	0.507
345.38	0.507
345.59	0.509
345.80	0.509
346.01	0.511
346.22	0.513
346.43	0.514
346.64	0.512
346.85	0.512
347.06	0.511
347.26	0.512
347.47	0.510
347.68	0.513
347.89	0.510
348.10	0.512
348.31	0.509
348.52	0.509
348.73	0.507
348.93	0.509
349.14	0.509
349.35	0.510
349.56	0.510
349.77	0.511
349.98	0.510
350.19	0.511
350.39	0.511
350.60	0.514
350.81	0.511
351.02	0.511
351.23	0.510
351.44	0.510
351.65	0.509
351.86	0.510
352.06	0.508
352.27	0.506
352.48	0.507
352.69	0.507
352.90	0.505
353.11	0.506
353.31	0.506
353.52	0.508
353.73	0.509
353.94	0.507
354.15	0.505
354.36	0.506
354.57	0.507
354.77	0.505
354.98	0.505
355.19	0.505
355.40	0.505
355.61	0.505
355.82	0.503
356.02	0.503
356.23	0.502
356.44	0.504
356.65	0.503
356.86	0.502
357.07	0.503
357.27	0.502
357.48	0.500
357.69	0.501
357.90	0.502
358.11	0.502
358.32	0.501
358.52	0.501
358.73	0.500
358.94	0.499
359.15	0.500
359.36	0.499
359.56	0.500
359.77	0.500
359.98	0.499
360.19	0.499
360.40	0.500
360.61	0.502
360.81	0.502
361.02	0.502
361.23	0.502
361.44	0.503
361.65	0.504
361.85	0.504
362.06	0.505
362.27	0.506
362.48	0.505
362.69	0.503
362.89	0.503
363.10	0.505
363.31	0.505
363.52	0.505
363.73	0.503
363.93	0.504
364.14	0.504
364.35	0.502
364.56	0.504
364.77	0.503
364.97	0.504
365.18	0.502
365.39	0.502
365.60	0.501
365.81	0.501
366.01	0.501
366.22	0.499
366.43	0.499
366.64	0.500
366.84	0.498
367.05	0.497
367.26	0.496
367.47	0.497
367.68	0.496
367.88	0.498
368.09	0.498
368.30	0.497
368.51	0.498
368.71	0.497
368.92	0.495
369.13	0.497
369.34	0.498
369.55	0.498
369.75	0.498
369.96	0.497
370.17	0.497
370.38	0.498
370.58	0.498
370.79	0.497
371.00	0.497
371.21	0.499
371.41	0.497
371.62	0.496
371.83	0.498
372.04	0.496
372.24	0.498
372.45	0.496
372.66	0.495
372.87	0.497
373.07	0.497
373.28	0.498
373.49	0.496
373.70	0.497
373.90	0.497
374.11	0.495
374.32	0.496
374.53	0.496
374.73	0.498
374.94	0.496
375.15	0.495
375.36	0.495
375.56	0.493
375.77	0.493
375.98	0.493
376.19	0.492
376.39	0.495
376.60	0.493
376.81	0.492
377.02	0.491
377.22	0.494
377.43	0.494
377.64	0.495
377.84	0.495
378.05	0.494
378.26	0.493
378.47	0.494
378.67	0.493
378.88	0.494
379.09	0.494
379.30	0.492
379.50	0.491
379.71	0.489
379.92	0.488
380.12	0.488
380.33	0.490
380.54	0.490
380.75	0.489
380.95	0.488
381.16	0.489
381.37	0.489
381.57	0.489
381.78	0.489
381.99	0.489
382.20	0.490
382.40	0.491
382.61	0.490
382.82	0.490
383.02	0.492
383.23	0.492
383.44	0.492
383.64	0.492
383.85	0.491
384.06	0.491
384.27	0.492
384.47	0.493
384.68	0.492
384.89	0.491
385.09	0.492
385.30	0.492
385.51	0.493
385.71	0.491
385.92	0.490
386.13	0.490
386.33	0.491
386.54	0.490
386.75	0.489
386.95	0.489
387.16	0.490
387.37	0.490
387.58	0.489
387.78	0.488
387.99	0.489
388.20	0.488
388.40	0.490
388.61	0.488
388.82	0.490
389.02	0.489
389.23	0.488
389.44	0.488
389.64	0.489
389.85	0.488
390.06	0.488
390.26	0.486
390.47	0.487
390.68	0.488
390.88	0.489
391.09	0.487
391.30	0.487
391.50	0.488
391.71	0.488
391.92	0.486
392.12	0.487
392.33	0.487
392.53	0.487
392.74	0.486
392.95	0.484
393.15	0.483
393.36	0.484
393.57	0.484
393.77	0.483
393.98	0.483
394.19	0.484
394.39	0.483
394.60	0.482
394.81	0.483
395.01	0.484
395.22	0.485
395.43	0.484
395.63	0.484
395.84	0.482
396.04	0.484
396.25	0.482
396.46	0.482
396.66	0.483
396.87	0.483
397.08	0.483
397.28	0.483
397.49	0.483
397.69	0.483
397.90	0.484
398.11	0.484
398.31	0.483
398.52	0.483
398.73	0.483
398.93	0.483
399.14	0.483
399.34	0.483
399.55	0.482
399.76	0.483
399.96	0.481
400.17	0.481
400.37	0.482
400.58	0.482
400.79	0.482
400.99	0.480
401.20	0.480
401.41	0.480
401.61	0.479
401.82	0.478
402.02	0.479
402.23	0.480
402.44	0.480
402.64	0.478
402.85	0.478
403.05	0.479
403.26	0.480
403.47	0.480
403.67	0.480
403.88	0.480
404.08	0.480
404.29	0.479
404.50	0.480
404.70	0.479
404.91	0.480
405.11	0.480
405.32	0.481
405.52	0.481
405.73	0.481
405.94	0.481
406.14	0.480
406.35	0.480
406.55	0.480
406.76	0.479
406.97	0.479
407.17	0.480
407.38	0.480
407.58	0.479
407.79	0.478
407.99	0.478
408.20	0.476
408.41	0.477
408.61	0.478
408.82	0.476
409.02	0.477
409.23	0.477
409.43	0.476
409.64	0.474
409.84	0.475
410.05	0.476
410.26	0.476
410.46	0.477
410.67	0.477
410.87	0.477
411.08	0.476
411.28	0.475
411.49	0.475
411.69	0.475
411.90	0.476
412.11	0.476
412.31	0.476
412.52	0.475
412.72	0.475
412.93	0.475
413.13	0.475
413.34	0.476
413.54	0.477
413.75	0.477
413.95	0.479
414.16	0.479
414.37	0.478
414.57	0.478
414.78	0.478
414.98	0.478
415.19	0.479
415.39	0.479
415.60	0.478
415.80	0.477
416.01	0.476
416.21	0.475
416.42	0.475
416.62	0.475
416.83	0.473
417.03	0.473
417.24	0.473
417.44	0.472
417.65	0.473
417.86	0.474
418.06	0.475
418.27	0.475
418.47	0.476
418.68	0.475
418.88	0.475
419.09	0.475
419.29	0.476
419.50	0.476
419.70	0.477
419.91	0.476
420.11	0.476
420.32	0.475
420.52	0.475
420.73	0.475
420.93	0.474
421.14	0.475
421.34	0.475
421.55	0.476
421.75	0.476
421.96	0.475
422.16	0.475
422.37	0.474
422.57	0.474
422.78	0.474
422.98	0.475
423.19	0.476
423.39	0.476
423.60	0.475
423.80	0.474
424.01	0.474
424.21	0.474
424.42	0.474
424.62	0.475
424.83	0.474
425.03	0.474
425.23	0.474
425.44	0.472
425.64	0.472
425.85	0.471
426.05	0.471
426.26	0.471
426.46	0.471
426.67	0.470
426.87	0.469
427.08	0.469
427.28	0.469
427.49	0.469
427.69	0.469
427.90	0.469
428.10	0.470
428.31	0.471
428.51	0.472
428.71	0.472
428.92	0.472
429.12	0.473
429.33	0.474
429.53	0.474
429.74	0.474
429.94	0.475
430.15	0.476
430.35	0.475
430.56	0.474
430.76	0.474
430.96	0.475
431.17	0.475
431.37	0.475
431.58	0.475
431.78	0.475
431.99	0.475
432.19	0.474
432.40	0.474
432.60	0.475
432.80	0.475
433.01	0.475
433.21	0.474
433.42	0.474
433.62	0.474
433.83	0.474
434.03	0.474
434.23	0.474
434.44	0.474
434.64	0.473
434.85	0.473
435.05	0.474
435.26	0.474
435.46	0.475
435.66	0.475
435.87	0.475
436.07	0.474
436.28	0.475
436.48	0.477
436.69	0.478
436.89	0.478
437.09	0.478
437.30	0.477
437.50	0.477
437.71	0.476
437.91	0.475
438.11	0.475
438.32	0.474
438.52	0.474
438.73	0.473
438.93	0.473
439.13	0.472
439.34	0.472
439.54	0.472
439.75	0.473
439.95	0.474
440.15	0.475
440.36	0.475
440.56	0.475
440.77	0.476
440.97	0.477
441.17	0.476
441.38	0.476
441.58	0.476
441.79	0.477
441.99	0.477
442.19	0.476
442.40	0.475
442.60	0.474
442.81	0.475
443.01	0.475
443.21	0.474
443.42	0.476
443.62	0.474
443.82	0.474
444.03	0.475
444.23	0.475
444.44	0.474
444.64	0.476
444.84	0.477
445.05	0.478
445.25	0.478
445.45	0.477
445.66	0.475
445.86	0.476
446.06	0.476
446.27	0.475
446.47	0.474
446.68	0.475
446.88	0.474
447.08	0.473
447.29	0.472
447.49	0.473
447.69	0.473
447.90	0.474
448.10	0.472
448.30	0.473
448.51	0.471
448.71	0.471
448.91	0.471
449.12	0.472
449.32	0.471
449.52	0.471
449.73	0.470
449.93	0.470
450.14	0.470
450.34	0.470
450.54	0.470
450.75	0.471
450.95	0.471
451.15	0.472
451.36	0.470
451.56	0.473
451.76	0.472
451.97	0.474
452.17	0.474
452.37	0.474
452.58	0.475
452.78	0.476
452.98	0.477
453.19	0.478
453.39	0.477
453.59	0.478
453.79	0.477
454.00	0.477
454.20	0.477
454.40	0.477
454.61	0.477
454.81	0.476
455.01	0.475
455.22	0.475
455.42	0.474
455.62	0.475
455.83	0.474
456.03	0.474
456.23	0.473
456.44	0.473
456.64	0.472
456.84	0.472
457.04	0.473
457.25	0.475
457.45	0.475
457.65	0.476
457.86	0.477
458.06	0.478
458.26	0.479
458.47	0.479
458.67	0.479
458.87	0.478
459.07	0.478
459.28	0.476
459.48	0.475
459.68	0.474
459.89	0.473
460.09	0.473
460.29	0.472
460.49	0.471
460.70	0.471
460.90	0.472
461.10	0.472
461.31	0.473
461.51	0.473
461.71	0.474
461.91	0.474
462.12	0.476
462.32	0.476
462.52	0.476
462.72	0.476
462.93	0.475
463.13	0.475
463.33	0.476
463.53	0.475
463.74	0.476
463.94	0.476
464.14	0.477
464.35	0.477
464.55	0.477
464.75	0.478
464.95	0.479
465.16	0.478
465.36	0.478
465.56	0.478
465.76	0.479
465.97	0.478
466.17	0.477
466.37	0.476
466.57	0.474
466.78	0.474
466.98	0.473
467.18	0.473
467.38	0.474
467.59	0.473
467.79	0.473
467.99	0.473
468.19	0.472
468.39	0.472
468.60	0.472
468.80	0.472
469.00	0.472
469.20	0.473
469.41	0.473
469.61	0.473
469.81	0.474
470.01	0.474
470.22	0.474
470.42	0.475
470.62	0.476
470.82	0.476
471.02	0.477
471.23	0.477
471.43	0.476
471.63	0.476
471.83	0.477
472.04	0.477
472.24	0.476
472.44	0.475
472.64	0.476
472.84	0.476
473.05	0.475
473.25	0.474
473.45	0.474
473.65	0.474
473.85	0.473
474.06	0.472
474.26	0.472
474.46	0.471
474.66	0.472
474.86	0.472
475.07	0.473
475.27	0.474
475.47	0.475
475.67	0.474
475.87	0.473
476.08	0.474
476.28	0.475
476.48	0.476
476.68	0.476
476.88	0.475
477.09	0.474
477.29	0.473
477.49	0.473
477.69	0.473
477.89	0.474
478.09	0.474
478.30	0.474
478.50	0.474
478.70	0.473
478.90	0.473
479.10	0.473
479.31	0.473
479.51	0.474
479.71	0.474
479.91	0.473
480.11	0.472
480.31	0.472
480.52	0.472
480.72	0.472
480.92	0.471
481.12	0.472
481.32	0.473
481.52	0.472
481.72	0.472
481.93	0.471
482.13	0.472
482.33	0.473
482.53	0.474
482.73	0.475
482.93	0.474
483.14	0.475
483.34	0.474
483.54	0.474
483.74	0.475
483.94	0.475
484.14	0.474
484.34	0.474
484.55	0.473
484.75	0.473
484.95	0.471
485.15	0.472
485.35	0.471
485.55	0.472
485.75	0.471
485.96	0.471
486.16	0.471
486.36	0.471
486.56	0.471
486.76	0.472
486.96	0.473
487.16	0.474
487.36	0.474
487.57	0.474
487.77	0.474
487.97	0.474
488.17	0.474
488.37	0.475
488.57	0.475
488.77	0.475
488.97	0.474
489.18	0.474
489.38	0.473
489.58	0.472
489.78	0.472
489.98	0.472
490.18	0.473
490.38	0.472
490.58	0.472
490.78	0.472
490.98	0.472
491.19	0.472
491.39	0.472
491.59	0.473
491.79	0.472
491.99	0.472
492.19	0.473
492.39	0.472
492.59	0.473
492.79	0.473
492.99	0.472
493.20	0.472
493.40	0.471
493.60	0.471
493.80	0.471
494.00	0.472
494.20	0.472
494.40	0.471
494.60	0.470
494.80	0.470
495.00	0.470
495.20	0.470
495.40	0.470
495.61	0.469
495.81	0.469
496.01	0.469
496.21	0.468
496.41	0.469
496.61	0.469
496.81	0.470
497.01	0.470
497.21	0.470
497.41	0.470
497.61	0.470
497.81	0.471
498.01	0.471
498.21	0.471
498.41	0.473
498.61	0.472
498.82	0.472
499.02	0.471
499.22	0.470
499.42	0.471
499.62	0.471
499.82	0.472
500.02	0.472
500.22	0.472
500.42	0.472
500.62	0.472
500.82	0.472
501.02	0.471
501.22	0.472
501.42	0.472
501.62	0.471
501.82	0.470
502.02	0.470
502.22	0.470
502.42	0.470
502.62	0.470
502.82	0.470
503.02	0.471
503.22	0.472
503.42	0.472
503.63	0.472
503.83	0.472
504.03	0.473
504.23	0.473
504.43	0.474
504.63	0.473
504.83	0.474
505.03	0.475
505.23	0.473
505.43	0.473
505.63	0.473
505.83	0.473
506.03	0.473
506.23	0.472
506.43	0.471
506.63	0.471
506.83	0.472
507.03	0.471
507.23	0.471
507.43	0.472
507.63	0.472
507.83	0.472
508.03	0.472
508.23	0.473
508.43	0.474
508.63	0.474
508.83	0.473
509.03	0.473
509.23	0.473
509.43	0.474
509.63	0.474
509.83	0.474
510.03	0.474
510.23	0.472
510.43	0.472
510.63	0.472
510.83	0.472
511.03	0.472
511.23	0.473
511.43	0.472
511.63	0.470
511.83	0.469
512.03	0.470
512.22	0.470
512.42	0.472
512.62	0.473
512.82	0.473
513.02	0.473
513.22	0.474
513.42	0.474
513.62	0.474
513.82	0.475
514.02	0.476
514.22	0.475
514.42	0.475
514.62	0.474
514.82	0.473
515.02	0.472
515.22	0.472
515.42	0.473
515.62	0.472
515.82	0.473
516.02	0.473
516.22	0.473
516.42	0.474
516.62	0.473
516.82	0.473
517.01	0.474
517.21	0.475
517.41	0.474
517.61	0.474
517.81	0.475
518.01	0.474
518.21	0.475
518.41	0.476
518.61	0.475
518.81	0.476
519.01	0.477
519.21	0.477
519.41	0.477
519.61	0.478
519.81	0.479
520.00	0.480
520.20	0.479
520.40	0.478
520.60	0.477
520.80	0.478
521.00	0.477
521.20	0.477
521.40	0.475
521.60	0.475
521.80	0.475
522.00	0.473
522.20	0.471
522.39	0.472
522.59	0.472
522.79	0.474
522.99	0.474
523.19	0.475
523.39	0.476
523.59	0.477
523.79	0.477
523.99	0.476
524.19	0.476
524.38	0.476
524.58	0.477
524.78	0.477
524.98	0.476
525.18	0.476
525.38	0.476
525.58	0.475
525.78	0.475
525.98	0.475
526.18	0.475
526.37	0.476
526.57	0.476
526.77	0.476
526.97	0.475
527.17	0.476
527.37	0.475
527.57	0.475
527.77	0.475
527.96	0.475
528.16	0.476
528.36	0.477
528.56	0.477
528.76	0.478
528.96	0.478
529.16	0.479
529.36	0.478
529.55	0.480
529.75	0.481
529.95	0.481
530.15	0.480
530.35	0.480
530.55	0.479
530.75	0.479
530.94	0.478
531.14	0.478
531.34	0.479
531.54	0.480
531.74	0.479
531.94	0.477
532.13	0.478
532.33	0.478
532.53	0.478
532.73	0.480
532.93	0.479
533.13	0.479
533.33	0.479
533.52	0.479
533.72	0.477
533.92	0.479
534.12	0.480
534.32	0.480
534.52	0.479
534.71	0.479
534.91	0.477
535.11	0.479
535.31	0.478
535.51	0.478
535.71	0.477
535.90	0.478
536.10	0.476
536.30	0.475
536.50	0.476
536.70	0.476
536.89	0.476
537.09	0.478
537.29	0.477
537.49	0.477
537.69	0.477
537.89	0.478
538.08	0.479
538.28	0.479
538.48	0.479
538.68	0.479
538.88	0.479
539.07	0.480
539.27	0.479
539.47	0.479
539.67	0.480
539.87	0.480
540.06	0.480
540.26	0.480
540.46	0.479
540.66	0.480
540.86	0.481
541.05	0.481
541.25	0.481
541.45	0.483
541.65	0.482
541.84	0.483
542.04	0.482
542.24	0.483
542.44	0.482
542.64	0.483
542.83	0.482
543.03	0.483
543.23	0.484
543.43	0.483
543.62	0.483
543.82	0.483
544.02	0.481
544.22	0.482
544.42	0.481
544.61	0.482
544.81	0.482
545.01	0.483
545.21	0.481
545.40	0.480
545.60	0.480
545.80	0.478
546.00	0.478
546.19	0.479
546.39	0.479
546.59	0.480
546.79	0.480
546.98	0.481
547.18	0.480
547.38	0.480
547.58	0.481
547.77	0.481
547.97	0.482
548.17	0.483
548.37	0.483
548.56	0.484
548.76	0.484
548.96	0.483
549.16	0.482
549.35	0.484
549.55	0.486
549.75	0.485
549.95	0.484
550.14	0.485
550.34	0.484
550.54	0.484
550.73	0.482
550.93	0.483
551.13	0.485
551.33	0.485
551.52	0.483
551.72	0.483
551.92	0.483
552.12	0.485
552.31	0.484
552.51	0.485
552.71	0.485
552.90	0.485
553.10	0.484
553.30	0.483
553.50	0.484
553.69	0.484
553.89	0.484
554.09	0.484
554.28	0.483
554.48	0.483
554.68	0.481
554.87	0.482
555.07	0.483
555.27	0.484
555.47	0.483
555.66	0.483
555.86	0.484
556.06	0.484
556.25	0.486
556.45	0.486
556.65	0.488
556.84	0.488
557.04	0.489
557.24	0.488
557.43	0.488
557.63	0.490
557.83	0.490
558.02	0.491
558.22	0.490
558.42	0.490
558.61	0.491
558.81	0.490
559.01	0.490
559.21	0.489
559.40	0.490
559.60	0.491
559.80	0.489
559.99	0.489
560.19	0.488
560.39	0.490
560.58	0.489
560.78	0.490
560.97	0.488
561.17	0.489
561.37	0.489
561.56	0.489
561.76	0.489
561.96	0.489
562.15	0.489
562.35	0.488
562.55	0.486
562.74	0.487
562.94	0.486
563.14	0.487
563.33	0.487
563.53	0.487
563.73	0.488
563.92	0.488
564.12	0.487
564.31	0.486
564.51	0.486
564.71	0.486
564.90	0.485
565.10	0.486
565.30	0.485
565.49	0.486
565.69	0.485
565.89	0.485
566.08	0.486
566.28	0.486
566.47	0.487
566.67	0.488
566.87	0.489
567.06	0.490
567.26	0.490
567.46	0.491
567.65	0.490
567.85	0.490
568.04	0.490
568.24	0.489
568.44	0.488
568.63	0.489
568.83	0.489
569.02	0.488
569.22	0.488
569.42	0.489
569.61	0.487
569.81	0.488
570.00	0.487
570.20	0.486
570.40	0.486
570.59	0.486
570.79	0.485
570.98	0.484
571.18	0.483
571.38	0.483
571.57	0.483
571.77	0.483
571.96	0.482
572.16	0.484
572.35	0.484
572.55	0.484
572.75	0.484
572.94	0.484
573.14	0.483
573.33	0.484
573.53	0.484
573.73	0.483
573.92	0.483
574.12	0.484
574.31	0.483
574.51	0.483
574.70	0.482
574.90	0.482
575.09	0.482
575.29	0.482
575.49	0.481
575.68	0.482
575.88	0.481
576.07	0.481
576.27	0.480
576.46	0.480
576.66	0.479
576.86	0.480
577.05	0.480
577.25	0.481
577.44	0.481
577.64	0.482
577.83	0.482
578.03	0.483
578.22	0.483
578.42	0.483
578.61	0.483
578.81	0.483
579.00	0.483
579.20	0.482
579.40	0.480
579.59	0.481
579.79	0.481
579.98	0.481
580.18	0.480
580.37	0.480
580.57	0.479
580.76	0.480
580.96	0.480
581.15	0.480
581.35	0.480
581.54	0.481
581.74	0.480
581.93	0.480
582.13	0.479
582.32	0.480
582.52	0.480
582.71	0.480
582.91	0.480
583.10	0.480
583.30	0.479
583.49	0.480
583.69	0.479
583.88	0.480
584.08	0.479
584.27	0.479
584.47	0.479
584.66	0.479
584.86	0.479
585.05	0.479
585.25	0.479
585.44	0.480
585.64	0.480
585.83	0.481
586.03	0.481
586.22	0.482
586.42	0.483
586.61	0.483
586.81	0.483
587.00	0.483
587.20	0.482
587.39	0.482
587.59	0.482
587.78	0.482
587.98	0.481
588.17	0.481
588.37	0.481
588.56	0.480
588.76	0.480
588.95	0.480
589.15	0.481
589.34	0.482
589.54	0.482
589.73	0.483
589.92	0.483
590.12	0.483
590.31	0.485
590.51	0.485
590.70	0.486
590.90	0.485
591.09	0.486
591.29	0.485
591.48	0.485
591.68	0.485
591.87	0.484
592.06	0.485
592.26	0.484
592.45	0.484
592.65	0.483
592.84	0.483
593.04	0.483
593.23	0.483
593.43	0.483
593.62	0.483
593.81	0.482
594.01	0.482
594.20	0.482
594.40	0.482
594.59	0.482
594.79	0.482
594.98	0.482
595.17	0.483
595.37	0.484
595.56	0.484
595.76	0.485
595.95	0.487
596.14	0.487
596.34	0.487
596.53	0.486
596.73	0.486
596.92	0.486
597.12	0.484
597.31	0.483
597.50	0.482
597.70	0.481
597.89	0.480
598.09	0.479
598.28	0.477
598.47	0.477
598.67	0.477
598.86	0.477
599.06	0.477
599.25	0.476
599.44	0.477
599.64	0.476
599.83	0.477
600.03	0.476
600.22	0.476
600.41	0.476
600.61	0.476
600.80	0.476
601.00	0.476
601.19	0.476
601.38	0.477
601.58	0.477
601.77	0.479
601.96	0.478
602.16	0.479
602.35	0.478
602.55	0.480
602.74	0.480
602.93	0.481
603.13	0.481
603.32	0.480
603.51	0.481
603.71	0.480
603.90	0.480
604.09	0.480
604.29	0.479
604.48	0.479
604.68	0.478
604.87	0.478
605.06	0.478
605.26	0.478
605.45	0.477
605.64	0.477
605.84	0.477
606.03	0.477
606.22	0.477
606.42	0.478
606.61	0.479
606.80	0.479
607.00	0.480
607.19	0.480
607.38	0.481
607.58	0.482
607.77	0.482
607.96	0.482
608.16	0.483
608.35	0.482
608.54	0.483
608.74	0.483
608.93	0.482
609.12	0.481
609.32	0.482
609.51	0.482
609.70	0.481
609.90	0.481
610.09	0.482
610.28	0.481
610.48	0.482
610.67	0.484
610.86	0.485
611.06	0.485
611.25	0.485
611.44	0.484
611.64	0.485
611.83	0.485
612.02	0.486
612.21	0.486
612.41	0.486
612.60	0.486
612.79	0.484
612.99	0.484
613.18	0.484
613.37	0.486
613.57	0.487
613.76	0.485
613.95	0.485
614.14	0.484
614.34	0.484
614.53	0.484
614.72	0.483
614.92	0.485
615.11	0.484
615.30	0.485
615.49	0.485
615.69	0.485
615.88	0.486
616.07	0.487
616.26	0.488
616.46	0.489
616.65	0.490
616.84	0.492
617.04	0.491
617.23	0.490
617.42	0.490
617.61	0.489
617.81	0.489
618.00	0.489
618.19	0.489
618.38	0.488
618.58	0.490
618.77	0.490
618.96	0.490
619.15	0.491
619.35	0.494
619.54	0.494
619.73	0.495
619.92	0.496
620.12	0.494
620.31	0.494
620.50	0.494
620.69	0.493
620.89	0.492
621.08	0.493
621.27	0.491
621.46	0.491
621.66	0.490
621.85	0.490
622.04	0.491
622.23	0.494
622.43	0.493
622.62	0.494
622.81	0.493
623.00	0.492
623.19	0.490
623.39	0.491
623.58	0.490
623.77	0.492
623.96	0.491
624.16	0.491
624.35	0.491
624.54	0.491
624.73	0.490
624.92	0.492
625.12	0.492
625.31	0.492
625.50	0.492
625.69	0.492
625.88	0.493
626.08	0.495
626.27	0.495
626.46	0.494
626.65	0.494
626.84	0.493
627.04	0.491
627.23	0.493
627.42	0.495
627.61	0.495
627.80	0.493
628.00	0.494
628.19	0.491
628.38	0.490
628.57	0.490
628.76	0.491
628.96	0.492
629.15	0.492
629.34	0.493
629.53	0.494
629.72	0.495
629.91	0.497
630.11	0.494
630.30	0.496
630.49	0.495
630.68	0.496
630.87	0.497
631.06	0.497
631.26	0.499
631.45	0.498
631.64	0.496
631.83	0.496
632.02	0.497
632.21	0.499
632.41	0.499
632.60	0.500
632.79	0.499
632.98	0.498
633.17	0.499
633.36	0.499
633.55	0.499
633.75	0.502
633.94	0.502
634.13	0.501
634.32	0.501
634.51	0.502
634.70	0.501
634.89	0.502
635.09	0.501
635.28	0.500
635.47	0.500
635.66	0.498
635.85	0.499
636.04	0.500
636.23	0.500
636.43	0.499
636.62	0.499
636.81	0.500
637.00	0.498
637.19	0.497
637.38	0.499
637.57	0.501
637.76	0.503
637.95	0.501
638.15	0.499
638.34	0.500
638.53	0.500
638.72	0.499
638.91	0.501
639.10	0.503
639.29	0.503
639.48	0.501
639.67	0.498
639.87	0.499
640.06	0.501
640.25	0.503
640.44	0.500
640.63	0.502
640.82	0.502
641.01	0.504
641.20	0.505
641.39	0.508
641.58	0.509
641.78	0.510
641.97	0.509
642.16	0.507
642.35	0.506
642.54	0.507
642.73	0.507
642.92	0.507
643.11	0.507
643.30	0.507
643.49	0.504
643.68	0.502
643.87	0.502
644.06	0.501
644.25	0.503
644.45	0.506
644.64	0.508
644.83	0.508
645.02	0.509
645.21	0.508
645.40	0.506
645.59	0.509
645.78	0.510
645.97	0.511
646.16	0.509
646.35	0.507
646.54	0.503
646.73	0.502
646.92	0.502
647.11	0.502
647.30	0.501
647.49	0.501
647.68	0.500
647.88	0.499
648.07	0.501
648.26	0.500
648.45	0.499
648.64	0.503
648.83	0.502
649.02	0.500
649.21	0.496
649.40	0.497
649.59	0.497
649.78	0.498
649.97	0.497
650.16	0.494
650.35	0.494
650.54	0.496
650.73	0.493
650.92	0.494
651.11	0.495
651.30	0.496
651.49	0.494
651.68	0.495
651.87	0.493
652.06	0.496
652.25	0.498
652.44	0.502
652.63	0.501
652.82	0.501
653.01	0.499
653.20	0.496
653.39	0.496
653.58	0.494
653.77	0.492
653.96	0.490
654.15	0.488
654.34	0.485
654.53	0.483
654.72	0.481
654.91	0.481
655.10	0.480
655.29	0.480
655.48	0.479
655.67	0.479
655.86	0.480
656.05	0.479
656.24	0.478
656.43	0.478
656.62	0.478
656.81	0.477
657.00	0.476
657.19	0.477
657.38	0.476
657.57	0.477
657.76	0.476
657.95	0.478
658.14	0.479
658.33	0.481
658.51	0.482
658.70	0.483
658.89	0.487
659.08	0.490
659.27	0.490
659.46	0.492
659.65	0.493
659.84	0.497
660.03	0.499
660.22	0.498
660.41	0.498
660.60	0.500
660.79	0.501
660.98	0.499
661.17	0.499
661.36	0.500
661.55	0.501
661.74	0.498
661.92	0.497
662.11	0.495
662.30	0.496
662.49	0.497
662.68	0.497
662.87	0.494
663.06	0.496
663.25	0.494
663.44	0.494
663.63	0.493
663.82	0.496
664.01	0.495
664.20	0.496
664.38	0.496
664.57	0.495
664.76	0.493
664.95	0.494
665.14	0.492
665.33	0.495
665.52	0.493
665.71	0.492
665.90	0.492
666.09	0.492
666.28	0.491
666.46	0.493
666.65	0.492
666.84	0.494
667.03	0.497
667.22	0.498
667.41	0.496
667.60	0.498
667.79	0.498
667.98	0.496
668.16	0.494
668.35	0.494
668.54	0.492
668.73	0.492
668.92	0.491
669.11	0.491
669.30	0.491
669.49	0.493
669.67	0.492
669.86	0.492
670.05	0.491
670.24	0.493
670.43	0.493
670.62	0.492
670.81	0.493
671.00	0.490
671.18	0.487
671.37	0.487
671.56	0.485
671.75	0.485
671.94	0.487
672.13	0.488
672.32	0.489
672.50	0.489
672.69	0.489
672.88	0.488
673.07	0.489
673.26	0.489
673.45	0.489
673.63	0.489
673.82	0.490
674.01	0.488
674.20	0.487
674.39	0.486
674.58	0.487
674.76	0.490
674.95	0.491
675.14	0.493
675.33	0.493
675.52	0.494
675.71	0.494
675.89	0.494
676.08	0.495
676.27	0.496
676.46	0.496
676.65	0.496
676.84	0.493
677.02	0.491
677.21	0.488
677.40	0.489
677.59	0.489
677.78	0.488
677.96	0.487
678.15	0.487
678.34	0.487
678.53	0.485
678.72	0.482
678.90	0.484
679.09	0.486
679.28	0.487
679.47	0.487
679.66	0.486
679.84	0.487
680.03	0.489
680.22	0.489
680.41	0.487
680.60	0.489
680.78	0.490
680.97	0.490
681.16	0.489
681.35	0.488
681.53	0.488
681.72	0.487
681.91	0.486
682.10	0.485
682.29	0.483
682.47	0.483
682.66	0.483
682.85	0.482
683.04	0.482
683.22	0.479
683.41	0.479
683.60	0.480
683.79	0.478
683.97	0.477
684.16	0.478
684.35	0.478
684.54	0.479
684.72	0.478
684.91	0.478
685.10	0.476
685.29	0.477
685.47	0.478
685.66	0.478
685.85	0.478
686.04	0.479
686.22	0.477
686.41	0.476
686.60	0.475
686.79	0.475
686.97	0.474
687.16	0.474
687.35	0.474
687.54	0.473
687.72	0.471
687.91	0.472
688.10	0.471
688.29	0.472
688.47	0.472
688.66	0.473
688.85	0.472
689.03	0.473
689.22	0.473
689.41	0.473
689.60	0.474
689.78	0.476
689.97	0.475
690.16	0.475
690.34	0.476
690.53	0.477
690.72	0.475
690.91	0.476
691.09	0.476
691.28	0.476
691.47	0.478
691.65	0.478
691.84	0.477
692.03	0.478
692.21	0.477
692.40	0.475
692.59	0.475
692.77	0.477
692.96	0.476
693.15	0.475
693.34	0.474
693.52	0.473
693.71	0.472
693.90	0.472
694.08	0.470
694.27	0.472
694.46	0.471
694.64	0.471
694.83	0.470
695.02	0.471
695.20	0.472
695.39	0.473
695.58	0.472
695.76	0.472
695.95	0.471
696.14	0.471
696.32	0.470
696.51	0.471
696.70	0.469
696.88	0.468
697.07	0.467
697.26	0.465
697.44	0.464
697.63	0.465
697.81	0.464
698.00	0.466
698.19	0.465
698.37	0.465
698.56	0.464
698.75	0.465
698.93	0.465
699.12	0.466
699.31	0.466
699.49	0.466
699.68	0.466
699.87	0.465
700.05	0.463
700.24	0.464
700.42	0.463
700.61	0.464
700.80	0.463
700.98	0.464
701.17	0.462
701.36	0.463
701.54	0.461
701.73	0.461
701.91	0.461
702.10	0.462
702.29	0.463
702.47	0.464
702.66	0.465
702.84	0.465
703.03	0.464
703.22	0.464
703.40	0.464
703.59	0.464
703.77	0.464
703.96	0.465
704.15	0.464
704.33	0.464
704.52	0.461
704.70	0.460
704.89	0.459
705.08	0.461
705.26	0.461
705.45	0.460
705.63	0.459
705.82	0.459
706.00	0.458
706.19	0.458
706.38	0.458
706.56	0.458
706.75	0.458
706.93	0.459
707.12	0.457
707.30	0.456
707.49	0.456
707.68	0.457
707.86	0.455
708.05	0.454
708.23	0.454
708.42	0.453
708.60	0.453
708.79	0.451
708.98	0.451
709.16	0.450
709.35	0.450
709.53	0.450
709.72	0.450
709.90	0.450
710.09	0.450
710.27	0.449
710.46	0.447
710.64	0.447
710.83	0.447
711.02	0.447
711.20	0.448
711.39	0.448
711.57	0.448
711.76	0.447
711.94	0.448
712.13	0.448
712.31	0.448
712.50	0.450
712.68	0.451
712.87	0.450
713.05	0.449
713.24	0.448
713.42	0.447
713.61	0.446
713.79	0.446
713.98	0.444
714.16	0.443
714.35	0.443
714.54	0.442
714.72	0.442
714.91	0.441
715.09	0.440
715.28	0.438
715.46	0.439
715.65	0.439
715.83	0.439
716.02	0.438
716.20	0.439
716.39	0.439
716.57	0.437
716.76	0.436
716.94	0.436
717.12	0.435
717.31	0.435
717.49	0.434
717.68	0.433
717.86	0.431
718.05	0.429
718.23	0.427
718.42	0.425
718.60	0.422
718.79	0.421
718.97	0.419
719.16	0.419
719.34	0.418
719.53	0.418
719.71	0.418
719.90	0.417
720.08	0.416
720.27	0.415
720.45	0.414
720.63	0.414
720.82	0.412
721.00	0.412
721.19	0.410
721.37	0.409
721.56	0.406
721.74	0.404
721.93	0.402
722.11	0.401
722.30	0.400
722.48	0.399
722.66	0.398
722.85	0.398
723.03	0.397
723.22	0.397
723.40	0.397
723.59	0.397
723.77	0.394
723.95	0.395
724.14	0.394
724.32	0.392
724.51	0.390
724.69	0.391
724.88	0.391
725.06	0.390
725.24	0.389
725.43	0.389
725.61	0.389
725.80	0.390
725.98	0.390
726.16	0.389
726.35	0.388
726.53	0.388
726.72	0.384
726.90	0.381
727.09	0.380
727.27	0.376
727.45	0.372
727.64	0.367
727.82	0.363
728.01	0.359
728.19	0.358
728.37	0.355
728.56	0.351
728.74	0.349
728.92	0.348
729.11	0.346
729.29	0.345
729.48	0.343
729.66	0.343
729.84	0.341
730.03	0.338
730.21	0.334
730.40	0.333
730.58	0.332
730.76	0.330
730.95	0.326
731.13	0.322
731.31	0.319
731.50	0.313
731.68	0.310
731.86	0.308
732.05	0.305
732.23	0.302
732.42	0.300
732.60	0.295
732.78	0.292
732.97	0.286
733.15	0.283
733.33	0.279
733.52	0.276
733.70	0.272
733.88	0.267
734.07	0.264
734.25	0.260
734.43	0.256
734.62	0.255
734.80	0.253
734.98	0.252
735.17	0.248
735.35	0.248
735.53	0.245
735.72	0.242
735.90	0.239
736.08	0.237
736.27	0.235
736.45	0.234
736.63	0.232
736.82	0.228
737.00	0.225
737.18	0.225
737.37	0.221
737.55	0.219
737.73	0.216
737.92	0.215
738.10	0.215
738.28	0.213
738.46	0.209
738.65	0.206
738.83	0.204
739.01	0.201
739.20	0.198
739.38	0.197
739.56	0.197
739.75	0.198
739.93	0.198
740.11	0.195
740.29	0.193
740.48	0.193
740.66	0.193
740.84	0.194
741.03	0.196
741.21	0.196
741.39	0.197
741.57	0.198
741.76	0.197
741.94	0.197
742.12	0.198
742.31	0.199
742.49	0.201
742.67	0.203
742.85	0.200
743.04	0.204
743.22	0.205
743.40	0.202
743.58	0.203
743.77	0.204
743.95	0.207
744.13	0.205
744.31	0.204
744.50	0.201
744.68	0.197
744.86	0.198
745.04	0.192
745.23	0.192
745.41	0.192
745.59	0.190
745.77	0.193
745.96	0.194
746.14	0.193
746.32	0.197
746.50	0.196
746.69	0.201
746.87	0.202
747.05	0.204
747.23	0.210
747.42	0.213
747.60	0.210
747.78	0.208
747.96	0.200
748.14	0.200
748.33	0.197
748.51	0.197
748.69	0.198
748.87	0.197
749.06	0.197
749.24	0.190
749.42	0.185
749.60	0.186
749.78	0.184
749.97	0.188
750.15	0.190
750.33	0.190
750.51	0.191
750.69	0.187
750.88	0.184
751.06	0.185
751.24	0.184
751.42	0.188
751.60	0.186
751.79	0.187
751.97	0.189
752.15	0.188
752.33	0.189
752.51	0.185
752.69	0.189
752.88	0.191
753.06	0.187
753.24	0.190
753.42	0.188
753.60	0.187
753.78	0.190
753.97	0.184
754.15	0.186
754.33	0.185
754.51	0.187
754.69	0.185
754.87	0.184
755.06	0.188
755.24	0.184
755.42	0.187
755.60	0.190
755.78	0.187
755.96	0.187
756.15	0.187
756.33	0.185
756.51	0.183
756.69	0.184
756.87	0.187
757.05	0.183
757.23	0.184
757.42	0.183
757.60	0.183
757.78	0.184
757.96	0.186
758.14	0.184
758.32	0.187
758.50	0.185
758.69	0.184
758.87	0.183
759.05	0.185
759.23	0.183
759.41	0.182
759.59	0.182
759.77	0.181
759.95	0.181
760.13	0.180
760.32	0.177
760.50	0.179
760.68	0.177
760.86	0.178
761.04	0.176
761.22	0.180
761.40	0.177
761.58	0.175
761.76	0.174
761.95	0.172
762.13	0.173
762.31	0.174
762.49	0.176
762.67	0.175
762.85	0.176
763.03	0.180
763.21	0.179
763.39	0.181
763.57	0.183
763.75	0.185
763.94	0.187
764.12	0.186
764.30	0.186
764.48	0.187
764.66	0.190
764.84	0.189
765.02	0.187
765.20	0.186
765.38	0.188
765.56	0.189
765.74	0.186
765.92	0.187
766.10	0.188
766.28	0.188
766.46	0.186
766.65	0.187
766.83	0.185
767.01	0.187
767.19	0.186
767.37	0.187
767.55	0.185
767.73	0.187
767.91	0.187
768.09	0.188
768.27	0.187
768.45	0.188
768.63	0.186
768.81	0.187
768.99	0.187
769.17	0.187
769.35	0.185
769.53	0.186
769.71	0.185
769.89	0.186
770.07	0.185
770.25	0.189
770.43	0.191
770.61	0.191
770.79	0.188
770.97	0.188
771.15	0.188
771.33	0.190
771.51	0.191
771.69	0.192
771.87	0.190
772.05	0.191
772.24	0.189
772.42	0.187
772.60	0.188
772.78	0.190
772.96	0.189
773.14	0.193
773.32	0.194
773.49	0.195
773.67	0.194
773.85	0.195
774.03	0.196
774.21	0.197
774.39	0.201
774.57	0.202
774.75	0.203
774.93	0.206
775.11	0.203
775.29	0.203
775.47	0.201
775.65	0.204
775.83	0.206
776.01	0.208
776.19	0.211
776.37	0.210
776.55	0.210
776.73	0.210
776.91	0.209
777.09	0.214
777.27	0.216
777.45	0.221
777.63	0.221
777.81	0.222
777.99	0.220
778.17	0.222
778.35	0.222
778.53	0.226
778.71	0.226
778.89	0.228
779.07	0.228
779.24	0.228
779.42	0.224
779.60	0.224
779.78	0.220
779.96	0.221
780.14	0.220
780.32	0.219
780.50	0.218
780.68	0.218
780.86	0.219
781.04	0.218
781.22	0.214
781.40	0.215
781.58	0.215
781.75	0.218
781.93	0.219
782.11	0.218
782.29	0.218
782.47	0.220
782.65	0.222
782.83	0.222
783.01	0.225
783.19	0.227
783.37	0.228
783.55	0.229
783.72	0.229
783.90	0.229
784.08	0.228
784.26	0.233
784.44	0.230
784.62	0.232
784.80	0.233
784.98	0.233
785.16	0.236
785.33	0.237
785.51	0.240
785.69	0.244
785.87	0.248
786.05	0.251
786.23	0.247
786.41	0.253
786.59	0.252
786.77	0.253
786.94	0.253
787.12	0.253
787.30	0.253
787.48	0.252
787.66	0.252
787.84	0.250
788.02	0.253
788.19	0.255
788.37	0.253
788.55	0.254
788.73	0.254
788.91	0.257
789.09	0.257
789.27	0.261
789.44	0.263
789.62	0.264
789.80	0.264
789.98	0.264
790.16	0.265
790.34	0.268
790.51	0.270
790.69	0.271
790.87	0.272
791.05	0.277
791.23	0.275
791.41	0.274
791.58	0.271
791.76	0.276
791.94	0.275
792.12	0.276
792.30	0.275
792.48	0.275
792.65	0.274
792.83	0.274
793.01	0.271
793.19	0.274
793.37	0.274
793.54	0.277
793.72	0.275
793.90	0.277
794.08	0.277
794.26	0.280
794.43	0.280
794.61	0.285
794.79	0.284
794.97	0.288
795.15	0.286
795.32	0.286
795.50	0.287
795.68	0.290
795.86	0.288
796.04	0.290
796.21	0.291
796.39	0.292
796.57	0.289
796.75	0.291
796.92	0.288
797.10	0.289
797.28	0.291
797.46	0.292
797.64	0.291
797.81	0.293
797.99	0.290
798.17	0.291
798.35	0.289
798.52	0.291
798.70	0.291
798.88	0.293
799.06	0.293
799.23	0.293
799.41	0.292
799.59	0.294
799.77	0.295
799.94	0.296
800.12	0.295
800.30	0.295
800.48	0.295
800.65	0.299
800.83	0.300
801.01	0.303
801.19	0.301
801.36	0.304
801.54	0.305
801.72	0.304
801.90	0.305
802.07	0.307
802.25	0.310
802.43	0.315
802.60	0.312
802.78	0.311
802.96	0.314
803.14	0.319
803.31	0.317
803.49	0.319
803.67	0.319
803.84	0.319
804.02	0.319
804.20	0.320
804.38	0.316
804.55	0.317
804.73	0.317
804.91	0.317
805.08	0.312
805.26	0.314
805.44	0.309
805.61	0.311
805.79	0.313
805.97	0.314
806.15	0.313
806.32	0.317
806.50	0.317
806.68	0.318
806.85	0.314
807.03	0.317
807.21	0.319
807.38	0.322
807.56	0.323
807.74	0.321
807.91	0.322
808.09	0.321
808.27	0.317
808.44	0.314
808.62	0.313
808.80	0.319
808.97	0.317
809.15	0.313
809.33	0.312
809.50	0.311
809.68	0.313
809.86	0.311
810.03	0.307
810.21	0.310
810.39	0.310
810.56	0.311
810.74	0.307
810.91	0.306
811.09	0.308
811.27	0.308
811.44	0.308
811.62	0.309
811.80	0.309
811.97	0.314
812.15	0.314
812.33	0.316
812.50	0.320
812.68	0.321
812.85	0.322
813.03	0.323
813.21	0.324
813.38	0.326
813.56	0.323
813.74	0.322
813.91	0.318
814.09	0.316
814.26	0.315
814.44	0.310
814.62	0.309
814.79	0.309
814.97	0.307
815.14	0.306
815.32	0.296
815.50	0.295
815.67	0.297
815.85	0.299
816.02	0.297
816.20	0.297
816.38	0.298
816.55	0.299
816.73	0.296
816.90	0.295
817.08	0.292
817.26	0.298
817.43	0.300
817.61	0.297
817.78	0.293
817.96	0.298
818.13	0.295
818.31	0.295
818.49	0.293
818.66	0.297
818.84	0.297
819.01	0.299
819.19	0.297
819.36	0.297
819.54	0.298
819.71	0.299
819.89	0.292
820.07	0.291
820.24	0.283
820.42	0.286
820.59	0.282
820.77	0.281
820.94	0.278
821.12	0.278
821.29	0.272
821.47	0.275
821.64	0.274
821.82	0.276
822.00	0.274
822.17	0.283
822.35	0.279
822.52	0.279
822.70	0.279
822.87	0.279
823.05	0.280
823.22	0.281
823.40	0.278
823.57	0.276
823.75	0.278
823.92	0.279
824.10	0.271
824.27	0.267
824.45	0.269
824.62	0.263
824.80	0.260
824.97	0.259
825.15	0.253
825.32	0.248
825.50	0.245
825.67	0.240
825.85	0.233
826.02	0.233
826.20	0.228
826.37	0.218
826.55	0.224
826.72	0.221
826.90	0.213
827.07	0.212
827.25	0.210
827.42	0.206
827.60	0.200
827.77	0.200
827.95	0.202
828.12	0.205
828.30	0.207
828.47	0.196
828.65	0.192
828.82	0.198
829.00	0.195
829.17	0.196
829.34	0.190
829.52	0.190
829.69	0.176
829.87	0.174
830.04	0.163
830.22	0.155
830.39	0.149
830.57	0.149
830.74	0.136
830.92	0.131
831.09	0.114
831.26	0.119
831.44	0.110
831.61	0.117
831.79	0.108
831.96	0.107
832.14	0.116
832.31	0.110
832.49	0.103
832.66	0.107
832.83	0.115
833.01	0.128
833.18	0.133
833.36	0.129
833.53	0.119
833.70	0.116
833.88	0.119
834.05	0.104
834.23	0.118
834.40	0.118
834.58	0.105
834.75	0.094
834.92	0.082
835.10	0.075
835.27	0.084
835.45	0.091
835.62	0.093
835.79	0.091
835.97	0.092
836.14	0.090
836.32	0.092
836.49	0.111
836.66	0.106
836.84	0.104
837.01	0.094
837.18	0.088
837.36	0.099
837.53	0.098
837.71	0.107
837.88	0.113
838.05	0.093
838.23	0.099
838.40	0.096
838.58	0.105
838.75	0.109
838.92	0.123
839.10	0.130
839.27	0.115
839.44	0.119
839.62	0.102
839.79	0.085
839.96	0.097
840.14	0.081
840.31	0.082
840.48	0.092
840.66	0.097
840.83	0.080
841.01	0.081
841.18	0.095
841.35	0.080
841.53	0.087
841.70	0.087
841.87	0.086
842.05	0.099
842.22	0.086
842.39	0.067
842.57	0.076
842.74	0.073
842.91	0.059
843.09	0.049
843.26	0.047
843.43	0.053
843.60	0.059
843.78	0.053
843.95	0.046
844.12	0.058
844.30	0.057
844.47	0.055
844.64	0.057
844.82	0.064
844.99	0.056
845.16	0.056
845.34	0.062
845.51	0.065
845.68	0.067
845.85	0.065
846.03	0.053
846.20	0.073
846.37	0.076
846.55	0.075
846.72	0.069
846.89	0.083
847.06	0.080
847.24	0.080
847.41	0.070
847.58	0.078
847.76	0.076
847.93	0.062
848.10	0.055
848.27	0.054
848.45	0.085
848.62	0.086
848.79	0.095
848.97	0.126
849.14	0.087
849.31	0.104
849.48	0.124
849.66	0.154
849.83	0.154
850.00	0.127
850.17	0.095
850.35	0.064
850.52	0.078
850.69	0.072
850.86	0.047
851.04	0.061
851.21	0.074
851.38	0.056
851.55	0.059
851.72	0.064
851.90	0.070
852.07	0.075
852.24	0.099
852.41	0.073
852.59	0.063
852.76	0.068
852.93	0.065
853.10	0.033
853.28	0.051
853.45	0.028
853.62	0.037
853.79	0.036
853.96	0.046
854.14	0.037
854.31	0.058
854.48	0.063
854.65	0.059
854.82	0.074
855.00	0.102
855.17	0.077
855.34	0.078
855.51	0.074
855.68	0.087
855.86	0.070
856.03	0.066
856.20	0.060
856.37	0.054
856.54	0.067
856.72	0.043
856.89	0.054
857.06	0.063
857.23	0.063
857.40	0.051
857.57	0.078
857.75	0.099
857.92	0.088
858.09	0.103
858.26	0.120
858.43	0.099
858.60	0.132
858.78	0.142
858.95	0.121
859.12	0.156
859.29	0.215
859.46	0.154
859.63	0.186
859.81	0.272
859.98	0.263
860.15	0.234
860.32	0.276
860.49	0.281
860.66	0.227
860.83	0.281
861.01	0.320
861.18	0.286
861.35	0.336
861.52	0.295
861.69	0.236
861.86	0.234
862.03	0.220
862.21	0.216
862.38	0.190
862.55	0.245
862.72	0.230
862.89	0.240
863.06	0.250
863.23	0.295
863.40	0.346
863.58	0.394
863.75	0.404
863.92	0.392
864.09	0.434
864.26	0.619
864.43	0.440
864.60	0.427
864.77	0.289
864.94	0.221
865.11	0.140
865.29	0.108
865.46	0.096
865.63	0.142
865.80	0.144
865.97	0.163
866.14	0.138
866.31	0.163
866.48	0.165
866.65	0.178
866.82	0.198
866.99	0.306
867.16	0.355
867.34	0.340
867.51	0.241
867.68	0.311
867.85	0.226
868.02	0.244
868.19	0.228
868.36	0.295
868.53	0.372
868.70	0.439
868.87	0.288
869.04	0.227
869.21	0.193
869.38	0.251
869.55	0.200
869.72	0.202
869.89	0.193
870.06	0.216
870.24	0.166
870.41	0.175
870.58	0.174
870.75	0.225
870.92	0.222
871.09	0.217
871.26	0.206
871.43	0.198
871.60	0.213
871.77	0.229
871.94	0.216
872.11	0.235
872.28	0.236
872.45	0.229
872.62	0.232
872.79	0.220
872.96	0.274
873.13	0.218
873.30	0.214
873.47	0.288
873.64	0.253
873.81	0.242
873.98	0.183
874.15	0.184
874.32	0.178
874.49	0.133
874.66	0.186
874.83	0.248
875.00	0.275
875.17	0.361
875.34	0.347
875.51	0.322
875.68	0.295
875.85	0.415
876.02	0.385
876.19	0.466
876.36	0.465
876.53	0.589
876.70	0.559
876.87	0.911
877.04	1.141
877.21	1.250
877.38	1.741
877.55	-0.000
877.72	1.203
877.89	0.807
878.06	0.696
878.23	0.748
878.39	0.797
878.56	0.669
878.73	0.466
878.90	0.319
879.07	0.251
879.24	0.378
879.41	0.380
879.58	0.347
879.75	0.336
879.92	0.316
880.09	0.303
880.26	0.207
880.43	0.248
880.60	0.213
880.77	0.319
880.94	0.460
881.11	0.437
881.27	0.723
881.44	0.849
881.61	-0.000
881.78	-0.000
881.95	-0.000
882.12	-0.000
882.29	-0.000
882.46	-0.000
882.63	-0.000
882.80	-0.000
882.97	-0.000
883.14	-0.000
883.30	-0.000
883.47	1.948
883.64	-0.000
883.81	-0.000
883.98	-0.000
884.15	-0.000
884.32	-0.000
884.49	-0.000
884.66	-0.000
884.82	-0.000
884.99	-0.000
885.16	-0.000
885.33	-0.000
885.50	-0.000
885.67	-0.000
885.84	1.004
886.01	0.883
886.17	0.911
886.34	-0.000
886.51	-0.000
886.68	1.057
886.85	-0.000
887.02	-0.000
887.19	-0.000
887.36	-0.000
887.52	-0.000
887.69	-0.000
887.86	-0.000
888.03	-0.000
888.20	-0.000
888.37	-0.000
888.54	-0.000
888.70	-0.000
888.87	-0.000
889.04	-0.000
889.21	-0.000
889.38	-0.000
889.55	-0.000
889.71	0.583
889.88	-0.069
890.05	-0.000
890.22	0.094
890.39	-0.000
>>>>>End Processed Spectral Data<<<<<
