SpectraSuite Data File
++++++++++++++++++++++++++++++++++++
Date: Fri Jun 19 13:50:57 CEST 2015
User: introlabs
Dark Spectrum Present: Yes
Reference Spectrum Present: Yes
Number of Sampled Component Spectra: 1
Spectrometers: USB4H08886
Integration Time (usec): 745692 (USB4H08886)
Spectra Averaged: 5 (USB4H08886)
Boxcar Smoothing: 5 (USB4H08886)
Correct for Electrical Dark: Yes (USB4H08886)
Strobe/Lamp Enabled: No (USB4H08886)
Correct for Detector Non-linearity: Yes (USB4H08886)
Correct for Stray Light: Yes (USB4H08886)
Number of Pixels in Processed Spectrum: 3648
>>>>>Begin Processed Spectral Data<<<<<
178.14	-0.000
178.36	-0.000
178.57	-0.000
178.79	-0.000
179.01	-0.000
179.22	-0.000
179.44	-0.000
179.65	-0.000
179.87	-0.000
180.08	-0.000
180.30	-0.000
180.52	-0.000
180.73	-0.000
180.95	-0.000
181.16	-0.000
181.38	-0.000
181.59	-0.000
181.81	-0.000
182.03	-0.000
182.24	-0.000
182.46	-0.000
182.67	-0.000
182.89	-0.000
183.10	-0.000
183.32	-0.000
183.54	-0.000
183.75	-0.000
183.97	-0.000
184.18	-0.000
184.40	-0.000
184.61	-0.000
184.83	-0.000
185.04	-0.000
185.26	-0.000
185.48	-0.000
185.69	-0.000
185.91	-0.000
186.12	-0.000
186.34	-0.000
186.55	-0.000
186.77	-0.000
186.98	-0.000
187.20	-0.000
187.42	-0.000
187.63	-0.000
187.85	-0.000
188.06	-0.000
188.28	-0.000
188.49	-0.000
188.71	-0.000
188.92	-0.000
189.14	-0.000
189.36	-0.000
189.57	-0.000
189.79	-0.000
190.00	-0.000
190.22	-0.000
190.43	-0.000
190.65	-0.000
190.86	-0.000
191.08	-0.000
191.29	-0.000
191.51	-0.000
191.72	-0.000
191.94	-0.000
192.16	-0.000
192.37	-0.000
192.59	-0.000
192.80	-0.000
193.02	-0.000
193.23	-0.000
193.45	-0.000
193.66	-0.000
193.88	-0.000
194.09	-0.000
194.31	-0.000
194.52	-0.000
194.74	-0.000
194.95	-0.000
195.17	-0.000
195.38	-0.000
195.60	-0.000
195.81	-0.000
196.03	-0.000
196.25	-0.000
196.46	-0.000
196.68	-0.000
196.89	-0.000
197.11	-0.000
197.32	-0.000
197.54	-0.000
197.75	-0.000
197.97	-0.000
198.18	-0.000
198.40	-0.000
198.61	-0.000
198.83	-0.000
199.04	-0.000
199.26	-0.000
199.47	-0.000
199.69	-0.000
199.90	-0.000
200.12	-0.000
200.33	-0.000
200.55	-0.000
200.76	-0.000
200.98	-0.000
201.19	-0.000
201.41	-0.000
201.62	-0.000
201.84	-0.000
202.05	-0.000
202.27	-0.000
202.48	-0.000
202.70	-0.000
202.91	-0.000
203.13	-0.000
203.34	-0.000
203.56	-0.000
203.77	-0.000
203.99	-0.000
204.20	-0.000
204.42	-0.000
204.63	-0.000
204.85	-0.000
205.06	-0.000
205.28	-0.000
205.49	-0.000
205.71	-0.000
205.92	-0.000
206.14	-0.000
206.35	-0.000
206.56	-0.000
206.78	-0.000
206.99	-0.000
207.21	-0.000
207.42	-0.000
207.64	-0.000
207.85	-0.000
208.07	-0.000
208.28	-0.000
208.50	-0.000
208.71	-0.000
208.93	-0.000
209.14	-0.000
209.36	-0.000
209.57	-0.000
209.79	-0.000
210.00	-0.000
210.22	-0.000
210.43	-0.000
210.64	-0.000
210.86	-0.000
211.07	-0.000
211.29	-0.000
211.50	-0.000
211.72	-0.000
211.93	-0.000
212.15	-0.000
212.36	-0.000
212.58	-0.000
212.79	-0.000
213.01	-0.000
213.22	-0.000
213.43	-0.000
213.65	-0.000
213.86	-0.000
214.08	-0.000
214.29	-0.000
214.51	-0.000
214.72	-0.000
214.94	-0.000
215.15	-0.000
215.36	-0.000
215.58	-0.000
215.79	-0.000
216.01	-0.000
216.22	-0.000
216.44	-0.000
216.65	-0.000
216.87	-0.000
217.08	-0.000
217.29	-0.000
217.51	-0.000
217.72	-0.000
217.94	-0.000
218.15	-0.000
218.37	-0.000
218.58	-0.000
218.80	-0.000
219.01	-0.000
219.22	-0.000
219.44	-0.000
219.65	-0.000
219.87	-0.000
220.08	-0.000
220.30	-0.000
220.51	-0.000
220.72	-0.000
220.94	-0.000
221.15	-0.000
221.37	-0.000
221.58	-0.000
221.79	-0.000
222.01	-0.000
222.22	-0.000
222.44	-0.000
222.65	-0.000
222.87	-0.000
223.08	-0.000
223.29	-0.000
223.51	-0.000
223.72	-0.000
223.94	-0.000
224.15	-0.000
224.36	-0.000
224.58	-0.000
224.79	-0.000
225.01	-0.000
225.22	-0.000
225.44	-0.000
225.65	-0.000
225.86	-0.000
226.08	-0.000
226.29	-0.000
226.51	-0.000
226.72	-0.000
226.93	-0.000
227.15	-0.000
227.36	-0.000
227.58	-0.000
227.79	-0.000
228.00	-0.000
228.22	-0.000
228.43	-0.000
228.65	-0.000
228.86	-0.000
229.07	-0.000
229.29	-0.000
229.50	-0.000
229.72	-0.000
229.93	-0.000
230.14	-0.000
230.36	-0.000
230.57	-0.000
230.78	-0.000
231.00	-0.000
231.21	-0.000
231.43	-0.000
231.64	-0.000
231.85	-0.000
232.07	-0.000
232.28	-0.000
232.50	-0.000
232.71	-0.000
232.92	-0.000
233.14	-0.000
233.35	-0.000
233.56	-0.000
233.78	-0.000
233.99	-0.000
234.21	-0.000
234.42	-0.000
234.63	-0.000
234.85	-0.000
235.06	-0.000
235.27	-0.000
235.49	-0.000
235.70	-0.000
235.91	-0.000
236.13	-0.000
236.34	-0.000
236.56	-0.000
236.77	-0.000
236.98	-0.000
237.20	-0.000
237.41	-0.000
237.62	-0.000
237.84	-0.000
238.05	-0.000
238.26	-0.000
238.48	-0.000
238.69	-0.000
238.91	-0.000
239.12	-0.000
239.33	-0.000
239.55	-0.000
239.76	-0.000
239.97	-0.000
240.19	-0.000
240.40	-0.000
240.61	-0.000
240.83	-0.000
241.04	-0.000
241.25	-0.000
241.47	-0.000
241.68	-0.000
241.89	-0.000
242.11	-0.000
242.32	-0.000
242.53	-0.000
242.75	-0.000
242.96	-0.000
243.17	-0.000
243.39	-0.000
243.60	-0.000
243.81	-0.000
244.03	-0.000
244.24	-0.000
244.45	-0.000
244.67	-0.000
244.88	-0.000
245.09	-0.000
245.31	-0.000
245.52	-0.000
245.73	-0.000
245.95	-0.000
246.16	-0.000
246.37	-0.000
246.59	-0.000
246.80	-0.000
247.01	-0.000
247.23	-0.000
247.44	-0.000
247.65	-0.000
247.87	-0.000
248.08	-0.000
248.29	-0.000
248.51	-0.000
248.72	-0.000
248.93	-0.000
249.15	-0.000
249.36	-0.000
249.57	-0.000
249.78	-0.000
250.00	-0.000
250.21	-0.000
250.42	-0.000
250.64	-0.000
250.85	-0.000
251.06	-0.000
251.28	-0.000
251.49	-0.000
251.70	-0.000
251.92	-0.000
252.13	-0.000
252.34	-0.000
252.55	-0.000
252.77	-0.000
252.98	-0.000
253.19	-0.000
253.41	-0.000
253.62	-0.000
253.83	-0.000
254.05	-0.000
254.26	-0.000
254.47	-0.000
254.68	-0.000
254.90	-0.000
255.11	-0.000
255.32	-0.000
255.54	-0.000
255.75	-0.000
255.96	-0.000
256.17	-0.000
256.39	-0.000
256.60	-0.000
256.81	-0.000
257.03	-0.000
257.24	-0.000
257.45	-0.000
257.66	-0.000
257.88	-0.000
258.09	-0.000
258.30	-0.000
258.51	-0.000
258.73	-0.000
258.94	-0.000
259.15	-0.000
259.37	-0.000
259.58	-0.000
259.79	-0.000
260.00	-0.000
260.22	-0.000
260.43	-0.000
260.64	-0.000
260.85	-0.000
261.07	-0.000
261.28	-0.000
261.49	-0.000
261.71	-0.000
261.92	-0.000
262.13	-0.000
262.34	-0.000
262.56	-0.000
262.77	-0.000
262.98	-0.000
263.19	-0.000
263.41	-0.000
263.62	-0.000
263.83	-0.000
264.04	-0.000
264.26	-0.000
264.47	-0.000
264.68	-0.000
264.89	-0.000
265.11	-0.000
265.32	-0.000
265.53	-0.000
265.74	-0.000
265.96	-0.000
266.17	-0.000
266.38	-0.000
266.59	-0.000
266.81	-0.000
267.02	-0.000
267.23	-0.000
267.44	-0.000
267.65	-0.000
267.87	-0.000
268.08	-0.000
268.29	-0.000
268.50	-0.000
268.72	-0.000
268.93	-0.000
269.14	-0.000
269.35	-0.000
269.57	-0.000
269.78	-0.000
269.99	-0.000
270.20	-0.000
270.41	-0.000
270.63	-0.000
270.84	-0.000
271.05	-0.000
271.26	-0.000
271.48	-0.000
271.69	-0.000
271.90	-0.000
272.11	-0.000
272.32	-0.000
272.54	-0.000
272.75	-0.000
272.96	-0.000
273.17	-0.000
273.39	-0.000
273.60	-0.000
273.81	-0.000
274.02	-0.000
274.23	-0.000
274.45	-0.000
274.66	-0.000
274.87	-0.000
275.08	-0.000
275.29	-0.000
275.51	-0.000
275.72	-0.000
275.93	-0.000
276.14	-0.000
276.35	-0.000
276.57	-0.000
276.78	-0.000
276.99	-0.000
277.20	-0.000
277.41	-0.000
277.63	-0.000
277.84	-0.000
278.05	-0.000
278.26	-0.000
278.47	-0.000
278.69	-0.000
278.90	-0.000
279.11	-0.000
279.32	-0.000
279.53	-0.000
279.74	-0.000
279.96	-0.000
280.17	-0.000
280.38	-0.000
280.59	-0.000
280.80	-0.000
281.02	-0.000
281.23	-0.000
281.44	-0.000
281.65	-0.000
281.86	-0.000
282.07	-0.000
282.29	-0.000
282.50	-0.000
282.71	-0.000
282.92	-0.000
283.13	-0.000
283.35	-0.000
283.56	-0.000
283.77	-0.000
283.98	-0.000
284.19	-0.000
284.40	-0.000
284.62	-0.000
284.83	-0.000
285.04	-0.000
285.25	-0.000
285.46	-0.000
285.67	-0.000
285.88	-0.000
286.10	-0.000
286.31	-0.000
286.52	-0.000
286.73	-0.000
286.94	-0.000
287.15	-0.000
287.37	-0.000
287.58	-0.000
287.79	-0.000
288.00	-0.000
288.21	-0.000
288.42	-0.000
288.63	-0.000
288.85	-0.000
289.06	-0.000
289.27	-0.000
289.48	-0.000
289.69	-0.000
289.90	-0.000
290.11	-0.000
290.33	-0.000
290.54	-0.000
290.75	-0.000
290.96	-0.000
291.17	-0.000
291.38	-0.000
291.59	-0.000
291.81	-0.000
292.02	-0.000
292.23	-0.000
292.44	-0.000
292.65	-0.000
292.86	-0.000
293.07	-0.000
293.28	-0.000
293.50	-0.000
293.71	-0.000
293.92	-0.000
294.13	-0.000
294.34	-0.000
294.55	-0.000
294.76	-0.000
294.97	-0.000
295.19	-0.000
295.40	-0.000
295.61	-0.000
295.82	-0.000
296.03	-0.000
296.24	-0.000
296.45	-0.000
296.66	-0.000
296.87	-0.000
297.09	-0.000
297.30	-0.000
297.51	2.718
297.72	2.442
297.93	-0.000
298.14	3.077
298.35	2.519
298.56	2.364
298.77	-0.000
298.99	3.466
299.20	2.700
299.41	2.455
299.62	2.262
299.83	2.186
300.04	1.965
300.25	1.938
300.46	2.055
300.67	1.970
300.88	1.834
301.10	1.852
301.31	2.017
301.52	1.866
301.73	1.754
301.94	1.753
302.15	1.795
302.36	1.710
302.57	1.598
302.78	1.596
302.99	1.671
303.20	1.700
303.41	1.550
303.63	1.525
303.84	1.542
304.05	1.534
304.26	1.450
304.47	1.453
304.68	1.462
304.89	1.454
305.10	1.405
305.31	1.383
305.52	1.441
305.73	1.430
305.94	1.375
306.15	1.361
306.37	1.389
306.58	1.397
306.79	1.353
307.00	1.378
307.21	1.430
307.42	1.420
307.63	1.374
307.84	1.335
308.05	1.381
308.26	1.379
308.47	1.350
308.68	1.346
308.89	1.346
309.10	1.343
309.31	1.291
309.52	1.277
309.73	1.297
309.95	1.285
310.16	1.248
310.37	1.236
310.58	1.257
310.79	1.254
311.00	1.247
311.21	1.251
311.42	1.255
311.63	1.251
311.84	1.229
312.05	1.221
312.26	1.253
312.47	1.266
312.68	1.237
312.89	1.219
313.10	1.228
313.31	1.198
313.52	1.198
313.73	1.198
313.94	1.203
314.15	1.183
314.36	1.158
314.57	1.145
314.78	1.132
314.99	1.125
315.21	1.111
315.42	1.115
315.63	1.129
315.84	1.105
316.05	1.089
316.26	1.096
316.47	1.116
316.68	1.113
316.89	1.093
317.10	1.117
317.31	1.124
317.52	1.125
317.73	1.102
317.94	1.102
318.15	1.150
318.36	1.149
318.57	1.129
318.78	1.117
318.99	1.159
319.20	1.157
319.41	1.116
319.62	1.117
319.83	1.133
320.04	1.125
320.25	1.105
320.46	1.068
320.67	1.072
320.88	1.066
321.09	1.049
321.30	1.032
321.51	1.049
321.72	1.046
321.93	1.027
322.14	1.018
322.35	1.048
322.56	1.052
322.77	1.037
322.98	1.049
323.19	1.060
323.40	1.065
323.61	1.040
323.82	1.034
324.03	1.041
324.24	1.039
324.45	1.025
324.66	1.003
324.87	0.999
325.08	1.000
325.29	0.977
325.50	0.969
325.71	0.976
325.92	0.983
326.13	0.968
326.34	0.969
326.55	0.976
326.76	0.975
326.97	0.964
327.18	0.958
327.39	0.985
327.60	0.987
327.80	0.988
328.01	0.985
328.22	0.986
328.43	0.991
328.64	0.978
328.85	0.983
329.06	0.986
329.27	0.986
329.48	0.980
329.69	0.960
329.90	0.970
330.11	0.963
330.32	0.957
330.53	0.949
330.74	0.948
330.95	0.946
331.16	0.929
331.37	0.937
331.58	0.938
331.79	0.937
332.00	0.928
332.21	0.922
332.42	0.925
332.63	0.915
332.83	0.911
333.04	0.915
333.25	0.929
333.46	0.927
333.67	0.911
333.88	0.914
334.09	0.925
334.30	0.920
334.51	0.911
334.72	0.907
334.93	0.912
335.14	0.911
335.35	0.902
335.56	0.896
335.77	0.906
335.98	0.906
336.18	0.899
336.39	0.891
336.60	0.897
336.81	0.895
337.02	0.893
337.23	0.896
337.44	0.899
337.65	0.901
337.86	0.889
338.07	0.883
338.28	0.888
338.49	0.885
338.70	0.877
338.91	0.884
339.11	0.891
339.32	0.887
339.53	0.876
339.74	0.873
339.95	0.871
340.16	0.869
340.37	0.862
340.58	0.862
340.79	0.866
341.00	0.865
341.21	0.853
341.41	0.853
341.62	0.855
341.83	0.854
342.04	0.849
342.25	0.860
342.46	0.866
342.67	0.864
342.88	0.856
343.09	0.854
343.30	0.862
343.50	0.865
343.71	0.855
343.92	0.854
344.13	0.860
344.34	0.860
344.55	0.842
344.76	0.841
344.97	0.847
345.18	0.846
345.38	0.843
345.59	0.837
345.80	0.837
346.01	0.835
346.22	0.830
346.43	0.824
346.64	0.831
346.85	0.831
347.06	0.822
347.26	0.822
347.47	0.826
347.68	0.821
347.89	0.818
348.10	0.813
348.31	0.820
348.52	0.819
348.73	0.816
348.93	0.813
349.14	0.816
349.35	0.816
349.56	0.809
349.77	0.805
349.98	0.812
350.19	0.808
350.39	0.803
350.60	0.797
350.81	0.814
351.02	0.813
351.23	0.808
351.44	0.809
351.65	0.813
351.86	0.809
352.06	0.807
352.27	0.807
352.48	0.810
352.69	0.810
352.90	0.805
353.11	0.792
353.31	0.799
353.52	0.795
353.73	0.788
353.94	0.789
354.15	0.796
354.36	0.796
354.57	0.787
354.77	0.789
354.98	0.788
355.19	0.788
355.40	0.786
355.61	0.792
355.82	0.796
356.02	0.797
356.23	0.790
356.44	0.792
356.65	0.796
356.86	0.795
357.07	0.789
357.27	0.793
357.48	0.795
357.69	0.791
357.90	0.775
358.11	0.773
358.32	0.776
358.52	0.778
358.73	0.767
358.94	0.769
359.15	0.775
359.36	0.775
359.56	0.769
359.77	0.766
359.98	0.774
360.19	0.774
360.40	0.770
360.61	0.771
360.81	0.770
361.02	0.771
361.23	0.762
361.44	0.760
361.65	0.760
361.85	0.760
362.06	0.758
362.27	0.760
362.48	0.760
362.69	0.762
362.89	0.756
363.10	0.757
363.31	0.763
363.52	0.767
363.73	0.762
363.93	0.762
364.14	0.764
364.35	0.765
364.56	0.754
364.77	0.757
364.97	0.759
365.18	0.759
365.39	0.754
365.60	0.750
365.81	0.751
366.01	0.751
366.22	0.748
366.43	0.747
366.64	0.750
366.84	0.756
367.05	0.752
367.26	0.751
367.47	0.753
367.68	0.754
367.88	0.750
368.09	0.748
368.30	0.751
368.51	0.750
368.71	0.750
368.92	0.754
369.13	0.752
369.34	0.751
369.55	0.750
369.75	0.750
369.96	0.756
370.17	0.755
370.38	0.752
370.58	0.751
370.79	0.758
371.00	0.755
371.21	0.746
371.41	0.750
371.62	0.755
371.83	0.751
372.04	0.748
372.24	0.742
372.45	0.743
372.66	0.743
372.87	0.740
373.07	0.736
373.28	0.737
373.49	0.741
373.70	0.731
373.90	0.730
374.11	0.740
374.32	0.740
374.53	0.738
374.73	0.738
374.94	0.741
375.15	0.741
375.36	0.738
375.56	0.748
375.77	0.748
375.98	0.749
376.19	0.745
376.39	0.739
376.60	0.742
376.81	0.743
377.02	0.741
377.22	0.739
377.43	0.739
377.64	0.739
377.84	0.729
378.05	0.734
378.26	0.740
378.47	0.740
378.67	0.736
378.88	0.733
379.09	0.735
379.30	0.735
379.50	0.732
379.71	0.734
379.92	0.737
380.12	0.737
380.33	0.728
380.54	0.724
380.75	0.731
380.95	0.731
381.16	0.729
381.37	0.729
381.57	0.731
381.78	0.731
381.99	0.730
382.20	0.730
382.40	0.732
382.61	0.733
382.82	0.729
383.02	0.722
383.23	0.726
383.44	0.726
383.64	0.723
383.85	0.725
384.06	0.728
384.27	0.727
384.47	0.725
384.68	0.725
384.89	0.731
385.09	0.730
385.30	0.730
385.51	0.729
385.71	0.732
385.92	0.733
386.13	0.732
386.33	0.734
386.54	0.735
386.75	0.733
386.95	0.729
387.16	0.724
387.37	0.727
387.58	0.726
387.78	0.724
387.99	0.721
388.20	0.724
388.40	0.720
388.61	0.716
388.82	0.719
389.02	0.721
389.23	0.721
389.44	0.720
389.64	0.720
389.85	0.732
390.06	0.731
390.26	0.732
390.47	0.730
390.68	0.732
390.88	0.731
391.09	0.726
391.30	0.725
391.50	0.726
391.71	0.725
391.92	0.721
392.12	0.713
392.33	0.714
392.53	0.714
392.74	0.714
392.95	0.713
393.15	0.716
393.36	0.718
393.57	0.716
393.77	0.719
393.98	0.721
394.19	0.721
394.39	0.720
394.60	0.722
394.81	0.724
395.01	0.722
395.22	0.720
395.43	0.721
395.63	0.725
395.84	0.726
396.04	0.722
396.25	0.724
396.46	0.726
396.66	0.724
396.87	0.720
397.08	0.717
397.28	0.720
397.49	0.721
397.69	0.716
397.90	0.711
398.11	0.712
398.31	0.713
398.52	0.709
398.73	0.711
398.93	0.710
399.14	0.709
399.34	0.708
399.55	0.708
399.76	0.709
399.96	0.710
400.17	0.709
400.37	0.707
400.58	0.715
400.79	0.716
400.99	0.713
401.20	0.719
401.41	0.721
401.61	0.722
401.82	0.728
402.02	0.726
402.23	0.728
402.44	0.727
402.64	0.727
402.85	0.721
403.05	0.721
403.26	0.719
403.47	0.713
403.67	0.712
403.88	0.713
404.08	0.706
404.29	0.705
404.50	0.705
404.70	0.706
404.91	0.705
405.11	0.702
405.32	0.702
405.52	0.703
405.73	0.702
405.94	0.700
406.14	0.702
406.35	0.706
406.55	0.706
406.76	0.703
406.97	0.703
407.17	0.705
407.38	0.705
407.58	0.702
407.79	0.705
407.99	0.708
408.20	0.709
408.41	0.704
408.61	0.702
408.82	0.702
409.02	0.702
409.23	0.700
409.43	0.699
409.64	0.701
409.84	0.701
410.05	0.697
410.26	0.695
410.46	0.695
410.67	0.695
410.87	0.696
411.08	0.697
411.28	0.699
411.49	0.701
411.69	0.698
411.90	0.700
412.11	0.702
412.31	0.704
412.52	0.702
412.72	0.703
412.93	0.703
413.13	0.702
413.34	0.698
413.54	0.700
413.75	0.702
413.95	0.701
414.16	0.697
414.37	0.699
414.57	0.699
414.78	0.701
414.98	0.700
415.19	0.701
415.39	0.699
415.60	0.701
415.80	0.699
416.01	0.698
416.21	0.699
416.42	0.700
416.62	0.694
416.83	0.695
417.03	0.694
417.24	0.694
417.44	0.691
417.65	0.690
417.86	0.691
418.06	0.689
418.27	0.687
418.47	0.689
418.68	0.690
418.88	0.691
419.09	0.689
419.29	0.691
419.50	0.692
419.70	0.691
419.91	0.690
420.11	0.688
420.32	0.690
420.52	0.691
420.73	0.689
420.93	0.690
421.14	0.692
421.34	0.691
421.55	0.687
421.75	0.686
421.96	0.687
422.16	0.687
422.37	0.686
422.57	0.683
422.78	0.685
422.98	0.681
423.19	0.679
423.39	0.677
423.60	0.681
423.80	0.683
424.01	0.682
424.21	0.684
424.42	0.686
424.62	0.686
424.83	0.685
425.03	0.684
425.23	0.687
425.44	0.686
425.64	0.686
425.85	0.685
426.05	0.686
426.26	0.687
426.46	0.683
426.67	0.682
426.87	0.687
427.08	0.687
427.28	0.685
427.49	0.686
427.69	0.688
427.90	0.687
428.10	0.683
428.31	0.683
428.51	0.685
428.71	0.684
428.92	0.685
429.12	0.683
429.33	0.684
429.53	0.688
429.74	0.692
429.94	0.692
430.15	0.691
430.35	0.692
430.56	0.689
430.76	0.688
430.96	0.689
431.17	0.686
431.37	0.684
431.58	0.682
431.78	0.679
431.99	0.672
432.19	0.673
432.40	0.675
432.60	0.676
432.80	0.678
433.01	0.676
433.21	0.677
433.42	0.679
433.62	0.679
433.83	0.679
434.03	0.681
434.23	0.684
434.44	0.683
434.64	0.680
434.85	0.685
435.05	0.686
435.26	0.686
435.46	0.685
435.66	0.685
435.87	0.684
436.07	0.684
436.28	0.679
436.48	0.676
436.69	0.676
436.89	0.676
437.09	0.669
437.30	0.668
437.50	0.669
437.71	0.680
437.91	0.678
438.11	0.680
438.32	0.685
438.52	0.685
438.73	0.684
438.93	0.683
439.13	0.683
439.34	0.687
439.54	0.685
439.75	0.684
439.95	0.675
440.15	0.680
440.36	0.678
440.56	0.676
440.77	0.677
440.97	0.677
441.17	0.676
441.38	0.677
441.58	0.674
441.79	0.674
441.99	0.672
442.19	0.671
442.40	0.668
442.60	0.669
442.81	0.666
443.01	0.667
443.21	0.667
443.42	0.667
443.62	0.665
443.82	0.665
444.03	0.667
444.23	0.666
444.44	0.666
444.64	0.665
444.84	0.666
445.05	0.666
445.25	0.663
445.45	0.663
445.66	0.666
445.86	0.665
446.06	0.666
446.27	0.665
446.47	0.669
446.68	0.667
446.88	0.666
447.08	0.665
447.29	0.667
447.49	0.667
447.69	0.667
447.90	0.666
448.10	0.670
448.30	0.668
448.51	0.669
448.71	0.666
448.91	0.669
449.12	0.667
449.32	0.669
449.52	0.668
449.73	0.672
449.93	0.671
450.14	0.671
450.34	0.670
450.54	0.672
450.75	0.669
450.95	0.669
451.15	0.669
451.36	0.672
451.56	0.669
451.76	0.667
451.97	0.664
452.17	0.665
452.37	0.663
452.58	0.660
452.78	0.660
452.98	0.663
453.19	0.662
453.39	0.663
453.59	0.662
453.79	0.663
454.00	0.663
454.20	0.663
454.40	0.664
454.61	0.666
454.81	0.667
455.01	0.665
455.22	0.666
455.42	0.667
455.62	0.665
455.83	0.665
456.03	0.668
456.23	0.669
456.44	0.670
456.64	0.668
456.84	0.668
457.04	0.668
457.25	0.668
457.45	0.664
457.65	0.663
457.86	0.665
458.06	0.663
458.26	0.659
458.47	0.658
458.67	0.659
458.87	0.660
459.07	0.657
459.28	0.660
459.48	0.663
459.68	0.663
459.89	0.661
460.09	0.660
460.29	0.661
460.49	0.662
460.70	0.661
460.90	0.661
461.10	0.662
461.31	0.661
461.51	0.658
461.71	0.659
461.91	0.661
462.12	0.661
462.32	0.660
462.52	0.661
462.72	0.664
462.93	0.665
463.13	0.662
463.33	0.664
463.53	0.665
463.74	0.665
463.94	0.660
464.14	0.660
464.35	0.661
464.55	0.662
464.75	0.659
464.95	0.657
465.16	0.658
465.36	0.658
465.56	0.656
465.76	0.656
465.97	0.656
466.17	0.657
466.37	0.655
466.57	0.656
466.78	0.658
466.98	0.658
467.18	0.656
467.38	0.655
467.59	0.657
467.79	0.659
467.99	0.658
468.19	0.659
468.39	0.662
468.60	0.662
468.80	0.659
469.00	0.661
469.20	0.662
469.41	0.662
469.61	0.661
469.81	0.661
470.01	0.661
470.22	0.661
470.42	0.659
470.62	0.657
470.82	0.659
471.02	0.658
471.23	0.656
471.43	0.656
471.63	0.659
471.83	0.658
472.04	0.656
472.24	0.655
472.44	0.661
472.64	0.661
472.84	0.659
473.05	0.658
473.25	0.661
473.45	0.660
473.65	0.658
473.85	0.658
474.06	0.660
474.26	0.660
474.46	0.661
474.66	0.657
474.86	0.658
475.07	0.658
475.27	0.656
475.47	0.653
475.67	0.654
475.87	0.657
476.08	0.654
476.28	0.655
476.48	0.657
476.68	0.655
476.88	0.653
477.09	0.654
477.29	0.656
477.49	0.657
477.69	0.656
477.89	0.656
478.09	0.655
478.30	0.657
478.50	0.653
478.70	0.652
478.90	0.653
479.10	0.656
479.31	0.656
479.51	0.654
479.71	0.655
479.91	0.654
480.11	0.653
480.31	0.653
480.52	0.652
480.72	0.652
480.92	0.651
481.12	0.649
481.32	0.647
481.52	0.645
481.72	0.645
481.93	0.649
482.13	0.650
482.33	0.649
482.53	0.647
482.73	0.648
482.93	0.649
483.14	0.648
483.34	0.648
483.54	0.649
483.74	0.648
483.94	0.648
484.14	0.643
484.34	0.643
484.55	0.644
484.75	0.644
484.95	0.642
485.15	0.642
485.35	0.642
485.55	0.642
485.75	0.640
485.96	0.640
486.16	0.642
486.36	0.642
486.56	0.640
486.76	0.640
486.96	0.641
487.16	0.640
487.36	0.638
487.57	0.638
487.77	0.639
487.97	0.639
488.17	0.637
488.37	0.636
488.57	0.636
488.77	0.637
488.97	0.635
489.18	0.634
489.38	0.637
489.58	0.637
489.78	0.637
489.98	0.636
490.18	0.636
490.38	0.637
490.58	0.636
490.78	0.637
490.98	0.639
491.19	0.639
491.39	0.638
491.59	0.637
491.79	0.640
491.99	0.641
492.19	0.640
492.39	0.643
492.59	0.643
492.79	0.644
492.99	0.644
493.20	0.644
493.40	0.644
493.60	0.646
493.80	0.644
494.00	0.642
494.20	0.642
494.40	0.642
494.60	0.639
494.80	0.644
495.00	0.643
495.20	0.642
495.40	0.640
495.61	0.643
495.81	0.642
496.01	0.646
496.21	0.647
496.41	0.646
496.61	0.647
496.81	0.645
497.01	0.640
497.21	0.639
497.41	0.640
497.61	0.640
497.81	0.637
498.01	0.638
498.21	0.635
498.41	0.633
498.61	0.633
498.82	0.635
499.02	0.637
499.22	0.638
499.42	0.637
499.62	0.638
499.82	0.639
500.02	0.640
500.22	0.638
500.42	0.640
500.62	0.641
500.82	0.641
501.02	0.639
501.22	0.639
501.42	0.640
501.62	0.642
501.82	0.641
502.02	0.641
502.22	0.641
502.42	0.643
502.62	0.640
502.82	0.640
503.02	0.641
503.22	0.641
503.42	0.639
503.63	0.639
503.83	0.636
504.03	0.635
504.23	0.634
504.43	0.635
504.63	0.636
504.83	0.636
505.03	0.635
505.23	0.637
505.43	0.638
505.63	0.639
505.83	0.639
506.03	0.641
506.23	0.642
506.43	0.643
506.63	0.641
506.83	0.640
507.03	0.642
507.23	0.643
507.43	0.639
507.63	0.640
507.83	0.640
508.03	0.640
508.23	0.639
508.43	0.638
508.63	0.640
508.83	0.641
509.03	0.642
509.23	0.641
509.43	0.642
509.63	0.643
509.83	0.642
510.03	0.644
510.23	0.646
510.43	0.647
510.63	0.647
510.83	0.646
511.03	0.648
511.23	0.645
511.43	0.644
511.63	0.646
511.83	0.648
512.03	0.648
512.22	0.645
512.42	0.644
512.62	0.644
512.82	0.644
513.02	0.643
513.22	0.643
513.42	0.646
513.62	0.648
513.82	0.646
514.02	0.645
514.22	0.647
514.42	0.647
514.62	0.647
514.82	0.648
515.02	0.651
515.22	0.654
515.42	0.653
515.62	0.655
515.82	0.654
516.02	0.655
516.22	0.655
516.42	0.657
516.62	0.659
516.82	0.660
517.01	0.658
517.21	0.657
517.41	0.661
517.61	0.661
517.81	0.657
518.01	0.656
518.21	0.656
518.41	0.654
518.61	0.653
518.81	0.654
519.01	0.654
519.21	0.654
519.41	0.653
519.61	0.648
519.81	0.651
520.00	0.652
520.20	0.652
520.40	0.655
520.60	0.657
520.80	0.656
521.00	0.656
521.20	0.656
521.40	0.661
521.60	0.662
521.80	0.660
522.00	0.661
522.20	0.663
522.39	0.663
522.59	0.659
522.79	0.661
522.99	0.663
523.19	0.661
523.39	0.659
523.59	0.657
523.79	0.660
523.99	0.663
524.19	0.661
524.38	0.660
524.58	0.662
524.78	0.663
524.98	0.661
525.18	0.663
525.38	0.664
525.58	0.665
525.78	0.662
525.98	0.661
526.18	0.660
526.37	0.659
526.57	0.661
526.77	0.660
526.97	0.660
527.17	0.660
527.37	0.656
527.57	0.658
527.77	0.660
527.96	0.661
528.16	0.660
528.36	0.661
528.56	0.664
528.76	0.662
528.96	0.661
529.16	0.662
529.36	0.666
529.55	0.666
529.75	0.662
529.95	0.662
530.15	0.664
530.35	0.667
530.55	0.664
530.75	0.664
530.94	0.665
531.14	0.666
531.34	0.664
531.54	0.661
531.74	0.665
531.94	0.668
532.13	0.666
532.33	0.668
532.53	0.667
532.73	0.666
532.93	0.664
533.13	0.665
533.33	0.666
533.52	0.667
533.72	0.670
533.92	0.668
534.12	0.666
534.32	0.667
534.52	0.664
534.71	0.665
534.91	0.668
535.11	0.670
535.31	0.668
535.51	0.670
535.71	0.672
535.90	0.669
536.10	0.670
536.30	0.672
536.50	0.673
536.70	0.674
536.89	0.671
537.09	0.670
537.29	0.672
537.49	0.673
537.69	0.671
537.89	0.672
538.08	0.672
538.28	0.670
538.48	0.670
538.68	0.672
538.88	0.674
539.07	0.674
539.27	0.672
539.47	0.671
539.67	0.671
539.87	0.672
540.06	0.669
540.26	0.670
540.46	0.672
540.66	0.670
540.86	0.667
541.05	0.668
541.25	0.670
541.45	0.671
541.65	0.669
541.84	0.670
542.04	0.671
542.24	0.672
542.44	0.671
542.64	0.672
542.83	0.675
543.03	0.675
543.23	0.672
543.43	0.673
543.62	0.675
543.82	0.675
544.02	0.674
544.22	0.674
544.42	0.677
544.61	0.678
544.81	0.674
545.01	0.673
545.21	0.676
545.40	0.676
545.60	0.674
545.80	0.676
546.00	0.677
546.19	0.676
546.39	0.675
546.59	0.673
546.79	0.674
546.98	0.674
547.18	0.674
547.38	0.674
547.58	0.677
547.77	0.678
547.97	0.675
548.17	0.676
548.37	0.676
548.56	0.676
548.76	0.676
548.96	0.678
549.16	0.680
549.35	0.680
549.55	0.677
549.75	0.678
549.95	0.682
550.14	0.681
550.34	0.680
550.54	0.685
550.73	0.688
550.93	0.688
551.13	0.685
551.33	0.683
551.52	0.684
551.72	0.684
551.92	0.682
552.12	0.682
552.31	0.684
552.51	0.683
552.71	0.678
552.90	0.678
553.10	0.680
553.30	0.681
553.50	0.680
553.69	0.682
553.89	0.683
554.09	0.682
554.28	0.679
554.48	0.681
554.68	0.683
554.87	0.683
555.07	0.679
555.27	0.678
555.47	0.680
555.66	0.680
555.86	0.678
556.06	0.680
556.25	0.681
556.45	0.689
556.65	0.687
556.84	0.691
557.04	0.694
557.24	0.696
557.43	0.696
557.63	0.699
557.83	0.701
558.02	0.702
558.22	0.706
558.42	0.707
558.61	0.700
558.81	0.700
559.01	0.696
559.21	0.696
559.40	0.698
559.60	0.698
559.80	0.693
559.99	0.695
560.19	0.697
560.39	0.691
560.58	0.689
560.78	0.690
560.97	0.693
561.17	0.691
561.37	0.688
561.56	0.689
561.76	0.690
561.96	0.689
562.15	0.686
562.35	0.688
562.55	0.690
562.74	0.690
562.94	0.688
563.14	0.686
563.33	0.688
563.53	0.688
563.73	0.685
563.92	0.687
564.12	0.690
564.31	0.692
564.51	0.690
564.71	0.692
564.90	0.695
565.10	0.695
565.30	0.698
565.49	0.698
565.69	0.701
565.89	0.702
566.08	0.699
566.28	0.701
566.47	0.703
566.67	0.700
566.87	0.697
567.06	0.698
567.26	0.705
567.46	0.701
567.65	0.700
567.85	0.701
568.04	0.704
568.24	0.703
568.44	0.699
568.63	0.697
568.83	0.699
569.02	0.699
569.22	0.694
569.42	0.689
569.61	0.692
569.81	0.690
570.00	0.688
570.20	0.689
570.40	0.691
570.59	0.690
570.79	0.689
570.98	0.687
571.18	0.688
571.38	0.688
571.57	0.685
571.77	0.683
571.96	0.686
572.16	0.683
572.35	0.678
572.55	0.679
572.75	0.677
572.94	0.677
573.14	0.675
573.33	0.675
573.53	0.676
573.73	0.675
573.92	0.673
574.12	0.671
574.31	0.674
574.51	0.675
574.70	0.672
574.90	0.673
575.09	0.676
575.29	0.676
575.49	0.673
575.68	0.674
575.88	0.675
576.07	0.677
576.27	0.675
576.46	0.674
576.66	0.673
576.86	0.671
577.05	0.669
577.25	0.667
577.44	0.668
577.64	0.668
577.83	0.666
578.03	0.667
578.22	0.667
578.42	0.666
578.61	0.664
578.81	0.665
579.00	0.666
579.20	0.666
579.40	0.665
579.59	0.664
579.79	0.664
579.98	0.664
580.18	0.663
580.37	0.663
580.57	0.666
580.76	0.670
580.96	0.669
581.15	0.670
581.35	0.672
581.54	0.672
581.74	0.671
581.93	0.672
582.13	0.673
582.32	0.670
582.52	0.668
582.71	0.667
582.91	0.663
583.10	0.663
583.30	0.662
583.49	0.661
583.69	0.664
583.88	0.666
584.08	0.665
584.27	0.667
584.47	0.671
584.66	0.672
584.86	0.671
585.05	0.673
585.25	0.676
585.44	0.675
585.64	0.673
585.83	0.670
586.03	0.671
586.22	0.669
586.42	0.666
586.61	0.667
586.81	0.670
587.00	0.670
587.20	0.667
587.39	0.667
587.59	0.670
587.78	0.671
587.98	0.671
588.17	0.672
588.37	0.674
588.56	0.676
588.76	0.671
588.95	0.672
589.15	0.675
589.34	0.678
589.54	0.676
589.73	0.677
589.92	0.679
590.12	0.680
590.31	0.677
590.51	0.682
590.70	0.684
590.90	0.684
591.09	0.682
591.29	0.681
591.48	0.681
591.68	0.682
591.87	0.681
592.06	0.680
592.26	0.683
592.45	0.682
592.65	0.676
592.84	0.676
593.04	0.679
593.23	0.681
593.43	0.679
593.62	0.678
593.81	0.679
594.01	0.679
594.20	0.676
594.40	0.675
594.59	0.677
594.79	0.678
594.98	0.677
595.17	0.675
595.37	0.677
595.56	0.679
595.76	0.678
595.95	0.679
596.14	0.683
596.34	0.684
596.53	0.682
596.73	0.684
596.92	0.685
597.12	0.687
597.31	0.687
597.50	0.686
597.70	0.688
597.89	0.686
598.09	0.682
598.28	0.683
598.47	0.686
598.67	0.684
598.86	0.680
599.06	0.682
599.25	0.683
599.44	0.681
599.64	0.678
599.83	0.676
600.03	0.680
600.22	0.681
600.41	0.681
600.61	0.679
600.80	0.682
601.00	0.683
601.19	0.678
601.38	0.677
601.58	0.680
601.77	0.681
601.96	0.683
602.16	0.683
602.35	0.692
602.55	0.689
602.74	0.690
602.93	0.690
603.13	0.696
603.32	0.697
603.51	0.697
603.71	0.700
603.90	0.701
604.09	0.702
604.29	0.699
604.48	0.693
604.68	0.695
604.87	0.694
605.06	0.691
605.26	0.687
605.45	0.688
605.64	0.687
605.84	0.683
606.03	0.682
606.22	0.681
606.42	0.680
606.61	0.676
606.80	0.676
607.00	0.678
607.19	0.678
607.38	0.676
607.58	0.677
607.77	0.680
607.96	0.679
608.16	0.677
608.35	0.682
608.54	0.686
608.74	0.689
608.93	0.694
609.12	0.696
609.32	0.700
609.51	0.704
609.70	0.702
609.90	0.704
610.09	0.710
610.28	0.715
610.48	0.708
610.67	0.709
610.86	0.710
611.06	0.705
611.25	0.702
611.44	0.703
611.64	0.703
611.83	0.705
612.02	0.702
612.21	0.700
612.41	0.698
612.60	0.697
612.79	0.693
612.99	0.693
613.18	0.695
613.37	0.693
613.57	0.689
613.76	0.691
613.95	0.689
614.14	0.688
614.34	0.685
614.53	0.686
614.72	0.690
614.92	0.691
615.11	0.688
615.30	0.685
615.49	0.686
615.69	0.690
615.88	0.686
616.07	0.688
616.26	0.691
616.46	0.692
616.65	0.689
616.84	0.688
617.04	0.690
617.23	0.693
617.42	0.694
617.61	0.698
617.81	0.698
618.00	0.701
618.19	0.698
618.38	0.702
618.58	0.705
618.77	0.706
618.96	0.705
619.15	0.707
619.35	0.709
619.54	0.710
619.73	0.705
619.92	0.707
620.12	0.711
620.31	0.711
620.50	0.706
620.69	0.706
620.89	0.710
621.08	0.710
621.27	0.710
621.46	0.709
621.66	0.714
621.85	0.714
622.04	0.711
622.23	0.712
622.43	0.713
622.62	0.713
622.81	0.711
623.00	0.710
623.19	0.714
623.39	0.712
623.58	0.710
623.77	0.707
623.96	0.710
624.16	0.710
624.35	0.705
624.54	0.708
624.73	0.712
624.92	0.710
625.12	0.708
625.31	0.708
625.50	0.711
625.69	0.712
625.88	0.708
626.08	0.708
626.27	0.709
626.46	0.709
626.65	0.706
626.84	0.705
627.04	0.711
627.23	0.711
627.42	0.706
627.61	0.708
627.80	0.711
628.00	0.711
628.19	0.709
628.38	0.712
628.57	0.716
628.76	0.715
628.96	0.713
629.15	0.713
629.34	0.717
629.53	0.717
629.72	0.712
629.91	0.712
630.11	0.718
630.30	0.718
630.49	0.720
630.68	0.721
630.87	0.725
631.06	0.727
631.26	0.722
631.45	0.724
631.64	0.732
631.83	0.735
632.02	0.731
632.21	0.730
632.41	0.737
632.60	0.731
632.79	0.729
632.98	0.728
633.17	0.729
633.36	0.730
633.55	0.726
633.75	0.722
633.94	0.725
634.13	0.725
634.32	0.722
634.51	0.716
634.70	0.719
634.89	0.720
635.09	0.716
635.28	0.718
635.47	0.720
635.66	0.722
635.85	0.718
636.04	0.719
636.23	0.725
636.43	0.727
636.62	0.726
636.81	0.725
637.00	0.728
637.19	0.733
637.38	0.728
637.57	0.728
637.76	0.730
637.95	0.731
638.15	0.727
638.34	0.724
638.53	0.727
638.72	0.729
638.91	0.725
639.10	0.722
639.29	0.722
639.48	0.723
639.67	0.723
639.87	0.722
640.06	0.727
640.25	0.727
640.44	0.728
640.63	0.729
640.82	0.731
641.01	0.730
641.20	0.729
641.39	0.731
641.58	0.733
641.78	0.732
641.97	0.727
642.16	0.742
642.35	0.744
642.54	0.743
642.73	0.736
642.92	0.734
643.11	0.739
643.30	0.738
643.49	0.733
643.68	0.735
643.87	0.737
644.06	0.737
644.25	0.716
644.45	0.718
644.64	0.720
644.83	0.721
645.02	0.718
645.21	0.717
645.40	0.720
645.59	0.720
645.78	0.714
645.97	0.717
646.16	0.718
646.35	0.717
646.54	0.714
646.73	0.716
646.92	0.717
647.11	0.717
647.30	0.712
647.49	0.713
647.68	0.713
647.88	0.712
648.07	0.705
648.26	0.708
648.45	0.710
648.64	0.706
648.83	0.702
649.02	0.704
649.21	0.715
649.40	0.714
649.59	0.709
649.78	0.710
649.97	0.725
650.16	0.724
650.35	0.718
650.54	0.721
650.73	0.730
650.92	0.728
651.11	0.721
651.30	0.718
651.49	0.723
651.68	0.723
651.87	0.720
652.06	0.708
652.25	0.713
652.44	0.715
652.63	0.711
652.82	0.711
653.01	0.711
653.20	0.709
653.39	0.696
653.58	0.694
653.77	0.693
653.96	0.688
654.15	0.680
654.34	0.678
654.53	0.674
654.72	0.668
654.91	0.658
655.10	0.653
655.29	0.651
655.48	0.649
655.67	0.644
655.86	0.641
656.05	0.639
656.24	0.638
656.43	0.633
656.62	0.632
656.81	0.632
657.00	0.630
657.19	0.628
657.38	0.628
657.57	0.628
657.76	0.630
657.95	0.628
658.14	0.632
658.33	0.635
658.51	0.640
658.70	0.640
658.89	0.642
659.08	0.651
659.27	0.658
659.46	0.658
659.65	0.665
659.84	0.668
660.03	0.672
660.22	0.673
660.41	0.678
660.60	0.678
660.79	0.679
660.98	0.685
661.17	0.684
661.36	0.685
661.55	0.686
661.74	0.684
661.92	0.687
662.11	0.690
662.30	0.689
662.49	0.682
662.68	0.681
662.87	0.685
663.06	0.679
663.25	0.679
663.44	0.679
663.63	0.679
663.82	0.678
664.01	0.672
664.20	0.670
664.38	0.672
664.57	0.672
664.76	0.671
664.95	0.672
665.14	0.677
665.33	0.672
665.52	0.680
665.71	0.684
665.90	0.683
666.09	0.685
666.28	0.683
666.46	0.682
666.65	0.684
666.84	0.683
667.03	0.677
667.22	0.675
667.41	0.678
667.60	0.666
667.79	0.659
667.98	0.660
668.16	0.661
668.35	0.660
668.54	0.655
668.73	0.656
668.92	0.656
669.11	0.655
669.30	0.649
669.49	0.645
669.67	0.648
669.86	0.650
670.05	0.647
670.24	0.645
670.43	0.643
670.62	0.642
670.81	0.637
671.00	0.638
671.18	0.638
671.37	0.637
671.56	0.635
671.75	0.634
671.94	0.631
672.13	0.630
672.32	0.625
672.50	0.625
672.69	0.625
672.88	0.625
673.07	0.620
673.26	0.622
673.45	0.624
673.63	0.623
673.82	0.619
674.01	0.621
674.20	0.620
674.39	0.620
674.58	0.620
674.76	0.619
674.95	0.618
675.14	0.618
675.33	0.614
675.52	0.612
675.71	0.613
675.89	0.613
676.08	0.608
676.27	0.607
676.46	0.608
676.65	0.607
676.84	0.606
677.02	0.608
677.21	0.611
677.40	0.610
677.59	0.607
677.78	0.608
677.96	0.610
678.15	0.609
678.34	0.607
678.53	0.608
678.72	0.608
678.90	0.604
679.09	0.599
679.28	0.596
679.47	0.596
679.66	0.595
679.84	0.590
680.03	0.588
680.22	0.588
680.41	0.590
680.60	0.587
680.78	0.586
680.97	0.589
681.16	0.589
681.35	0.588
681.53	0.587
681.72	0.588
681.91	0.590
682.10	0.588
682.29	0.590
682.47	0.588
682.66	0.587
682.85	0.585
683.04	0.583
683.22	0.584
683.41	0.586
683.60	0.585
683.79	0.586
683.97	0.585
684.16	0.584
684.35	0.581
684.54	0.582
684.72	0.583
684.91	0.584
685.10	0.582
685.29	0.584
685.47	0.581
685.66	0.580
685.85	0.576
686.04	0.575
686.22	0.578
686.41	0.580
686.60	0.577
686.79	0.579
686.97	0.580
687.16	0.581
687.35	0.578
687.54	0.581
687.72	0.585
687.91	0.586
688.10	0.587
688.29	0.586
688.47	0.585
688.66	0.584
688.85	0.580
689.03	0.579
689.22	0.583
689.41	0.583
689.60	0.578
689.78	0.575
689.97	0.576
690.16	0.574
690.34	0.570
690.53	0.570
690.72	0.570
690.91	0.568
691.09	0.566
691.28	0.560
691.47	0.559
691.65	0.558
691.84	0.555
692.03	0.553
692.21	0.551
692.40	0.552
692.59	0.549
692.77	0.548
692.96	0.549
693.15	0.550
693.34	0.548
693.52	0.548
693.71	0.548
693.90	0.549
694.08	0.550
694.27	0.552
694.46	0.561
694.64	0.561
694.83	0.560
695.02	0.559
695.20	0.559
695.39	0.559
695.58	0.558
695.76	0.559
695.95	0.560
696.14	0.559
696.32	0.556
696.51	0.546
696.70	0.547
696.88	0.548
697.07	0.546
697.26	0.548
697.44	0.549
697.63	0.548
697.81	0.546
698.00	0.545
698.19	0.545
698.37	0.545
698.56	0.545
698.75	0.545
698.93	0.545
699.12	0.545
699.31	0.543
699.49	0.543
699.68	0.544
699.87	0.546
700.05	0.546
700.24	0.545
700.42	0.546
700.61	0.546
700.80	0.543
700.98	0.543
701.17	0.544
701.36	0.543
701.54	0.542
701.73	0.544
701.91	0.541
702.10	0.540
702.29	0.538
702.47	0.537
702.66	0.538
702.84	0.540
703.03	0.538
703.22	0.539
703.40	0.540
703.59	0.541
703.77	0.541
703.96	0.541
704.15	0.542
704.33	0.542
704.52	0.542
704.70	0.541
704.89	0.541
705.08	0.541
705.26	0.536
705.45	0.536
705.63	0.536
705.82	0.532
706.00	0.531
706.19	0.530
706.38	0.530
706.56	0.529
706.75	0.527
706.93	0.526
707.12	0.527
707.30	0.528
707.49	0.525
707.68	0.523
707.86	0.523
708.05	0.523
708.23	0.520
708.42	0.521
708.60	0.524
708.79	0.524
708.98	0.523
709.16	0.522
709.35	0.524
709.53	0.527
709.72	0.526
709.90	0.528
710.09	0.530
710.27	0.532
710.46	0.536
710.64	0.534
710.83	0.536
711.02	0.538
711.20	0.536
711.39	0.535
711.57	0.533
711.76	0.533
711.94	0.531
712.13	0.532
712.31	0.532
712.50	0.527
712.68	0.524
712.87	0.525
713.05	0.526
713.24	0.526
713.42	0.525
713.61	0.525
713.79	0.527
713.98	0.527
714.16	0.527
714.35	0.526
714.54	0.527
714.72	0.527
714.91	0.524
715.09	0.531
715.28	0.534
715.46	0.534
715.65	0.532
715.83	0.532
716.02	0.534
716.20	0.531
716.39	0.531
716.57	0.532
716.76	0.534
716.94	0.534
717.12	0.526
717.31	0.528
717.49	0.531
717.68	0.533
717.86	0.532
718.05	0.535
718.23	0.537
718.42	0.539
718.60	0.541
718.79	0.549
718.97	0.551
719.16	0.553
719.34	0.550
719.53	0.550
719.71	0.550
719.90	0.552
720.08	0.549
720.27	0.550
720.45	0.550
720.63	0.550
720.82	0.543
721.00	0.547
721.19	0.550
721.37	0.549
721.56	0.549
721.74	0.551
721.93	0.560
722.11	0.568
722.30	0.566
722.48	0.570
722.66	0.571
722.85	0.571
723.03	0.571
723.22	0.570
723.40	0.574
723.59	0.574
723.77	0.578
723.95	0.571
724.14	0.571
724.32	0.573
724.51	0.573
724.69	0.575
724.88	0.574
725.06	0.572
725.24	0.572
725.43	0.574
725.61	0.577
725.80	0.571
725.98	0.569
726.16	0.566
726.35	0.574
726.53	0.572
726.72	0.570
726.90	0.581
727.09	0.583
727.27	0.589
727.45	0.585
727.64	0.593
727.82	0.602
728.01	0.607
728.19	0.604
728.37	0.609
728.56	0.612
728.74	0.618
728.92	0.605
729.11	0.606
729.29	0.606
729.48	0.609
729.66	0.600
729.84	0.601
730.03	0.606
730.21	0.607
730.40	0.596
730.58	0.598
730.76	0.600
730.95	0.603
731.13	0.603
731.31	0.616
731.50	0.625
731.68	0.627
731.86	0.623
732.05	0.638
732.23	0.641
732.42	0.646
732.60	0.650
732.78	0.656
732.97	0.676
733.15	0.683
733.33	0.670
733.52	0.677
733.70	0.689
733.88	0.696
734.07	0.680
734.25	0.708
734.43	0.718
734.62	0.721
734.80	0.716
734.98	0.707
735.17	0.715
735.35	0.721
735.53	0.710
735.72	0.716
735.90	0.742
736.08	0.764
736.27	0.736
736.45	0.745
736.63	0.759
736.82	0.767
737.00	0.766
737.18	0.778
737.37	0.814
737.55	0.840
737.73	0.832
737.92	0.835
738.10	0.834
738.28	0.860
738.46	0.848
738.65	0.865
738.83	0.894
739.01	0.958
739.20	0.943
739.38	0.925
739.56	0.915
739.75	0.919
739.93	0.880
740.11	0.908
740.29	0.911
740.48	0.920
740.66	0.894
740.84	0.887
741.03	0.847
741.21	0.862
741.39	0.837
741.57	0.854
741.76	0.875
741.94	0.882
742.12	0.841
742.31	0.844
742.49	0.865
742.67	0.894
742.85	0.908
743.04	0.916
743.22	0.927
743.40	0.990
743.58	0.963
743.77	0.982
743.95	1.030
744.13	1.089
744.31	1.064
744.50	1.049
744.68	1.043
744.86	1.014
745.04	1.022
745.23	1.098
745.41	1.089
745.59	1.099
745.77	1.057
745.96	1.038
746.14	1.054
746.32	1.060
746.50	1.057
746.69	1.045
746.87	1.066
747.05	1.050
747.23	0.958
747.42	0.939
747.60	0.976
747.78	0.979
747.96	1.015
748.14	0.957
748.33	0.990
748.51	0.983
748.69	0.964
748.87	0.996
749.06	0.996
749.24	1.001
749.42	0.981
749.60	0.953
749.78	0.969
749.97	0.911
750.15	0.905
750.33	0.905
750.51	0.933
750.69	0.941
750.88	0.938
751.06	0.948
751.24	0.979
751.42	0.968
751.60	0.960
751.79	1.040
751.97	1.104
752.15	1.105
752.33	1.063
752.51	1.148
752.69	1.175
752.88	1.135
753.06	1.190
753.24	1.153
753.42	1.206
753.60	1.466
753.78	1.238
753.97	1.251
754.15	1.278
754.33	1.310
754.51	1.138
754.69	1.119
754.87	1.159
755.06	1.068
755.24	1.067
755.42	1.073
755.60	0.955
755.78	0.968
755.96	0.909
756.15	0.907
756.33	0.914
756.51	0.935
756.69	0.920
756.87	0.880
757.05	0.902
757.23	0.882
757.42	0.844
757.60	0.842
757.78	0.828
757.96	0.824
758.14	0.807
758.32	0.790
758.50	0.805
758.69	0.801
758.87	0.793
759.05	0.799
759.23	0.809
759.41	0.809
759.59	0.800
759.77	0.825
759.95	0.858
760.13	0.910
760.32	0.907
760.50	0.898
760.68	0.930
760.86	0.932
761.04	0.896
761.22	0.906
761.40	0.965
761.58	0.967
761.76	0.935
761.95	0.914
762.13	0.867
762.31	0.867
762.49	0.834
762.67	0.850
762.85	0.864
763.03	0.860
763.21	0.836
763.39	0.813
763.57	0.818
763.75	0.812
763.94	0.793
764.12	0.793
764.30	0.821
764.48	0.825
764.66	0.786
764.84	0.785
765.02	0.829
765.20	0.836
765.38	0.813
765.56	0.818
765.74	0.863
765.92	0.865
766.10	0.872
766.28	0.864
766.46	0.897
766.65	0.897
766.83	0.880
767.01	0.861
767.19	0.873
767.37	0.875
767.55	0.857
767.73	0.836
767.91	0.841
768.09	0.829
768.27	0.815
768.45	0.804
768.63	0.812
768.81	0.814
768.99	0.785
769.17	0.810
769.35	0.827
769.53	0.826
769.71	0.803
769.89	0.814
770.07	0.822
770.25	0.802
770.43	0.780
770.61	0.804
770.79	0.813
770.97	0.823
771.15	0.788
771.33	0.790
771.51	0.793
771.69	0.806
771.87	0.813
772.05	0.819
772.24	0.829
772.42	0.838
772.60	0.814
772.78	0.880
772.96	0.913
773.14	0.908
773.32	0.881
773.49	0.892
773.67	0.890
773.85	0.866
774.03	0.851
774.21	0.887
774.39	0.903
774.57	0.928
774.75	0.844
774.93	0.840
775.11	0.866
775.29	0.875
775.47	0.874
775.65	0.885
775.83	0.904
776.01	0.928
776.19	0.872
776.37	0.869
776.55	0.871
776.73	0.867
776.91	0.859
777.09	0.840
777.27	0.841
777.45	0.828
777.63	0.800
777.81	0.798
777.99	0.787
778.17	0.789
778.35	0.766
778.53	0.752
778.71	0.760
778.89	0.748
779.07	0.736
779.24	0.739
779.42	0.743
779.60	0.765
779.78	0.762
779.96	0.766
780.14	0.773
780.32	0.795
780.50	0.777
780.68	0.776
780.86	0.767
781.04	0.785
781.22	0.790
781.40	0.805
781.58	0.795
781.75	0.785
781.93	0.766
782.11	0.764
782.29	0.749
782.47	0.749
782.65	0.735
782.83	0.765
783.01	0.759
783.19	0.751
783.37	0.730
783.55	0.730
783.72	0.751
783.90	0.763
784.08	0.753
784.26	0.767
784.44	0.789
784.62	0.790
784.80	0.756
784.98	0.763
785.16	0.770
785.33	0.787
785.51	0.774
785.69	0.757
785.87	0.757
786.05	0.773
786.23	0.765
786.41	0.762
786.59	0.770
786.77	0.770
786.94	0.752
787.12	0.756
787.30	0.759
787.48	0.757
787.66	0.743
787.84	0.744
788.02	0.735
788.19	0.733
788.37	0.716
788.55	0.717
788.73	0.717
788.91	0.712
789.09	0.691
789.27	0.679
789.44	0.691
789.62	0.696
789.80	0.704
789.98	0.728
790.16	0.714
790.34	0.711
790.51	0.697
790.69	0.716
790.87	0.724
791.05	0.722
791.23	0.716
791.41	0.715
791.58	0.725
791.76	0.703
791.94	0.671
792.12	0.681
792.30	0.683
792.48	0.681
792.65	0.675
792.83	0.681
793.01	0.690
793.19	0.688
793.37	0.671
793.54	0.667
793.72	0.679
793.90	0.677
794.08	0.665
794.26	0.666
794.43	0.678
794.61	0.661
794.79	0.650
794.97	0.649
795.15	0.654
795.32	0.659
795.50	0.648
795.68	0.644
795.86	0.649
796.04	0.652
796.21	0.644
796.39	0.642
796.57	0.657
796.75	0.665
796.92	0.666
797.10	0.672
797.28	0.675
797.46	0.679
797.64	0.679
797.81	0.686
797.99	0.690
798.17	0.696
798.35	0.689
798.52	0.692
798.70	0.688
798.88	0.697
799.06	0.695
799.23	0.697
799.41	0.707
799.59	0.698
799.77	0.687
799.94	0.697
800.12	0.707
800.30	0.727
800.48	0.724
800.65	0.722
800.83	0.711
801.01	0.705
801.19	0.704
801.36	0.699
801.54	0.704
801.72	0.712
801.90	0.697
802.07	0.690
802.25	0.674
802.43	0.658
802.60	0.654
802.78	0.661
802.96	0.666
803.14	0.658
803.31	0.656
803.49	0.655
803.67	0.654
803.84	0.658
804.02	0.652
804.20	0.655
804.38	0.661
804.55	0.661
804.73	0.645
804.91	0.647
805.08	0.663
805.26	0.660
805.44	0.730
805.61	0.733
805.79	0.735
805.97	0.733
806.15	0.723
806.32	0.718
806.50	0.724
806.68	0.724
806.85	0.713
807.03	0.702
807.21	0.721
807.38	0.649
807.56	0.638
807.74	0.648
807.91	0.654
808.09	0.657
808.27	0.677
808.44	0.706
808.62	0.718
808.80	0.718
808.97	0.713
809.15	0.705
809.33	0.722
809.50	0.728
809.68	0.713
809.86	0.724
810.03	0.761
810.21	0.740
810.39	0.721
810.56	0.727
810.74	0.755
810.91	0.835
811.09	0.821
811.27	0.845
811.44	0.855
811.62	0.855
811.80	0.835
811.97	0.800
812.15	0.800
812.33	0.792
812.50	0.775
812.68	0.763
812.85	0.703
813.03	0.707
813.21	0.673
813.38	0.665
813.56	0.669
813.74	0.678
813.91	0.685
814.09	0.715
814.26	0.711
814.44	0.715
814.62	0.704
814.79	0.708
814.97	0.712
815.14	0.720
815.32	0.723
815.50	0.744
815.67	0.749
815.85	0.738
816.02	0.728
816.20	0.734
816.38	0.752
816.55	0.758
816.73	0.758
816.90	0.771
817.08	0.806
817.26	0.812
817.43	0.789
817.61	0.816
817.78	0.843
817.96	0.814
818.13	0.802
818.31	0.801
818.49	0.818
818.66	0.805
818.84	0.787
819.01	0.762
819.19	0.772
819.36	0.774
819.54	0.739
819.71	0.785
819.89	0.803
820.07	0.819
820.24	0.810
820.42	0.810
820.59	0.836
820.77	0.862
820.94	0.853
821.12	0.875
821.29	0.893
821.47	0.896
821.64	0.819
821.82	0.836
822.00	0.834
822.17	0.836
822.35	0.827
822.52	0.830
822.70	0.821
822.87	0.831
823.05	0.805
823.22	0.817
823.40	0.852
823.57	0.880
823.75	0.855
823.92	0.884
824.10	0.908
824.27	0.957
824.45	0.939
824.62	1.011
824.80	1.036
824.97	1.054
825.15	1.039
825.32	1.050
825.50	1.056
825.67	1.074
825.85	1.051
826.02	1.070
826.20	1.100
826.37	1.291
826.55	1.173
826.72	1.514
826.90	1.719
827.07	1.936
827.25	1.775
827.42	-0.000
827.60	-0.000
827.77	-0.000
827.95	-0.000
828.12	-0.000
828.30	-0.000
828.47	-0.000
828.65	1.820
828.82	2.125
829.00	-0.000
829.17	-0.000
829.34	-0.000
829.52	-0.000
829.69	-0.000
829.87	-0.000
830.04	-0.000
830.22	-0.000
830.39	-0.000
830.57	-0.000
830.74	-0.000
830.92	-0.000
831.09	-0.000
831.26	-0.000
831.44	-0.000
831.61	-0.000
831.79	-0.000
831.96	-0.000
832.14	-0.000
832.31	-0.000
832.49	-0.000
832.66	-0.000
832.83	-0.000
833.01	-0.000
833.18	-0.000
833.36	-0.000
833.53	-0.000
833.70	-0.000
833.88	-0.000
834.05	-0.000
834.23	-0.000
834.40	-0.000
834.58	-0.000
834.75	-0.000
834.92	-0.000
835.10	-0.000
835.27	-0.000
835.45	-0.000
835.62	-0.000
835.79	-0.000
835.97	-0.000
836.14	-0.000
836.32	-0.000
836.49	-0.000
836.66	-0.000
836.84	-0.000
837.01	-0.000
837.18	-0.000
837.36	-0.000
837.53	-0.000
837.71	-0.000
837.88	-0.000
838.05	-0.000
838.23	-0.000
838.40	-0.000
838.58	-0.000
838.75	-0.000
838.92	-0.000
839.10	-0.000
839.27	-0.000
839.44	-0.000
839.62	-0.000
839.79	-0.000
839.96	-0.000
840.14	-0.000
840.31	-0.000
840.48	-0.000
840.66	-0.000
840.83	-0.000
841.01	-0.000
841.18	-0.000
841.35	-0.000
841.53	-0.000
841.70	-0.000
841.87	-0.000
842.05	-0.000
842.22	-0.000
842.39	-0.000
842.57	-0.000
842.74	-0.000
842.91	-0.000
843.09	-0.000
843.26	-0.000
843.43	-0.000
843.60	-0.000
843.78	-0.000
843.95	-0.000
844.12	-0.000
844.30	-0.000
844.47	-0.000
844.64	-0.000
844.82	-0.000
844.99	-0.000
845.16	-0.000
845.34	-0.000
845.51	-0.000
845.68	-0.000
845.85	-0.000
846.03	-0.000
846.20	-0.000
846.37	-0.000
846.55	-0.000
846.72	-0.000
846.89	-0.000
847.06	-0.000
847.24	-0.000
847.41	-0.000
847.58	-0.000
847.76	-0.000
847.93	-0.000
848.10	-0.000
848.27	-0.000
848.45	-0.000
848.62	-0.000
848.79	-0.000
848.97	-0.000
849.14	-0.000
849.31	-0.000
849.48	-0.000
849.66	-0.000
849.83	-0.000
850.00	-0.000
850.17	-0.000
850.35	-0.000
850.52	-0.000
850.69	-0.000
850.86	-0.000
851.04	-0.000
851.21	-0.000
851.38	-0.000
851.55	-0.000
851.72	-0.000
851.90	-0.000
852.07	-0.000
852.24	-0.000
852.41	-0.000
852.59	-0.000
852.76	-0.000
852.93	-0.000
853.10	-0.000
853.28	-0.000
853.45	-0.000
853.62	-0.000
853.79	-0.000
853.96	-0.000
854.14	-0.000
854.31	-0.000
854.48	-0.000
854.65	-0.000
854.82	-0.000
855.00	-0.000
855.17	-0.000
855.34	-0.000
855.51	-0.000
855.68	-0.000
855.86	-0.000
856.03	-0.000
856.20	-0.000
856.37	-0.000
856.54	-0.000
856.72	-0.000
856.89	-0.000
857.06	-0.000
857.23	-0.000
857.40	-0.000
857.57	-0.000
857.75	-0.000
857.92	-0.000
858.09	-0.000
858.26	-0.000
858.43	-0.000
858.60	-0.000
858.78	-0.000
858.95	-0.000
859.12	-0.000
859.29	-0.000
859.46	-0.000
859.63	-0.000
859.81	-0.000
859.98	-0.000
860.15	-0.000
860.32	-0.000
860.49	-0.000
860.66	-0.000
860.83	-0.000
861.01	-0.000
861.18	-0.000
861.35	-0.000
861.52	-0.000
861.69	-0.000
861.86	-0.000
862.03	-0.000
862.21	-0.000
862.38	-0.000
862.55	-0.000
862.72	-0.000
862.89	-0.000
863.06	-0.000
863.23	-0.000
863.40	-0.000
863.58	-0.000
863.75	-0.000
863.92	-0.000
864.09	-0.000
864.26	-0.000
864.43	-0.000
864.60	-0.000
864.77	-0.000
864.94	-0.000
865.11	-0.000
865.29	-0.000
865.46	-0.000
865.63	-0.000
865.80	-0.000
865.97	-0.000
866.14	-0.000
866.31	-0.000
866.48	-0.000
866.65	-0.000
866.82	-0.000
866.99	-0.000
867.16	-0.000
867.34	-0.000
867.51	-0.000
867.68	-0.000
867.85	-0.000
868.02	-0.000
868.19	-0.000
868.36	-0.000
868.53	-0.000
868.70	-0.000
868.87	-0.000
869.04	-0.000
869.21	-0.000
869.38	-0.000
869.55	-0.000
869.72	-0.000
869.89	-0.000
870.06	-0.000
870.24	-0.000
870.41	-0.000
870.58	-0.000
870.75	-0.000
870.92	-0.000
871.09	-0.000
871.26	-0.000
871.43	-0.000
871.60	-0.000
871.77	-0.000
871.94	-0.000
872.11	-0.000
872.28	-0.000
872.45	-0.000
872.62	-0.000
872.79	-0.000
872.96	-0.000
873.13	-0.000
873.30	-0.000
873.47	-0.000
873.64	-0.000
873.81	-0.000
873.98	-0.000
874.15	-0.000
874.32	-0.000
874.49	-0.000
874.66	-0.000
874.83	-0.000
875.00	-0.000
875.17	-0.000
875.34	-0.000
875.51	-0.000
875.68	-0.000
875.85	-0.000
876.02	-0.000
876.19	-0.000
876.36	-0.000
876.53	-0.000
876.70	-0.000
876.87	-0.000
877.04	-0.000
877.21	-0.000
877.38	-0.000
877.55	-0.000
877.72	-0.000
877.89	-0.000
878.06	-0.000
878.23	-0.000
878.39	-0.000
878.56	-0.000
878.73	-0.000
878.90	-0.000
879.07	-0.000
879.24	-0.000
879.41	-0.000
879.58	-0.000
879.75	-0.000
879.92	-0.000
880.09	-0.000
880.26	-0.000
880.43	-0.000
880.60	-0.000
880.77	-0.000
880.94	-0.000
881.11	-0.000
881.27	-0.000
881.44	-0.000
881.61	-0.000
881.78	-0.000
881.95	-0.000
882.12	-0.000
882.29	-0.000
882.46	-0.000
882.63	-0.000
882.80	-0.000
882.97	-0.000
883.14	-0.000
883.30	-0.000
883.47	-0.000
883.64	-0.000
883.81	-0.000
883.98	-0.000
884.15	-0.000
884.32	-0.000
884.49	-0.000
884.66	-0.000
884.82	-0.000
884.99	-0.000
885.16	-0.000
885.33	-0.000
885.50	-0.000
885.67	-0.000
885.84	-0.000
886.01	-0.000
886.17	-0.000
886.34	-0.000
886.51	-0.000
886.68	-0.000
886.85	-0.000
887.02	-0.000
887.19	-0.000
887.36	-0.000
887.52	-0.000
887.69	-0.000
887.86	-0.000
888.03	-0.000
888.20	-0.000
888.37	-0.000
888.54	-0.000
888.70	-0.000
888.87	-0.000
889.04	-0.000
889.21	-0.000
889.38	-0.000
889.55	-0.000
889.71	-0.000
889.88	-0.000
890.05	-0.000
890.22	-0.000
890.39	-0.000
>>>>>End Processed Spectral Data<<<<<
