SpectraSuite Data File
++++++++++++++++++++++++++++++++++++
Date: Fri Jun 19 14:17:28 CEST 2015
User: introlabs
Dark Spectrum Present: Yes
Reference Spectrum Present: Yes
Number of Sampled Component Spectra: 1
Spectrometers: USB4H08886
Integration Time (usec): 745692 (USB4H08886)
Spectra Averaged: 5 (USB4H08886)
Boxcar Smoothing: 5 (USB4H08886)
Correct for Electrical Dark: Yes (USB4H08886)
Strobe/Lamp Enabled: No (USB4H08886)
Correct for Detector Non-linearity: Yes (USB4H08886)
Correct for Stray Light: Yes (USB4H08886)
Number of Pixels in Processed Spectrum: 3648
>>>>>Begin Processed Spectral Data<<<<<
178.14	-0.000
178.36	-0.000
178.57	-0.000
178.79	-0.000
179.01	-0.000
179.22	-0.000
179.44	-0.000
179.65	-0.000
179.87	-0.000
180.08	-0.000
180.30	-0.000
180.52	-0.000
180.73	-0.000
180.95	-0.000
181.16	-0.000
181.38	-0.000
181.59	-0.000
181.81	-0.000
182.03	-0.000
182.24	-0.000
182.46	-0.000
182.67	-0.000
182.89	-0.000
183.10	-0.000
183.32	-0.000
183.54	-0.000
183.75	-0.000
183.97	-0.000
184.18	-0.000
184.40	-0.000
184.61	-0.000
184.83	-0.000
185.04	-0.000
185.26	-0.000
185.48	-0.000
185.69	-0.000
185.91	-0.000
186.12	-0.000
186.34	-0.000
186.55	-0.000
186.77	-0.000
186.98	-0.000
187.20	-0.000
187.42	-0.000
187.63	-0.000
187.85	-0.000
188.06	-0.000
188.28	-0.000
188.49	-0.000
188.71	-0.000
188.92	-0.000
189.14	-0.000
189.36	-0.000
189.57	-0.000
189.79	-0.000
190.00	-0.000
190.22	-0.000
190.43	-0.000
190.65	-0.000
190.86	-0.000
191.08	-0.000
191.29	-0.000
191.51	-0.000
191.72	-0.000
191.94	-0.000
192.16	-0.000
192.37	-0.000
192.59	-0.000
192.80	-0.000
193.02	-0.000
193.23	-0.000
193.45	-0.000
193.66	-0.000
193.88	-0.000
194.09	-0.000
194.31	-0.000
194.52	-0.000
194.74	-0.000
194.95	-0.000
195.17	-0.000
195.38	-0.000
195.60	-0.000
195.81	-0.000
196.03	-0.000
196.25	-0.000
196.46	-0.000
196.68	-0.000
196.89	-0.000
197.11	-0.000
197.32	-0.000
197.54	-0.000
197.75	-0.000
197.97	-0.000
198.18	-0.000
198.40	-0.000
198.61	-0.000
198.83	-0.000
199.04	-0.000
199.26	-0.000
199.47	-0.000
199.69	-0.000
199.90	-0.000
200.12	-0.000
200.33	-0.000
200.55	-0.000
200.76	-0.000
200.98	-0.000
201.19	-0.000
201.41	-0.000
201.62	-0.000
201.84	-0.000
202.05	-0.000
202.27	-0.000
202.48	-0.000
202.70	-0.000
202.91	-0.000
203.13	-0.000
203.34	-0.000
203.56	-0.000
203.77	-0.000
203.99	-0.000
204.20	-0.000
204.42	-0.000
204.63	-0.000
204.85	-0.000
205.06	-0.000
205.28	-0.000
205.49	-0.000
205.71	-0.000
205.92	-0.000
206.14	-0.000
206.35	-0.000
206.56	-0.000
206.78	-0.000
206.99	-0.000
207.21	-0.000
207.42	-0.000
207.64	-0.000
207.85	-0.000
208.07	-0.000
208.28	-0.000
208.50	-0.000
208.71	-0.000
208.93	-0.000
209.14	-0.000
209.36	-0.000
209.57	-0.000
209.79	-0.000
210.00	-0.000
210.22	-0.000
210.43	-0.000
210.64	-0.000
210.86	-0.000
211.07	-0.000
211.29	-0.000
211.50	-0.000
211.72	-0.000
211.93	-0.000
212.15	-0.000
212.36	-0.000
212.58	-0.000
212.79	-0.000
213.01	-0.000
213.22	-0.000
213.43	-0.000
213.65	-0.000
213.86	-0.000
214.08	-0.000
214.29	-0.000
214.51	-0.000
214.72	-0.000
214.94	-0.000
215.15	-0.000
215.36	-0.000
215.58	-0.000
215.79	-0.000
216.01	-0.000
216.22	-0.000
216.44	-0.000
216.65	-0.000
216.87	-0.000
217.08	-0.000
217.29	-0.000
217.51	-0.000
217.72	-0.000
217.94	-0.000
218.15	-0.000
218.37	-0.000
218.58	-0.000
218.80	-0.000
219.01	-0.000
219.22	-0.000
219.44	-0.000
219.65	-0.000
219.87	-0.000
220.08	-0.000
220.30	-0.000
220.51	-0.000
220.72	-0.000
220.94	-0.000
221.15	-0.000
221.37	-0.000
221.58	-0.000
221.79	-0.000
222.01	-0.000
222.22	-0.000
222.44	-0.000
222.65	-0.000
222.87	-0.000
223.08	-0.000
223.29	-0.000
223.51	-0.000
223.72	-0.000
223.94	-0.000
224.15	-0.000
224.36	-0.000
224.58	-0.000
224.79	-0.000
225.01	-0.000
225.22	-0.000
225.44	-0.000
225.65	-0.000
225.86	-0.000
226.08	-0.000
226.29	-0.000
226.51	-0.000
226.72	-0.000
226.93	-0.000
227.15	-0.000
227.36	-0.000
227.58	-0.000
227.79	-0.000
228.00	-0.000
228.22	-0.000
228.43	-0.000
228.65	-0.000
228.86	-0.000
229.07	-0.000
229.29	-0.000
229.50	-0.000
229.72	-0.000
229.93	-0.000
230.14	-0.000
230.36	-0.000
230.57	-0.000
230.78	-0.000
231.00	-0.000
231.21	-0.000
231.43	-0.000
231.64	-0.000
231.85	-0.000
232.07	-0.000
232.28	-0.000
232.50	-0.000
232.71	-0.000
232.92	-0.000
233.14	-0.000
233.35	-0.000
233.56	-0.000
233.78	-0.000
233.99	-0.000
234.21	-0.000
234.42	-0.000
234.63	-0.000
234.85	-0.000
235.06	-0.000
235.27	-0.000
235.49	-0.000
235.70	-0.000
235.91	-0.000
236.13	-0.000
236.34	-0.000
236.56	-0.000
236.77	-0.000
236.98	-0.000
237.20	-0.000
237.41	-0.000
237.62	-0.000
237.84	-0.000
238.05	-0.000
238.26	-0.000
238.48	-0.000
238.69	-0.000
238.91	-0.000
239.12	-0.000
239.33	-0.000
239.55	-0.000
239.76	-0.000
239.97	-0.000
240.19	-0.000
240.40	-0.000
240.61	-0.000
240.83	-0.000
241.04	-0.000
241.25	-0.000
241.47	-0.000
241.68	-0.000
241.89	-0.000
242.11	-0.000
242.32	-0.000
242.53	-0.000
242.75	-0.000
242.96	-0.000
243.17	-0.000
243.39	-0.000
243.60	-0.000
243.81	-0.000
244.03	-0.000
244.24	-0.000
244.45	-0.000
244.67	-0.000
244.88	-0.000
245.09	-0.000
245.31	-0.000
245.52	-0.000
245.73	-0.000
245.95	-0.000
246.16	-0.000
246.37	-0.000
246.59	-0.000
246.80	-0.000
247.01	-0.000
247.23	-0.000
247.44	-0.000
247.65	-0.000
247.87	-0.000
248.08	-0.000
248.29	-0.000
248.51	-0.000
248.72	-0.000
248.93	-0.000
249.15	-0.000
249.36	-0.000
249.57	-0.000
249.78	-0.000
250.00	-0.000
250.21	-0.000
250.42	-0.000
250.64	-0.000
250.85	-0.000
251.06	-0.000
251.28	-0.000
251.49	-0.000
251.70	-0.000
251.92	-0.000
252.13	-0.000
252.34	-0.000
252.55	-0.000
252.77	-0.000
252.98	-0.000
253.19	-0.000
253.41	-0.000
253.62	-0.000
253.83	-0.000
254.05	-0.000
254.26	-0.000
254.47	-0.000
254.68	-0.000
254.90	-0.000
255.11	-0.000
255.32	-0.000
255.54	-0.000
255.75	-0.000
255.96	-0.000
256.17	-0.000
256.39	-0.000
256.60	-0.000
256.81	-0.000
257.03	-0.000
257.24	-0.000
257.45	-0.000
257.66	-0.000
257.88	-0.000
258.09	-0.000
258.30	-0.000
258.51	-0.000
258.73	-0.000
258.94	-0.000
259.15	-0.000
259.37	-0.000
259.58	-0.000
259.79	-0.000
260.00	-0.000
260.22	-0.000
260.43	-0.000
260.64	-0.000
260.85	-0.000
261.07	-0.000
261.28	-0.000
261.49	-0.000
261.71	-0.000
261.92	-0.000
262.13	-0.000
262.34	-0.000
262.56	-0.000
262.77	-0.000
262.98	-0.000
263.19	-0.000
263.41	-0.000
263.62	-0.000
263.83	-0.000
264.04	-0.000
264.26	-0.000
264.47	-0.000
264.68	-0.000
264.89	-0.000
265.11	-0.000
265.32	-0.000
265.53	-0.000
265.74	-0.000
265.96	-0.000
266.17	-0.000
266.38	-0.000
266.59	-0.000
266.81	-0.000
267.02	-0.000
267.23	-0.000
267.44	-0.000
267.65	-0.000
267.87	-0.000
268.08	-0.000
268.29	-0.000
268.50	-0.000
268.72	-0.000
268.93	-0.000
269.14	-0.000
269.35	-0.000
269.57	-0.000
269.78	-0.000
269.99	-0.000
270.20	-0.000
270.41	-0.000
270.63	-0.000
270.84	-0.000
271.05	-0.000
271.26	-0.000
271.48	-0.000
271.69	-0.000
271.90	-0.000
272.11	-0.000
272.32	-0.000
272.54	-0.000
272.75	-0.000
272.96	-0.000
273.17	-0.000
273.39	-0.000
273.60	-0.000
273.81	-0.000
274.02	-0.000
274.23	-0.000
274.45	-0.000
274.66	-0.000
274.87	-0.000
275.08	-0.000
275.29	-0.000
275.51	-0.000
275.72	-0.000
275.93	-0.000
276.14	-0.000
276.35	-0.000
276.57	-0.000
276.78	-0.000
276.99	-0.000
277.20	-0.000
277.41	-0.000
277.63	-0.000
277.84	-0.000
278.05	-0.000
278.26	-0.000
278.47	-0.000
278.69	-0.000
278.90	-0.000
279.11	-0.000
279.32	-0.000
279.53	-0.000
279.74	-0.000
279.96	-0.000
280.17	-0.000
280.38	-0.000
280.59	-0.000
280.80	-0.000
281.02	-0.000
281.23	-0.000
281.44	-0.000
281.65	-0.000
281.86	-0.000
282.07	-0.000
282.29	-0.000
282.50	-0.000
282.71	-0.000
282.92	-0.000
283.13	-0.000
283.35	-0.000
283.56	-0.000
283.77	-0.000
283.98	-0.000
284.19	-0.000
284.40	-0.000
284.62	-0.000
284.83	-0.000
285.04	-0.000
285.25	-0.000
285.46	-0.000
285.67	-0.000
285.88	-0.000
286.10	-0.000
286.31	-0.000
286.52	-0.000
286.73	-0.000
286.94	-0.000
287.15	-0.000
287.37	-0.000
287.58	-0.000
287.79	-0.000
288.00	-0.000
288.21	-0.000
288.42	-0.000
288.63	-0.000
288.85	-0.000
289.06	-0.000
289.27	-0.000
289.48	-0.000
289.69	-0.000
289.90	-0.000
290.11	-0.000
290.33	-0.000
290.54	-0.000
290.75	-0.000
290.96	-0.000
291.17	-0.000
291.38	-0.000
291.59	-0.000
291.81	-0.000
292.02	-0.000
292.23	-0.000
292.44	-0.000
292.65	-0.000
292.86	-0.000
293.07	-0.000
293.28	3.043
293.50	-0.000
293.71	-0.000
293.92	-0.000
294.13	-0.000
294.34	-0.000
294.55	-0.000
294.76	-0.000
294.97	-0.000
295.19	-0.000
295.40	-0.000
295.61	-0.000
295.82	-0.000
296.03	2.722
296.24	-0.000
296.45	1.990
296.66	1.689
296.87	1.709
297.09	1.779
297.30	1.956
297.51	1.635
297.72	1.618
297.93	1.708
298.14	1.681
298.35	1.646
298.56	1.607
298.77	1.722
298.99	1.699
299.20	1.671
299.41	1.644
299.62	1.601
299.83	1.592
300.04	1.524
300.25	1.512
300.46	1.545
300.67	1.521
300.88	1.485
301.10	1.482
301.31	1.551
301.52	1.494
301.73	1.444
301.94	1.447
302.15	1.464
302.36	1.421
302.57	1.364
302.78	1.371
302.99	1.411
303.20	1.427
303.41	1.347
303.63	1.329
303.84	1.336
304.05	1.333
304.26	1.278
304.47	1.285
304.68	1.290
304.89	1.278
305.10	1.242
305.31	1.227
305.52	1.266
305.73	1.257
305.94	1.221
306.15	1.214
306.37	1.235
306.58	1.243
306.79	1.215
307.00	1.235
307.21	1.274
307.42	1.267
307.63	1.235
307.84	1.204
308.05	1.239
308.26	1.238
308.47	1.217
308.68	1.214
308.89	1.214
309.10	1.207
309.31	1.171
309.52	1.163
309.73	1.175
309.95	1.169
310.16	1.142
310.37	1.132
310.58	1.150
310.79	1.148
311.00	1.142
311.21	1.142
311.42	1.147
311.63	1.141
311.84	1.122
312.05	1.123
312.26	1.144
312.47	1.155
312.68	1.134
312.89	1.120
313.10	1.127
313.31	1.102
313.52	1.104
313.73	1.103
313.94	1.107
314.15	1.092
314.36	1.072
314.57	1.066
314.78	1.054
314.99	1.049
315.21	1.035
315.42	1.038
315.63	1.052
315.84	1.031
316.05	1.019
316.26	1.027
316.47	1.045
316.68	1.041
316.89	1.021
317.10	1.040
317.31	1.044
317.52	1.045
317.73	1.026
317.94	1.026
318.15	1.067
318.36	1.065
318.57	1.047
318.78	1.036
318.99	1.070
319.20	1.068
319.41	1.036
319.62	1.038
319.83	1.051
320.04	1.047
320.25	1.033
320.46	1.000
320.67	1.004
320.88	0.999
321.09	0.985
321.30	0.972
321.51	0.984
321.72	0.983
321.93	0.968
322.14	0.962
322.35	0.987
322.56	0.989
322.77	0.978
322.98	0.990
323.19	0.998
323.40	1.004
323.61	0.983
323.82	0.979
324.03	0.984
324.24	0.982
324.45	0.968
324.66	0.950
324.87	0.947
325.08	0.947
325.29	0.928
325.50	0.922
325.71	0.927
325.92	0.936
326.13	0.923
326.34	0.923
326.55	0.930
326.76	0.930
326.97	0.919
327.18	0.915
327.39	0.939
327.60	0.940
327.80	0.938
328.01	0.937
328.22	0.937
328.43	0.940
328.64	0.929
328.85	0.934
329.06	0.935
329.27	0.935
329.48	0.929
329.69	0.911
329.90	0.920
330.11	0.914
330.32	0.907
330.53	0.901
330.74	0.901
330.95	0.900
331.16	0.886
331.37	0.895
331.58	0.896
331.79	0.896
332.00	0.887
332.21	0.881
332.42	0.885
332.63	0.877
332.83	0.871
333.04	0.873
333.25	0.886
333.46	0.884
333.67	0.871
333.88	0.873
334.09	0.883
334.30	0.881
334.51	0.872
334.72	0.868
334.93	0.872
335.14	0.873
335.35	0.866
335.56	0.859
335.77	0.868
335.98	0.866
336.18	0.860
336.39	0.853
336.60	0.857
336.81	0.855
337.02	0.854
337.23	0.858
337.44	0.861
337.65	0.862
337.86	0.853
338.07	0.849
338.28	0.853
338.49	0.850
338.70	0.844
338.91	0.850
339.11	0.858
339.32	0.855
339.53	0.843
339.74	0.841
339.95	0.838
340.16	0.836
340.37	0.829
340.58	0.828
340.79	0.832
341.00	0.831
341.21	0.819
341.41	0.818
341.62	0.820
341.83	0.822
342.04	0.816
342.25	0.827
342.46	0.832
342.67	0.831
342.88	0.823
343.09	0.823
343.30	0.830
343.50	0.834
343.71	0.824
343.92	0.822
344.13	0.827
344.34	0.827
344.55	0.810
344.76	0.809
344.97	0.813
345.18	0.813
345.38	0.810
345.59	0.805
345.80	0.805
346.01	0.803
346.22	0.798
346.43	0.792
346.64	0.799
346.85	0.799
347.06	0.792
347.26	0.793
347.47	0.796
347.68	0.791
347.89	0.786
348.10	0.782
348.31	0.789
348.52	0.790
348.73	0.787
348.93	0.784
349.14	0.787
349.35	0.786
349.56	0.779
349.77	0.774
349.98	0.780
350.19	0.778
350.39	0.772
350.60	0.767
350.81	0.782
351.02	0.781
351.23	0.777
351.44	0.779
351.65	0.783
351.86	0.781
352.06	0.780
352.27	0.780
352.48	0.782
352.69	0.782
352.90	0.777
353.11	0.764
353.31	0.772
353.52	0.769
353.73	0.760
353.94	0.761
354.15	0.767
354.36	0.767
354.57	0.758
354.77	0.760
354.98	0.760
355.19	0.759
355.40	0.757
355.61	0.761
355.82	0.766
356.02	0.766
356.23	0.759
356.44	0.760
356.65	0.764
356.86	0.765
357.07	0.759
357.27	0.762
357.48	0.765
357.69	0.761
357.90	0.747
358.11	0.744
358.32	0.747
358.52	0.750
358.73	0.741
358.94	0.743
359.15	0.747
359.36	0.747
359.56	0.742
359.77	0.738
359.98	0.746
360.19	0.745
360.40	0.742
360.61	0.744
360.81	0.741
361.02	0.742
361.23	0.733
361.44	0.732
361.65	0.734
361.85	0.733
362.06	0.731
362.27	0.733
362.48	0.733
362.69	0.735
362.89	0.729
363.10	0.731
363.31	0.735
363.52	0.739
363.73	0.734
363.93	0.734
364.14	0.737
364.35	0.738
364.56	0.729
364.77	0.731
364.97	0.733
365.18	0.733
365.39	0.728
365.60	0.726
365.81	0.727
366.01	0.727
366.22	0.723
366.43	0.723
366.64	0.725
366.84	0.730
367.05	0.726
367.26	0.725
367.47	0.727
367.68	0.727
367.88	0.723
368.09	0.721
368.30	0.724
368.51	0.723
368.71	0.722
368.92	0.726
369.13	0.724
369.34	0.723
369.55	0.723
369.75	0.722
369.96	0.730
370.17	0.729
370.38	0.726
370.58	0.726
370.79	0.732
371.00	0.730
371.21	0.722
371.41	0.727
371.62	0.731
371.83	0.727
372.04	0.725
372.24	0.718
372.45	0.719
372.66	0.719
372.87	0.716
373.07	0.712
373.28	0.713
373.49	0.717
373.70	0.707
373.90	0.706
374.11	0.715
374.32	0.715
374.53	0.714
374.73	0.715
374.94	0.718
375.15	0.718
375.36	0.715
375.56	0.724
375.77	0.724
375.98	0.725
376.19	0.722
376.39	0.716
376.60	0.720
376.81	0.721
377.02	0.718
377.22	0.717
377.43	0.717
377.64	0.717
377.84	0.709
378.05	0.713
378.26	0.719
378.47	0.719
378.67	0.715
378.88	0.712
379.09	0.713
379.30	0.713
379.50	0.710
379.71	0.712
379.92	0.714
380.12	0.713
380.33	0.705
380.54	0.701
380.75	0.707
380.95	0.708
381.16	0.706
381.37	0.706
381.57	0.708
381.78	0.708
381.99	0.709
382.20	0.708
382.40	0.712
382.61	0.713
382.82	0.710
383.02	0.703
383.23	0.706
383.44	0.706
383.64	0.704
383.85	0.706
384.06	0.709
384.27	0.706
384.47	0.704
384.68	0.705
384.89	0.711
385.09	0.710
385.30	0.709
385.51	0.708
385.71	0.712
385.92	0.713
386.13	0.711
386.33	0.712
386.54	0.714
386.75	0.713
386.95	0.709
387.16	0.704
387.37	0.707
387.58	0.706
387.78	0.704
387.99	0.702
388.20	0.704
388.40	0.702
388.61	0.698
388.82	0.700
389.02	0.703
389.23	0.703
389.44	0.701
389.64	0.701
389.85	0.712
390.06	0.712
390.26	0.712
390.47	0.711
390.68	0.714
390.88	0.713
391.09	0.709
391.30	0.708
391.50	0.708
391.71	0.708
391.92	0.705
392.12	0.698
392.33	0.699
392.53	0.699
392.74	0.699
392.95	0.698
393.15	0.700
393.36	0.703
393.57	0.700
393.77	0.703
393.98	0.706
394.19	0.706
394.39	0.705
394.60	0.706
394.81	0.708
395.01	0.706
395.22	0.704
395.43	0.705
395.63	0.709
395.84	0.711
396.04	0.707
396.25	0.709
396.46	0.711
396.66	0.710
396.87	0.707
397.08	0.704
397.28	0.707
397.49	0.707
397.69	0.704
397.90	0.699
398.11	0.700
398.31	0.700
398.52	0.696
398.73	0.697
398.93	0.696
399.14	0.695
399.34	0.694
399.55	0.696
399.76	0.696
399.96	0.697
400.17	0.695
400.37	0.694
400.58	0.700
400.79	0.702
400.99	0.700
401.20	0.706
401.41	0.709
401.61	0.709
401.82	0.714
402.02	0.713
402.23	0.714
402.44	0.714
402.64	0.714
402.85	0.708
403.05	0.708
403.26	0.706
403.47	0.700
403.67	0.699
403.88	0.699
404.08	0.694
404.29	0.692
404.50	0.693
404.70	0.693
404.91	0.691
405.11	0.689
405.32	0.690
405.52	0.690
405.73	0.690
405.94	0.688
406.14	0.691
406.35	0.693
406.55	0.692
406.76	0.690
406.97	0.691
407.17	0.694
407.38	0.693
407.58	0.691
407.79	0.694
407.99	0.696
408.20	0.697
408.41	0.692
408.61	0.690
408.82	0.692
409.02	0.691
409.23	0.688
409.43	0.688
409.64	0.689
409.84	0.689
410.05	0.685
410.26	0.684
410.46	0.683
410.67	0.683
410.87	0.683
411.08	0.685
411.28	0.686
411.49	0.688
411.69	0.685
411.90	0.687
412.11	0.689
412.31	0.690
412.52	0.689
412.72	0.690
412.93	0.691
413.13	0.690
413.34	0.687
413.54	0.689
413.75	0.691
413.95	0.690
414.16	0.686
414.37	0.688
414.57	0.689
414.78	0.691
414.98	0.689
415.19	0.691
415.39	0.688
415.60	0.689
415.80	0.689
416.01	0.687
416.21	0.689
416.42	0.689
416.62	0.685
416.83	0.685
417.03	0.685
417.24	0.685
417.44	0.683
417.65	0.682
417.86	0.683
418.06	0.681
418.27	0.679
418.47	0.681
418.68	0.682
418.88	0.682
419.09	0.680
419.29	0.681
419.50	0.681
419.70	0.681
419.91	0.679
420.11	0.677
420.32	0.680
420.52	0.679
420.73	0.677
420.93	0.678
421.14	0.680
421.34	0.679
421.55	0.675
421.75	0.675
421.96	0.676
422.16	0.676
422.37	0.676
422.57	0.673
422.78	0.676
422.98	0.673
423.19	0.670
423.39	0.668
423.60	0.672
423.80	0.673
424.01	0.672
424.21	0.675
424.42	0.675
424.62	0.674
424.83	0.674
425.03	0.674
425.23	0.676
425.44	0.676
425.64	0.677
425.85	0.675
426.05	0.676
426.26	0.677
426.46	0.673
426.67	0.673
426.87	0.678
427.08	0.679
427.28	0.676
427.49	0.677
427.69	0.678
427.90	0.677
428.10	0.673
428.31	0.674
428.51	0.675
428.71	0.674
428.92	0.675
429.12	0.672
429.33	0.672
429.53	0.676
429.74	0.680
429.94	0.681
430.15	0.680
430.35	0.680
430.56	0.677
430.76	0.676
430.96	0.677
431.17	0.675
431.37	0.672
431.58	0.670
431.78	0.667
431.99	0.660
432.19	0.662
432.40	0.664
432.60	0.665
432.80	0.667
433.01	0.665
433.21	0.665
433.42	0.667
433.62	0.667
433.83	0.667
434.03	0.669
434.23	0.673
434.44	0.671
434.64	0.669
434.85	0.674
435.05	0.675
435.26	0.675
435.46	0.673
435.66	0.673
435.87	0.673
436.07	0.673
436.28	0.669
436.48	0.666
436.69	0.665
436.89	0.665
437.09	0.659
437.30	0.658
437.50	0.659
437.71	0.670
437.91	0.669
438.11	0.670
438.32	0.674
438.52	0.675
438.73	0.674
438.93	0.672
439.13	0.672
439.34	0.675
439.54	0.673
439.75	0.673
439.95	0.663
440.15	0.668
440.36	0.666
440.56	0.664
440.77	0.664
440.97	0.664
441.17	0.663
441.38	0.664
441.58	0.662
441.79	0.661
441.99	0.660
442.19	0.659
442.40	0.657
442.60	0.657
442.81	0.655
443.01	0.656
443.21	0.657
443.42	0.657
443.62	0.655
443.82	0.655
444.03	0.656
444.23	0.656
444.44	0.656
444.64	0.655
444.84	0.656
445.05	0.656
445.25	0.653
445.45	0.653
445.66	0.656
445.86	0.655
446.06	0.656
446.27	0.656
446.47	0.659
446.68	0.657
446.88	0.656
447.08	0.655
447.29	0.658
447.49	0.659
447.69	0.658
447.90	0.656
448.10	0.660
448.30	0.658
448.51	0.659
448.71	0.656
448.91	0.658
449.12	0.657
449.32	0.659
449.52	0.658
449.73	0.661
449.93	0.660
450.14	0.660
450.34	0.659
450.54	0.662
450.75	0.659
450.95	0.659
451.15	0.658
451.36	0.660
451.56	0.657
451.76	0.656
451.97	0.654
452.17	0.654
452.37	0.652
452.58	0.649
452.78	0.649
452.98	0.651
453.19	0.650
453.39	0.650
453.59	0.650
453.79	0.651
454.00	0.651
454.20	0.650
454.40	0.649
454.61	0.652
454.81	0.653
455.01	0.651
455.22	0.652
455.42	0.654
455.62	0.651
455.83	0.650
456.03	0.653
456.23	0.655
456.44	0.655
456.64	0.654
456.84	0.655
457.04	0.655
457.25	0.655
457.45	0.652
457.65	0.650
457.86	0.652
458.06	0.651
458.26	0.646
458.47	0.645
458.67	0.647
458.87	0.646
459.07	0.643
459.28	0.645
459.48	0.648
459.68	0.647
459.89	0.647
460.09	0.646
460.29	0.647
460.49	0.648
460.70	0.647
460.90	0.647
461.10	0.648
461.31	0.648
461.51	0.645
461.71	0.647
461.91	0.648
462.12	0.648
462.32	0.647
462.52	0.647
462.72	0.650
462.93	0.650
463.13	0.649
463.33	0.649
463.53	0.651
463.74	0.650
463.94	0.646
464.14	0.646
464.35	0.648
464.55	0.649
464.75	0.646
464.95	0.644
465.16	0.646
465.36	0.645
465.56	0.644
465.76	0.643
465.97	0.643
466.17	0.644
466.37	0.642
466.57	0.643
466.78	0.643
466.98	0.644
467.18	0.642
467.38	0.641
467.59	0.643
467.79	0.644
467.99	0.643
468.19	0.645
468.39	0.648
468.60	0.648
468.80	0.646
469.00	0.648
469.20	0.649
469.41	0.649
469.61	0.648
469.81	0.649
470.01	0.649
470.22	0.649
470.42	0.647
470.62	0.644
470.82	0.646
471.02	0.645
471.23	0.643
471.43	0.643
471.63	0.646
471.83	0.645
472.04	0.643
472.24	0.642
472.44	0.647
472.64	0.647
472.84	0.646
473.05	0.646
473.25	0.648
473.45	0.647
473.65	0.645
473.85	0.646
474.06	0.647
474.26	0.647
474.46	0.648
474.66	0.644
474.86	0.645
475.07	0.646
475.27	0.643
475.47	0.642
475.67	0.643
475.87	0.645
476.08	0.641
476.28	0.642
476.48	0.644
476.68	0.642
476.88	0.639
477.09	0.640
477.29	0.642
477.49	0.642
477.69	0.641
477.89	0.641
478.09	0.641
478.30	0.643
478.50	0.641
478.70	0.641
478.90	0.642
479.10	0.644
479.31	0.645
479.51	0.642
479.71	0.643
479.91	0.642
480.11	0.641
480.31	0.641
480.52	0.641
480.72	0.641
480.92	0.639
481.12	0.638
481.32	0.637
481.52	0.635
481.72	0.635
481.93	0.638
482.13	0.640
482.33	0.640
482.53	0.637
482.73	0.638
482.93	0.638
483.14	0.638
483.34	0.637
483.54	0.637
483.74	0.637
483.94	0.636
484.14	0.632
484.34	0.631
484.55	0.632
484.75	0.632
484.95	0.630
485.15	0.630
485.35	0.630
485.55	0.630
485.75	0.628
485.96	0.628
486.16	0.630
486.36	0.629
486.56	0.628
486.76	0.628
486.96	0.628
487.16	0.627
487.36	0.626
487.57	0.626
487.77	0.627
487.97	0.628
488.17	0.626
488.37	0.625
488.57	0.626
488.77	0.626
488.97	0.624
489.18	0.623
489.38	0.626
489.58	0.626
489.78	0.625
489.98	0.625
490.18	0.625
490.38	0.625
490.58	0.624
490.78	0.625
490.98	0.627
491.19	0.627
491.39	0.627
491.59	0.625
491.79	0.628
491.99	0.629
492.19	0.628
492.39	0.631
492.59	0.631
492.79	0.633
492.99	0.633
493.20	0.633
493.40	0.633
493.60	0.635
493.80	0.633
494.00	0.631
494.20	0.632
494.40	0.632
494.60	0.629
494.80	0.633
495.00	0.633
495.20	0.631
495.40	0.630
495.61	0.632
495.81	0.631
496.01	0.635
496.21	0.636
496.41	0.635
496.61	0.635
496.81	0.634
497.01	0.629
497.21	0.628
497.41	0.629
497.61	0.628
497.81	0.626
498.01	0.626
498.21	0.624
498.41	0.621
498.61	0.622
498.82	0.623
499.02	0.625
499.22	0.625
499.42	0.625
499.62	0.626
499.82	0.627
500.02	0.628
500.22	0.628
500.42	0.630
500.62	0.630
500.82	0.631
501.02	0.628
501.22	0.628
501.42	0.628
501.62	0.630
501.82	0.630
502.02	0.630
502.22	0.630
502.42	0.631
502.62	0.628
502.82	0.629
503.02	0.630
503.22	0.630
503.42	0.628
503.63	0.628
503.83	0.626
504.03	0.625
504.23	0.624
504.43	0.625
504.63	0.625
504.83	0.625
505.03	0.624
505.23	0.625
505.43	0.627
505.63	0.628
505.83	0.627
506.03	0.629
506.23	0.631
506.43	0.631
506.63	0.630
506.83	0.629
507.03	0.630
507.23	0.631
507.43	0.628
507.63	0.629
507.83	0.630
508.03	0.630
508.23	0.629
508.43	0.628
508.63	0.630
508.83	0.631
509.03	0.632
509.23	0.631
509.43	0.632
509.63	0.632
509.83	0.631
510.03	0.633
510.23	0.635
510.43	0.635
510.63	0.635
510.83	0.635
511.03	0.636
511.23	0.633
511.43	0.632
511.63	0.634
511.83	0.637
512.03	0.636
512.22	0.633
512.42	0.633
512.62	0.634
512.82	0.633
513.02	0.633
513.22	0.633
513.42	0.635
513.62	0.639
513.82	0.637
514.02	0.636
514.22	0.637
514.42	0.638
514.62	0.638
514.82	0.637
515.02	0.640
515.22	0.644
515.42	0.642
515.62	0.644
515.82	0.642
516.02	0.643
516.22	0.643
516.42	0.644
516.62	0.646
516.82	0.647
517.01	0.645
517.21	0.644
517.41	0.648
517.61	0.648
517.81	0.645
518.01	0.644
518.21	0.644
518.41	0.642
518.61	0.641
518.81	0.642
519.01	0.643
519.21	0.643
519.41	0.642
519.61	0.636
519.81	0.639
520.00	0.640
520.20	0.640
520.40	0.643
520.60	0.644
520.80	0.643
521.00	0.643
521.20	0.643
521.40	0.649
521.60	0.650
521.80	0.648
522.00	0.648
522.20	0.651
522.39	0.651
522.59	0.648
522.79	0.649
522.99	0.652
523.19	0.650
523.39	0.648
523.59	0.645
523.79	0.648
523.99	0.650
524.19	0.650
524.38	0.648
524.58	0.650
524.78	0.650
524.98	0.648
525.18	0.650
525.38	0.652
525.58	0.652
525.78	0.650
525.98	0.648
526.18	0.648
526.37	0.647
526.57	0.649
526.77	0.649
526.97	0.650
527.17	0.650
527.37	0.646
527.57	0.648
527.77	0.650
527.96	0.650
528.16	0.649
528.36	0.650
528.56	0.653
528.76	0.651
528.96	0.650
529.16	0.651
529.36	0.654
529.55	0.654
529.75	0.650
529.95	0.650
530.15	0.651
530.35	0.654
530.55	0.651
530.75	0.651
530.94	0.652
531.14	0.653
531.34	0.652
531.54	0.650
531.74	0.654
531.94	0.657
532.13	0.656
532.33	0.657
532.53	0.656
532.73	0.656
532.93	0.654
533.13	0.655
533.33	0.655
533.52	0.656
533.72	0.659
533.92	0.657
534.12	0.655
534.32	0.655
534.52	0.654
534.71	0.655
534.91	0.658
535.11	0.659
535.31	0.657
535.51	0.659
535.71	0.661
535.90	0.657
536.10	0.658
536.30	0.660
536.50	0.661
536.70	0.661
536.89	0.659
537.09	0.658
537.29	0.660
537.49	0.660
537.69	0.658
537.89	0.658
538.08	0.658
538.28	0.656
538.48	0.657
538.68	0.658
538.88	0.660
539.07	0.660
539.27	0.658
539.47	0.657
539.67	0.657
539.87	0.659
540.06	0.657
540.26	0.658
540.46	0.660
540.66	0.657
540.86	0.655
541.05	0.655
541.25	0.657
541.45	0.657
541.65	0.655
541.84	0.657
542.04	0.657
542.24	0.658
542.44	0.657
542.64	0.658
542.83	0.661
543.03	0.662
543.23	0.659
543.43	0.660
543.62	0.662
543.82	0.663
544.02	0.661
544.22	0.661
544.42	0.665
544.61	0.665
544.81	0.661
545.01	0.661
545.21	0.663
545.40	0.663
545.60	0.661
545.80	0.664
546.00	0.664
546.19	0.663
546.39	0.662
546.59	0.660
546.79	0.661
546.98	0.661
547.18	0.661
547.38	0.661
547.58	0.664
547.77	0.665
547.97	0.661
548.17	0.663
548.37	0.664
548.56	0.664
548.76	0.663
548.96	0.665
549.16	0.668
549.35	0.667
549.55	0.665
549.75	0.665
549.95	0.668
550.14	0.668
550.34	0.667
550.54	0.672
550.73	0.675
550.93	0.676
551.13	0.673
551.33	0.671
551.52	0.672
551.72	0.673
551.92	0.671
552.12	0.671
552.31	0.672
552.51	0.672
552.71	0.668
552.90	0.668
553.10	0.669
553.30	0.669
553.50	0.668
553.69	0.669
553.89	0.670
554.09	0.670
554.28	0.667
554.48	0.669
554.68	0.670
554.87	0.670
555.07	0.667
555.27	0.667
555.47	0.669
555.66	0.670
555.86	0.668
556.06	0.671
556.25	0.672
556.45	0.680
556.65	0.678
556.84	0.681
557.04	0.685
557.24	0.686
557.43	0.685
557.63	0.688
557.83	0.690
558.02	0.690
558.22	0.694
558.42	0.695
558.61	0.687
558.81	0.688
559.01	0.684
559.21	0.683
559.40	0.684
559.60	0.685
559.80	0.682
559.99	0.682
560.19	0.685
560.39	0.678
560.58	0.675
560.78	0.676
560.97	0.679
561.17	0.678
561.37	0.676
561.56	0.677
561.76	0.678
561.96	0.677
562.15	0.675
562.35	0.677
562.55	0.679
562.74	0.679
562.94	0.677
563.14	0.675
563.33	0.676
563.53	0.676
563.73	0.673
563.92	0.675
564.12	0.677
564.31	0.680
564.51	0.678
564.71	0.679
564.90	0.683
565.10	0.683
565.30	0.686
565.49	0.687
565.69	0.689
565.89	0.690
566.08	0.687
566.28	0.688
566.47	0.689
566.67	0.688
566.87	0.685
567.06	0.686
567.26	0.693
567.46	0.689
567.65	0.688
567.85	0.688
568.04	0.692
568.24	0.691
568.44	0.688
568.63	0.687
568.83	0.689
569.02	0.687
569.22	0.683
569.42	0.679
569.61	0.681
569.81	0.680
570.00	0.678
570.20	0.679
570.40	0.680
570.59	0.680
570.79	0.678
570.98	0.675
571.18	0.677
571.38	0.676
571.57	0.673
571.77	0.671
571.96	0.675
572.16	0.672
572.35	0.667
572.55	0.668
572.75	0.666
572.94	0.667
573.14	0.665
573.33	0.666
573.53	0.667
573.73	0.666
573.92	0.664
574.12	0.663
574.31	0.666
574.51	0.667
574.70	0.663
574.90	0.665
575.09	0.666
575.29	0.667
575.49	0.664
575.68	0.665
575.88	0.666
576.07	0.668
576.27	0.665
576.46	0.664
576.66	0.663
576.86	0.663
577.05	0.661
577.25	0.659
577.44	0.661
577.64	0.661
577.83	0.659
578.03	0.660
578.22	0.659
578.42	0.658
578.61	0.656
578.81	0.657
579.00	0.657
579.20	0.657
579.40	0.656
579.59	0.655
579.79	0.655
579.98	0.654
580.18	0.654
580.37	0.654
580.57	0.656
580.76	0.660
580.96	0.658
581.15	0.659
581.35	0.661
581.54	0.661
581.74	0.661
581.93	0.662
582.13	0.664
582.32	0.661
582.52	0.660
582.71	0.659
582.91	0.656
583.10	0.655
583.30	0.654
583.49	0.653
583.69	0.657
583.88	0.658
584.08	0.657
584.27	0.658
584.47	0.662
584.66	0.662
584.86	0.661
585.05	0.663
585.25	0.665
585.44	0.665
585.64	0.663
585.83	0.660
586.03	0.661
586.22	0.659
586.42	0.656
586.61	0.657
586.81	0.660
587.00	0.659
587.20	0.657
587.39	0.658
587.59	0.659
587.78	0.661
587.98	0.661
588.17	0.662
588.37	0.665
588.56	0.667
588.76	0.662
588.95	0.663
589.15	0.667
589.34	0.669
589.54	0.667
589.73	0.668
589.92	0.671
590.12	0.670
590.31	0.668
590.51	0.673
590.70	0.674
590.90	0.674
591.09	0.672
591.29	0.671
591.48	0.671
591.68	0.672
591.87	0.670
592.06	0.669
592.26	0.672
592.45	0.671
592.65	0.665
592.84	0.665
593.04	0.668
593.23	0.670
593.43	0.667
593.62	0.667
593.81	0.668
594.01	0.668
594.20	0.666
594.40	0.665
594.59	0.668
594.79	0.668
594.98	0.667
595.17	0.666
595.37	0.667
595.56	0.669
595.76	0.668
595.95	0.669
596.14	0.672
596.34	0.672
596.53	0.671
596.73	0.672
596.92	0.674
597.12	0.676
597.31	0.676
597.50	0.675
597.70	0.678
597.89	0.677
598.09	0.672
598.28	0.674
598.47	0.676
598.67	0.674
598.86	0.670
599.06	0.672
599.25	0.673
599.44	0.671
599.64	0.669
599.83	0.666
600.03	0.670
600.22	0.671
600.41	0.671
600.61	0.669
600.80	0.672
601.00	0.673
601.19	0.668
601.38	0.665
601.58	0.668
601.77	0.670
601.96	0.671
602.16	0.671
602.35	0.679
602.55	0.677
602.74	0.678
602.93	0.679
603.13	0.685
603.32	0.687
603.51	0.686
603.71	0.689
603.90	0.691
604.09	0.691
604.29	0.688
604.48	0.683
604.68	0.685
604.87	0.683
605.06	0.679
605.26	0.676
605.45	0.676
605.64	0.676
605.84	0.671
606.03	0.671
606.22	0.669
606.42	0.669
606.61	0.665
606.80	0.665
607.00	0.667
607.19	0.668
607.38	0.666
607.58	0.668
607.77	0.671
607.96	0.671
608.16	0.669
608.35	0.674
608.54	0.677
608.74	0.680
608.93	0.685
609.12	0.687
609.32	0.690
609.51	0.693
609.70	0.692
609.90	0.693
610.09	0.698
610.28	0.703
610.48	0.697
610.67	0.698
610.86	0.699
611.06	0.693
611.25	0.691
611.44	0.692
611.64	0.692
611.83	0.694
612.02	0.690
612.21	0.688
612.41	0.688
612.60	0.687
612.79	0.683
612.99	0.683
613.18	0.685
613.37	0.683
613.57	0.679
613.76	0.681
613.95	0.678
614.14	0.678
614.34	0.675
614.53	0.676
614.72	0.680
614.92	0.680
615.11	0.677
615.30	0.674
615.49	0.676
615.69	0.680
615.88	0.676
616.07	0.677
616.26	0.680
616.46	0.681
616.65	0.677
616.84	0.676
617.04	0.678
617.23	0.681
617.42	0.682
617.61	0.685
617.81	0.686
618.00	0.688
618.19	0.687
618.38	0.690
618.58	0.694
618.77	0.695
618.96	0.694
619.15	0.695
619.35	0.696
619.54	0.697
619.73	0.692
619.92	0.694
620.12	0.698
620.31	0.698
620.50	0.693
620.69	0.693
620.89	0.696
621.08	0.696
621.27	0.696
621.46	0.696
621.66	0.699
621.85	0.699
622.04	0.695
622.23	0.696
622.43	0.697
622.62	0.697
622.81	0.696
623.00	0.696
623.19	0.699
623.39	0.698
623.58	0.695
623.77	0.694
623.96	0.697
624.16	0.697
624.35	0.692
624.54	0.695
624.73	0.699
624.92	0.696
625.12	0.694
625.31	0.694
625.50	0.697
625.69	0.698
625.88	0.694
626.08	0.694
626.27	0.696
626.46	0.696
626.65	0.693
626.84	0.693
627.04	0.698
627.23	0.697
627.42	0.693
627.61	0.694
627.80	0.698
628.00	0.698
628.19	0.696
628.38	0.700
628.57	0.702
628.76	0.701
628.96	0.698
629.15	0.699
629.34	0.702
629.53	0.703
629.72	0.697
629.91	0.697
630.11	0.701
630.30	0.701
630.49	0.704
630.68	0.704
630.87	0.708
631.06	0.711
631.26	0.706
631.45	0.708
631.64	0.717
631.83	0.719
632.02	0.717
632.21	0.717
632.41	0.725
632.60	0.719
632.79	0.717
632.98	0.719
633.17	0.720
633.36	0.722
633.55	0.717
633.75	0.713
633.94	0.715
634.13	0.714
634.32	0.710
634.51	0.704
634.70	0.706
634.89	0.706
635.09	0.701
635.28	0.701
635.47	0.703
635.66	0.706
635.85	0.702
636.04	0.704
636.23	0.709
636.43	0.711
636.62	0.709
636.81	0.707
637.00	0.710
637.19	0.714
637.38	0.710
637.57	0.710
637.76	0.711
637.95	0.712
638.15	0.708
638.34	0.704
638.53	0.707
638.72	0.709
638.91	0.707
639.10	0.704
639.29	0.705
639.48	0.706
639.67	0.707
639.87	0.705
640.06	0.711
640.25	0.710
640.44	0.711
640.63	0.711
640.82	0.715
641.01	0.715
641.20	0.715
641.39	0.716
641.58	0.718
641.78	0.716
641.97	0.712
642.16	0.726
642.35	0.728
642.54	0.727
642.73	0.721
642.92	0.719
643.11	0.723
643.30	0.722
643.49	0.717
643.68	0.720
643.87	0.722
644.06	0.722
644.25	0.702
644.45	0.704
644.64	0.707
644.83	0.707
645.02	0.704
645.21	0.703
645.40	0.705
645.59	0.705
645.78	0.699
645.97	0.701
646.16	0.703
646.35	0.702
646.54	0.699
646.73	0.698
646.92	0.700
647.11	0.700
647.30	0.695
647.49	0.697
647.68	0.697
647.88	0.696
648.07	0.689
648.26	0.692
648.45	0.694
648.64	0.690
648.83	0.688
649.02	0.691
649.21	0.700
649.40	0.699
649.59	0.695
649.78	0.695
649.97	0.709
650.16	0.709
650.35	0.703
650.54	0.706
650.73	0.716
650.92	0.713
651.11	0.705
651.30	0.703
651.49	0.707
651.68	0.708
651.87	0.705
652.06	0.695
652.25	0.699
652.44	0.700
652.63	0.697
652.82	0.695
653.01	0.695
653.20	0.693
653.39	0.680
653.58	0.678
653.77	0.677
653.96	0.673
654.15	0.665
654.34	0.663
654.53	0.658
654.72	0.653
654.91	0.645
655.10	0.641
655.29	0.641
655.48	0.639
655.67	0.634
655.86	0.632
656.05	0.631
656.24	0.630
656.43	0.625
656.62	0.624
656.81	0.625
657.00	0.623
657.19	0.620
657.38	0.620
657.57	0.620
657.76	0.622
657.95	0.620
658.14	0.623
658.33	0.626
658.51	0.631
658.70	0.631
658.89	0.632
659.08	0.640
659.27	0.648
659.46	0.648
659.65	0.653
659.84	0.657
660.03	0.660
660.22	0.660
660.41	0.664
660.60	0.664
660.79	0.665
660.98	0.670
661.17	0.669
661.36	0.668
661.55	0.669
661.74	0.667
661.92	0.669
662.11	0.671
662.30	0.671
662.49	0.664
662.68	0.663
662.87	0.667
663.06	0.661
663.25	0.662
663.44	0.662
663.63	0.664
663.82	0.663
664.01	0.657
664.20	0.656
664.38	0.657
664.57	0.657
664.76	0.657
664.95	0.657
665.14	0.662
665.33	0.657
665.52	0.663
665.71	0.666
665.90	0.666
666.09	0.668
666.28	0.666
666.46	0.665
666.65	0.665
666.84	0.663
667.03	0.657
667.22	0.654
667.41	0.658
667.60	0.648
667.79	0.642
667.98	0.643
668.16	0.644
668.35	0.643
668.54	0.640
668.73	0.641
668.92	0.641
669.11	0.641
669.30	0.636
669.49	0.632
669.67	0.634
669.86	0.636
670.05	0.634
670.24	0.632
670.43	0.630
670.62	0.629
670.81	0.624
671.00	0.626
671.18	0.626
671.37	0.625
671.56	0.624
671.75	0.623
671.94	0.620
672.13	0.617
672.32	0.613
672.50	0.613
672.69	0.613
672.88	0.613
673.07	0.608
673.26	0.609
673.45	0.611
673.63	0.610
673.82	0.606
674.01	0.608
674.20	0.608
674.39	0.607
674.58	0.606
674.76	0.606
674.95	0.605
675.14	0.605
675.33	0.601
675.52	0.600
675.71	0.600
675.89	0.599
676.08	0.595
676.27	0.595
676.46	0.595
676.65	0.594
676.84	0.594
677.02	0.596
677.21	0.598
677.40	0.597
677.59	0.594
677.78	0.594
677.96	0.596
678.15	0.596
678.34	0.593
678.53	0.594
678.72	0.594
678.90	0.590
679.09	0.586
679.28	0.584
679.47	0.583
679.66	0.583
679.84	0.579
680.03	0.577
680.22	0.576
680.41	0.578
680.60	0.575
680.78	0.575
680.97	0.577
681.16	0.577
681.35	0.575
681.53	0.574
681.72	0.576
681.91	0.577
682.10	0.575
682.29	0.578
682.47	0.576
682.66	0.575
682.85	0.574
683.04	0.572
683.22	0.573
683.41	0.575
683.60	0.574
683.79	0.575
683.97	0.574
684.16	0.573
684.35	0.569
684.54	0.571
684.72	0.571
684.91	0.572
685.10	0.569
685.29	0.571
685.47	0.568
685.66	0.567
685.85	0.564
686.04	0.563
686.22	0.565
686.41	0.568
686.60	0.565
686.79	0.567
686.97	0.569
687.16	0.570
687.35	0.567
687.54	0.570
687.72	0.574
687.91	0.573
688.10	0.575
688.29	0.574
688.47	0.572
688.66	0.572
688.85	0.568
689.03	0.566
689.22	0.570
689.41	0.570
689.60	0.566
689.78	0.564
689.97	0.565
690.16	0.562
690.34	0.558
690.53	0.558
690.72	0.558
690.91	0.556
691.09	0.554
691.28	0.548
691.47	0.546
691.65	0.546
691.84	0.543
692.03	0.542
692.21	0.540
692.40	0.540
692.59	0.537
692.77	0.536
692.96	0.538
693.15	0.539
693.34	0.537
693.52	0.537
693.71	0.537
693.90	0.538
694.08	0.538
694.27	0.539
694.46	0.549
694.64	0.550
694.83	0.549
695.02	0.548
695.20	0.548
695.39	0.548
695.58	0.548
695.76	0.548
695.95	0.547
696.14	0.546
696.32	0.543
696.51	0.534
696.70	0.534
696.88	0.535
697.07	0.534
697.26	0.535
697.44	0.537
697.63	0.536
697.81	0.533
698.00	0.533
698.19	0.533
698.37	0.533
698.56	0.533
698.75	0.532
698.93	0.532
699.12	0.531
699.31	0.530
699.49	0.530
699.68	0.531
699.87	0.535
700.05	0.535
700.24	0.533
700.42	0.535
700.61	0.534
700.80	0.532
700.98	0.532
701.17	0.534
701.36	0.533
701.54	0.531
701.73	0.532
701.91	0.530
702.10	0.529
702.29	0.527
702.47	0.527
702.66	0.528
702.84	0.529
703.03	0.527
703.22	0.528
703.40	0.528
703.59	0.530
703.77	0.530
703.96	0.529
704.15	0.530
704.33	0.531
704.52	0.529
704.70	0.529
704.89	0.528
705.08	0.528
705.26	0.523
705.45	0.523
705.63	0.523
705.82	0.520
706.00	0.518
706.19	0.518
706.38	0.518
706.56	0.518
706.75	0.515
706.93	0.514
707.12	0.516
707.30	0.516
707.49	0.514
707.68	0.512
707.86	0.512
708.05	0.512
708.23	0.509
708.42	0.509
708.60	0.511
708.79	0.512
708.98	0.510
709.16	0.510
709.35	0.512
709.53	0.515
709.72	0.514
709.90	0.515
710.09	0.517
710.27	0.519
710.46	0.523
710.64	0.521
710.83	0.523
711.02	0.524
711.20	0.523
711.39	0.521
711.57	0.519
711.76	0.519
711.94	0.517
712.13	0.518
712.31	0.519
712.50	0.514
712.68	0.511
712.87	0.512
713.05	0.513
713.24	0.513
713.42	0.513
713.61	0.514
713.79	0.514
713.98	0.515
714.16	0.515
714.35	0.514
714.54	0.516
714.72	0.516
714.91	0.513
715.09	0.520
715.28	0.522
715.46	0.522
715.65	0.519
715.83	0.520
716.02	0.522
716.20	0.519
716.39	0.518
716.57	0.519
716.76	0.521
716.94	0.522
717.12	0.514
717.31	0.515
717.49	0.518
717.68	0.520
717.86	0.519
718.05	0.520
718.23	0.523
718.42	0.526
718.60	0.527
718.79	0.534
718.97	0.537
719.16	0.537
719.34	0.535
719.53	0.535
719.71	0.535
719.90	0.537
720.08	0.534
720.27	0.533
720.45	0.533
720.63	0.532
720.82	0.526
721.00	0.528
721.19	0.532
721.37	0.531
721.56	0.531
721.74	0.534
721.93	0.542
722.11	0.549
722.30	0.549
722.48	0.553
722.66	0.554
722.85	0.554
723.03	0.554
723.22	0.552
723.40	0.554
723.59	0.554
723.77	0.558
723.95	0.552
724.14	0.552
724.32	0.553
724.51	0.553
724.69	0.554
724.88	0.555
725.06	0.554
725.24	0.555
725.43	0.557
725.61	0.559
725.80	0.553
725.98	0.551
726.16	0.548
726.35	0.555
726.53	0.553
726.72	0.552
726.90	0.563
727.09	0.562
727.27	0.568
727.45	0.564
727.64	0.574
727.82	0.582
728.01	0.585
728.19	0.582
728.37	0.587
728.56	0.592
728.74	0.598
728.92	0.585
729.11	0.587
729.29	0.586
729.48	0.589
729.66	0.578
729.84	0.578
730.03	0.582
730.21	0.584
730.40	0.573
730.58	0.575
730.76	0.575
730.95	0.578
731.13	0.578
731.31	0.591
731.50	0.601
731.68	0.603
731.86	0.599
732.05	0.613
732.23	0.617
732.42	0.621
732.60	0.624
732.78	0.630
732.97	0.649
733.15	0.654
733.33	0.642
733.52	0.648
733.70	0.660
733.88	0.668
734.07	0.654
734.25	0.681
734.43	0.690
734.62	0.691
734.80	0.684
734.98	0.674
735.17	0.683
735.35	0.688
735.53	0.677
735.72	0.680
735.90	0.702
736.08	0.720
736.27	0.694
736.45	0.705
736.63	0.715
736.82	0.727
737.00	0.727
737.18	0.737
737.37	0.768
737.55	0.790
737.73	0.784
737.92	0.786
738.10	0.783
738.28	0.803
738.46	0.790
738.65	0.803
738.83	0.825
739.01	0.879
739.20	0.866
739.38	0.845
739.56	0.839
739.75	0.843
739.93	0.810
740.11	0.835
740.29	0.838
740.48	0.845
740.66	0.824
740.84	0.817
741.03	0.783
741.21	0.797
741.39	0.779
741.57	0.790
741.76	0.807
741.94	0.814
742.12	0.774
742.31	0.779
742.49	0.799
742.67	0.822
742.85	0.833
743.04	0.837
743.22	0.842
743.40	0.894
743.58	0.874
743.77	0.885
743.95	0.920
744.13	0.970
744.31	0.948
744.50	0.938
744.68	0.935
744.86	0.910
745.04	0.915
745.23	0.977
745.41	0.961
745.59	0.970
745.77	0.935
745.96	0.925
746.14	0.937
746.32	0.938
746.50	0.927
746.69	0.907
746.87	0.917
747.05	0.905
747.23	0.835
747.42	0.821
747.60	0.846
747.78	0.852
747.96	0.876
748.14	0.836
748.33	0.861
748.51	0.860
748.69	0.858
748.87	0.891
749.06	0.893
749.24	0.890
749.42	0.878
749.60	0.860
749.78	0.874
749.97	0.829
750.15	0.818
750.33	0.819
750.51	0.843
750.69	0.849
750.88	0.847
751.06	0.854
751.24	0.883
751.42	0.870
751.60	0.860
751.79	0.921
751.97	0.965
752.15	0.969
752.33	0.936
752.51	0.992
752.69	1.003
752.88	0.972
753.06	1.011
753.24	0.990
753.42	1.025
753.60	1.178
753.78	1.046
753.97	1.063
754.15	1.084
754.33	1.116
754.51	0.998
754.69	0.991
754.87	1.018
755.06	0.949
755.24	0.948
755.42	0.955
755.60	0.863
755.78	0.869
755.96	0.820
756.15	0.816
756.33	0.820
756.51	0.837
756.69	0.822
756.87	0.790
757.05	0.813
757.23	0.797
757.42	0.769
757.60	0.769
757.78	0.760
757.96	0.757
758.14	0.743
758.32	0.727
758.50	0.741
758.69	0.739
758.87	0.734
759.05	0.735
759.23	0.745
759.41	0.743
759.59	0.733
759.77	0.755
759.95	0.783
760.13	0.831
760.32	0.832
760.50	0.827
760.68	0.851
760.86	0.851
761.04	0.825
761.22	0.826
761.40	0.879
761.58	0.880
761.76	0.855
761.95	0.834
762.13	0.792
762.31	0.791
762.49	0.762
762.67	0.775
762.85	0.788
763.03	0.783
763.21	0.767
763.39	0.747
763.57	0.753
763.75	0.745
763.94	0.732
764.12	0.731
764.30	0.756
764.48	0.759
764.66	0.726
764.84	0.726
765.02	0.764
765.20	0.772
765.38	0.752
765.56	0.757
765.74	0.798
765.92	0.800
766.10	0.807
766.28	0.798
766.46	0.828
766.65	0.830
766.83	0.815
767.01	0.797
767.19	0.799
767.37	0.800
767.55	0.785
767.73	0.765
767.91	0.765
768.09	0.754
768.27	0.742
768.45	0.732
768.63	0.735
768.81	0.737
768.99	0.713
769.17	0.738
769.35	0.750
769.53	0.750
769.71	0.734
769.89	0.743
770.07	0.749
770.25	0.734
770.43	0.714
770.61	0.738
770.79	0.743
770.97	0.753
771.15	0.722
771.33	0.724
771.51	0.728
771.69	0.735
771.87	0.743
772.05	0.748
772.24	0.757
772.42	0.769
772.60	0.747
772.78	0.803
772.96	0.831
773.14	0.828
773.32	0.807
773.49	0.815
773.67	0.815
773.85	0.793
774.03	0.781
774.21	0.811
774.39	0.819
774.57	0.843
774.75	0.773
774.93	0.767
775.11	0.791
775.29	0.798
775.47	0.793
775.65	0.800
775.83	0.818
776.01	0.842
776.19	0.794
776.37	0.793
776.55	0.793
776.73	0.788
776.91	0.783
777.09	0.764
777.27	0.760
777.45	0.750
777.63	0.732
777.81	0.728
777.99	0.715
778.17	0.714
778.35	0.695
778.53	0.684
778.71	0.692
778.89	0.680
779.07	0.668
779.24	0.677
779.42	0.678
779.60	0.694
779.78	0.689
779.96	0.693
780.14	0.701
780.32	0.720
780.50	0.706
780.68	0.708
780.86	0.701
781.04	0.720
781.22	0.720
781.40	0.731
781.58	0.724
781.75	0.718
781.93	0.702
782.11	0.704
782.29	0.693
782.47	0.688
782.65	0.673
782.83	0.702
783.01	0.697
783.19	0.692
783.37	0.676
783.55	0.681
783.72	0.700
783.90	0.712
784.08	0.703
784.26	0.713
784.44	0.736
784.62	0.740
784.80	0.707
784.98	0.710
785.16	0.715
785.33	0.731
785.51	0.718
785.69	0.703
785.87	0.700
786.05	0.711
786.23	0.706
786.41	0.704
786.59	0.710
786.77	0.708
786.94	0.697
787.12	0.702
787.30	0.704
787.48	0.700
787.66	0.689
787.84	0.690
788.02	0.682
788.19	0.681
788.37	0.667
788.55	0.668
788.73	0.670
788.91	0.666
789.09	0.649
789.27	0.638
789.44	0.649
789.62	0.654
789.80	0.662
789.98	0.685
790.16	0.671
790.34	0.668
790.51	0.654
790.69	0.673
790.87	0.678
791.05	0.675
791.23	0.668
791.41	0.670
791.58	0.679
791.76	0.661
791.94	0.630
792.12	0.640
792.30	0.643
792.48	0.642
792.65	0.634
792.83	0.641
793.01	0.649
793.19	0.646
793.37	0.631
793.54	0.627
793.72	0.638
793.90	0.638
794.08	0.627
794.26	0.627
794.43	0.637
794.61	0.621
794.79	0.610
794.97	0.608
795.15	0.616
795.32	0.620
795.50	0.610
795.68	0.604
795.86	0.608
796.04	0.610
796.21	0.603
796.39	0.602
796.57	0.617
796.75	0.626
796.92	0.627
797.10	0.630
797.28	0.632
797.46	0.635
797.64	0.633
797.81	0.641
797.99	0.644
798.17	0.649
798.35	0.642
798.52	0.645
798.70	0.643
798.88	0.650
799.06	0.649
799.23	0.651
799.41	0.661
799.59	0.657
799.77	0.646
799.94	0.656
800.12	0.665
800.30	0.683
800.48	0.681
800.65	0.679
800.83	0.670
801.01	0.662
801.19	0.663
801.36	0.656
801.54	0.659
801.72	0.666
801.90	0.652
802.07	0.648
802.25	0.635
802.43	0.620
802.60	0.615
802.78	0.621
802.96	0.627
803.14	0.620
803.31	0.620
803.49	0.621
803.67	0.620
803.84	0.624
804.02	0.614
804.20	0.615
804.38	0.621
804.55	0.622
804.73	0.607
804.91	0.609
805.08	0.623
805.26	0.618
805.44	0.681
805.61	0.684
805.79	0.683
805.97	0.684
806.15	0.676
806.32	0.669
806.50	0.675
806.68	0.677
806.85	0.666
807.03	0.657
807.21	0.674
807.38	0.607
807.56	0.597
807.74	0.609
807.91	0.615
808.09	0.618
808.27	0.636
808.44	0.660
808.62	0.667
808.80	0.668
808.97	0.662
809.15	0.656
809.33	0.675
809.50	0.683
809.68	0.667
809.86	0.676
810.03	0.707
810.21	0.686
810.39	0.670
810.56	0.677
810.74	0.703
810.91	0.773
811.09	0.762
811.27	0.780
811.44	0.786
811.62	0.789
811.80	0.771
811.97	0.742
812.15	0.741
812.33	0.737
812.50	0.723
812.68	0.710
812.85	0.656
813.03	0.659
813.21	0.627
813.38	0.619
813.56	0.621
813.74	0.631
813.91	0.635
814.09	0.665
814.26	0.660
814.44	0.661
814.62	0.653
814.79	0.657
814.97	0.662
815.14	0.665
815.32	0.671
815.50	0.688
815.67	0.690
815.85	0.684
816.02	0.673
816.20	0.680
816.38	0.697
816.55	0.701
816.73	0.698
816.90	0.708
817.08	0.740
817.26	0.744
817.43	0.722
817.61	0.746
817.78	0.763
817.96	0.742
818.13	0.731
818.31	0.730
818.49	0.745
818.66	0.739
818.84	0.723
819.01	0.705
819.19	0.711
819.36	0.714
819.54	0.686
819.71	0.728
819.89	0.742
820.07	0.754
820.24	0.746
820.42	0.747
820.59	0.765
820.77	0.788
820.94	0.778
821.12	0.796
821.29	0.813
821.47	0.810
821.64	0.748
821.82	0.762
822.00	0.759
822.17	0.755
822.35	0.745
822.52	0.747
822.70	0.739
822.87	0.746
823.05	0.724
823.22	0.731
823.40	0.758
823.57	0.781
823.75	0.759
823.92	0.784
824.10	0.802
824.27	0.839
824.45	0.824
824.62	0.882
824.80	0.897
824.97	0.909
825.15	0.901
825.32	0.917
825.50	0.917
825.67	0.927
825.85	0.903
826.02	0.920
826.20	0.942
826.37	1.065
826.55	0.984
826.72	1.162
826.90	1.246
827.07	1.301
827.25	1.225
827.42	1.379
827.60	1.534
827.77	1.718
827.95	1.664
828.12	1.766
828.30	1.408
828.47	1.514
828.65	1.175
828.82	1.205
829.00	1.248
829.17	1.332
829.34	1.312
829.52	1.349
829.69	-0.000
829.87	-0.000
830.04	-0.000
830.22	-0.000
830.39	-0.000
830.57	-0.000
830.74	-0.000
830.92	-0.000
831.09	-0.000
831.26	-0.000
831.44	-0.000
831.61	-0.000
831.79	-0.000
831.96	-0.000
832.14	-0.000
832.31	-0.000
832.49	-0.000
832.66	-0.000
832.83	-0.000
833.01	-0.000
833.18	-0.000
833.36	-0.000
833.53	-0.000
833.70	-0.000
833.88	-0.000
834.05	-0.000
834.23	-0.000
834.40	-0.000
834.58	-0.000
834.75	-0.000
834.92	-0.000
835.10	-0.000
835.27	-0.000
835.45	-0.000
835.62	-0.000
835.79	-0.000
835.97	-0.000
836.14	-0.000
836.32	-0.000
836.49	-0.000
836.66	-0.000
836.84	-0.000
837.01	-0.000
837.18	-0.000
837.36	-0.000
837.53	-0.000
837.71	-0.000
837.88	-0.000
838.05	-0.000
838.23	-0.000
838.40	-0.000
838.58	-0.000
838.75	-0.000
838.92	-0.000
839.10	-0.000
839.27	-0.000
839.44	-0.000
839.62	-0.000
839.79	-0.000
839.96	-0.000
840.14	-0.000
840.31	-0.000
840.48	-0.000
840.66	-0.000
840.83	-0.000
841.01	-0.000
841.18	-0.000
841.35	-0.000
841.53	-0.000
841.70	-0.000
841.87	-0.000
842.05	-0.000
842.22	-0.000
842.39	-0.000
842.57	-0.000
842.74	-0.000
842.91	-0.000
843.09	-0.000
843.26	-0.000
843.43	-0.000
843.60	-0.000
843.78	-0.000
843.95	-0.000
844.12	-0.000
844.30	-0.000
844.47	-0.000
844.64	-0.000
844.82	-0.000
844.99	-0.000
845.16	-0.000
845.34	-0.000
845.51	-0.000
845.68	-0.000
845.85	-0.000
846.03	-0.000
846.20	-0.000
846.37	-0.000
846.55	-0.000
846.72	-0.000
846.89	-0.000
847.06	-0.000
847.24	-0.000
847.41	-0.000
847.58	-0.000
847.76	-0.000
847.93	-0.000
848.10	-0.000
848.27	-0.000
848.45	-0.000
848.62	-0.000
848.79	-0.000
848.97	-0.000
849.14	-0.000
849.31	-0.000
849.48	-0.000
849.66	-0.000
849.83	-0.000
850.00	-0.000
850.17	-0.000
850.35	-0.000
850.52	-0.000
850.69	-0.000
850.86	-0.000
851.04	-0.000
851.21	-0.000
851.38	-0.000
851.55	-0.000
851.72	-0.000
851.90	-0.000
852.07	-0.000
852.24	-0.000
852.41	-0.000
852.59	-0.000
852.76	-0.000
852.93	-0.000
853.10	-0.000
853.28	-0.000
853.45	-0.000
853.62	-0.000
853.79	-0.000
853.96	-0.000
854.14	-0.000
854.31	-0.000
854.48	-0.000
854.65	-0.000
854.82	-0.000
855.00	-0.000
855.17	-0.000
855.34	-0.000
855.51	-0.000
855.68	-0.000
855.86	-0.000
856.03	-0.000
856.20	-0.000
856.37	-0.000
856.54	-0.000
856.72	-0.000
856.89	-0.000
857.06	-0.000
857.23	-0.000
857.40	-0.000
857.57	-0.000
857.75	-0.000
857.92	-0.000
858.09	-0.000
858.26	-0.000
858.43	-0.000
858.60	-0.000
858.78	-0.000
858.95	-0.000
859.12	-0.000
859.29	-0.000
859.46	-0.000
859.63	-0.000
859.81	-0.000
859.98	-0.000
860.15	-0.000
860.32	-0.000
860.49	-0.000
860.66	-0.000
860.83	-0.000
861.01	-0.000
861.18	-0.000
861.35	-0.000
861.52	-0.000
861.69	-0.000
861.86	-0.000
862.03	-0.000
862.21	-0.000
862.38	-0.000
862.55	-0.000
862.72	-0.000
862.89	-0.000
863.06	-0.000
863.23	-0.000
863.40	-0.000
863.58	-0.000
863.75	-0.000
863.92	-0.000
864.09	-0.000
864.26	-0.000
864.43	-0.000
864.60	-0.000
864.77	-0.000
864.94	-0.000
865.11	-0.000
865.29	-0.000
865.46	-0.000
865.63	-0.000
865.80	-0.000
865.97	-0.000
866.14	-0.000
866.31	-0.000
866.48	-0.000
866.65	-0.000
866.82	-0.000
866.99	-0.000
867.16	-0.000
867.34	-0.000
867.51	-0.000
867.68	-0.000
867.85	-0.000
868.02	-0.000
868.19	-0.000
868.36	-0.000
868.53	-0.000
868.70	-0.000
868.87	-0.000
869.04	-0.000
869.21	-0.000
869.38	-0.000
869.55	-0.000
869.72	-0.000
869.89	-0.000
870.06	-0.000
870.24	-0.000
870.41	-0.000
870.58	-0.000
870.75	-0.000
870.92	-0.000
871.09	-0.000
871.26	-0.000
871.43	-0.000
871.60	-0.000
871.77	-0.000
871.94	-0.000
872.11	-0.000
872.28	-0.000
872.45	-0.000
872.62	-0.000
872.79	-0.000
872.96	-0.000
873.13	-0.000
873.30	-0.000
873.47	-0.000
873.64	-0.000
873.81	-0.000
873.98	-0.000
874.15	-0.000
874.32	-0.000
874.49	-0.000
874.66	-0.000
874.83	-0.000
875.00	-0.000
875.17	-0.000
875.34	-0.000
875.51	-0.000
875.68	-0.000
875.85	-0.000
876.02	-0.000
876.19	-0.000
876.36	-0.000
876.53	-0.000
876.70	-0.000
876.87	-0.000
877.04	-0.000
877.21	-0.000
877.38	-0.000
877.55	-0.000
877.72	-0.000
877.89	-0.000
878.06	-0.000
878.23	-0.000
878.39	-0.000
878.56	-0.000
878.73	-0.000
878.90	-0.000
879.07	-0.000
879.24	-0.000
879.41	-0.000
879.58	-0.000
879.75	-0.000
879.92	-0.000
880.09	-0.000
880.26	-0.000
880.43	-0.000
880.60	-0.000
880.77	-0.000
880.94	-0.000
881.11	-0.000
881.27	-0.000
881.44	-0.000
881.61	-0.000
881.78	-0.000
881.95	-0.000
882.12	-0.000
882.29	-0.000
882.46	-0.000
882.63	-0.000
882.80	-0.000
882.97	-0.000
883.14	-0.000
883.30	-0.000
883.47	-0.000
883.64	-0.000
883.81	-0.000
883.98	-0.000
884.15	-0.000
884.32	-0.000
884.49	-0.000
884.66	-0.000
884.82	-0.000
884.99	-0.000
885.16	-0.000
885.33	-0.000
885.50	-0.000
885.67	-0.000
885.84	-0.000
886.01	-0.000
886.17	-0.000
886.34	-0.000
886.51	-0.000
886.68	-0.000
886.85	-0.000
887.02	-0.000
887.19	-0.000
887.36	-0.000
887.52	-0.000
887.69	-0.000
887.86	-0.000
888.03	-0.000
888.20	-0.000
888.37	-0.000
888.54	-0.000
888.70	-0.000
888.87	-0.000
889.04	-0.000
889.21	-0.000
889.38	-0.000
889.55	-0.000
889.71	-0.000
889.88	-0.000
890.05	-0.000
890.22	-0.000
890.39	-0.000
>>>>>End Processed Spectral Data<<<<<
