SpectraSuite Data File
++++++++++++++++++++++++++++++++++++
Date: Fri Jun 19 15:40:55 CEST 2015
User: introlabs
Dark Spectrum Present: Yes
Reference Spectrum Present: Yes
Number of Sampled Component Spectra: 1
Spectrometers: USB4H08886
Integration Time (usec): 745692 (USB4H08886)
Spectra Averaged: 5 (USB4H08886)
Boxcar Smoothing: 5 (USB4H08886)
Correct for Electrical Dark: Yes (USB4H08886)
Strobe/Lamp Enabled: No (USB4H08886)
Correct for Detector Non-linearity: Yes (USB4H08886)
Correct for Stray Light: Yes (USB4H08886)
Number of Pixels in Processed Spectrum: 3648
>>>>>Begin Processed Spectral Data<<<<<
178.14	-0.000
178.36	-0.000
178.57	-0.000
178.79	-0.000
179.01	-0.000
179.22	-0.000
179.44	-0.000
179.65	-0.000
179.87	-0.000
180.08	-0.000
180.30	-0.000
180.52	-0.000
180.73	-0.000
180.95	-0.000
181.16	-0.000
181.38	-0.000
181.59	-0.000
181.81	-0.000
182.03	-0.000
182.24	-0.000
182.46	-0.000
182.67	-0.000
182.89	-0.000
183.10	-0.000
183.32	-0.000
183.54	-0.000
183.75	-0.000
183.97	-0.000
184.18	-0.000
184.40	-0.000
184.61	-0.000
184.83	-0.000
185.04	-0.000
185.26	-0.000
185.48	-0.000
185.69	-0.000
185.91	-0.000
186.12	-0.000
186.34	-0.000
186.55	-0.000
186.77	-0.000
186.98	-0.000
187.20	-0.000
187.42	-0.000
187.63	-0.000
187.85	-0.000
188.06	-0.000
188.28	-0.000
188.49	-0.000
188.71	-0.000
188.92	-0.000
189.14	-0.000
189.36	-0.000
189.57	-0.000
189.79	-0.000
190.00	-0.000
190.22	-0.000
190.43	-0.000
190.65	-0.000
190.86	-0.000
191.08	-0.000
191.29	-0.000
191.51	-0.000
191.72	-0.000
191.94	-0.000
192.16	-0.000
192.37	-0.000
192.59	-0.000
192.80	-0.000
193.02	-0.000
193.23	-0.000
193.45	-0.000
193.66	-0.000
193.88	-0.000
194.09	-0.000
194.31	-0.000
194.52	-0.000
194.74	-0.000
194.95	-0.000
195.17	-0.000
195.38	-0.000
195.60	-0.000
195.81	-0.000
196.03	-0.000
196.25	-0.000
196.46	-0.000
196.68	-0.000
196.89	-0.000
197.11	-0.000
197.32	-0.000
197.54	-0.000
197.75	-0.000
197.97	-0.000
198.18	-0.000
198.40	-0.000
198.61	-0.000
198.83	-0.000
199.04	-0.000
199.26	-0.000
199.47	-0.000
199.69	-0.000
199.90	-0.000
200.12	-0.000
200.33	-0.000
200.55	-0.000
200.76	-0.000
200.98	-0.000
201.19	-0.000
201.41	-0.000
201.62	-0.000
201.84	-0.000
202.05	-0.000
202.27	-0.000
202.48	-0.000
202.70	-0.000
202.91	-0.000
203.13	-0.000
203.34	-0.000
203.56	-0.000
203.77	-0.000
203.99	-0.000
204.20	-0.000
204.42	-0.000
204.63	-0.000
204.85	-0.000
205.06	-0.000
205.28	-0.000
205.49	-0.000
205.71	-0.000
205.92	-0.000
206.14	-0.000
206.35	-0.000
206.56	-0.000
206.78	-0.000
206.99	-0.000
207.21	-0.000
207.42	-0.000
207.64	-0.000
207.85	-0.000
208.07	-0.000
208.28	-0.000
208.50	-0.000
208.71	-0.000
208.93	-0.000
209.14	-0.000
209.36	-0.000
209.57	-0.000
209.79	-0.000
210.00	-0.000
210.22	-0.000
210.43	-0.000
210.64	-0.000
210.86	-0.000
211.07	-0.000
211.29	-0.000
211.50	-0.000
211.72	-0.000
211.93	-0.000
212.15	-0.000
212.36	-0.000
212.58	-0.000
212.79	-0.000
213.01	-0.000
213.22	-0.000
213.43	-0.000
213.65	-0.000
213.86	-0.000
214.08	-0.000
214.29	-0.000
214.51	-0.000
214.72	-0.000
214.94	-0.000
215.15	-0.000
215.36	-0.000
215.58	-0.000
215.79	-0.000
216.01	-0.000
216.22	-0.000
216.44	-0.000
216.65	-0.000
216.87	-0.000
217.08	-0.000
217.29	-0.000
217.51	-0.000
217.72	-0.000
217.94	-0.000
218.15	-0.000
218.37	-0.000
218.58	-0.000
218.80	-0.000
219.01	-0.000
219.22	-0.000
219.44	-0.000
219.65	-0.000
219.87	-0.000
220.08	-0.000
220.30	-0.000
220.51	-0.000
220.72	-0.000
220.94	-0.000
221.15	-0.000
221.37	-0.000
221.58	-0.000
221.79	-0.000
222.01	-0.000
222.22	-0.000
222.44	-0.000
222.65	-0.000
222.87	-0.000
223.08	-0.000
223.29	-0.000
223.51	-0.000
223.72	-0.000
223.94	-0.000
224.15	-0.000
224.36	-0.000
224.58	-0.000
224.79	-0.000
225.01	-0.000
225.22	-0.000
225.44	-0.000
225.65	-0.000
225.86	-0.000
226.08	-0.000
226.29	-0.000
226.51	-0.000
226.72	-0.000
226.93	-0.000
227.15	-0.000
227.36	-0.000
227.58	-0.000
227.79	-0.000
228.00	-0.000
228.22	-0.000
228.43	-0.000
228.65	-0.000
228.86	-0.000
229.07	-0.000
229.29	-0.000
229.50	-0.000
229.72	-0.000
229.93	-0.000
230.14	-0.000
230.36	-0.000
230.57	-0.000
230.78	-0.000
231.00	-0.000
231.21	-0.000
231.43	-0.000
231.64	-0.000
231.85	-0.000
232.07	-0.000
232.28	-0.000
232.50	-0.000
232.71	-0.000
232.92	-0.000
233.14	-0.000
233.35	-0.000
233.56	-0.000
233.78	-0.000
233.99	-0.000
234.21	-0.000
234.42	-0.000
234.63	-0.000
234.85	-0.000
235.06	-0.000
235.27	-0.000
235.49	-0.000
235.70	-0.000
235.91	-0.000
236.13	-0.000
236.34	-0.000
236.56	-0.000
236.77	-0.000
236.98	-0.000
237.20	-0.000
237.41	-0.000
237.62	-0.000
237.84	-0.000
238.05	-0.000
238.26	-0.000
238.48	-0.000
238.69	-0.000
238.91	-0.000
239.12	-0.000
239.33	-0.000
239.55	-0.000
239.76	-0.000
239.97	-0.000
240.19	-0.000
240.40	-0.000
240.61	-0.000
240.83	-0.000
241.04	-0.000
241.25	-0.000
241.47	-0.000
241.68	-0.000
241.89	-0.000
242.11	-0.000
242.32	-0.000
242.53	-0.000
242.75	-0.000
242.96	-0.000
243.17	-0.000
243.39	-0.000
243.60	-0.000
243.81	-0.000
244.03	-0.000
244.24	-0.000
244.45	-0.000
244.67	-0.000
244.88	-0.000
245.09	-0.000
245.31	-0.000
245.52	-0.000
245.73	-0.000
245.95	-0.000
246.16	-0.000
246.37	-0.000
246.59	-0.000
246.80	-0.000
247.01	-0.000
247.23	-0.000
247.44	-0.000
247.65	-0.000
247.87	-0.000
248.08	-0.000
248.29	-0.000
248.51	-0.000
248.72	-0.000
248.93	-0.000
249.15	-0.000
249.36	-0.000
249.57	-0.000
249.78	-0.000
250.00	-0.000
250.21	-0.000
250.42	-0.000
250.64	-0.000
250.85	-0.000
251.06	-0.000
251.28	-0.000
251.49	-0.000
251.70	-0.000
251.92	-0.000
252.13	-0.000
252.34	-0.000
252.55	-0.000
252.77	-0.000
252.98	-0.000
253.19	-0.000
253.41	-0.000
253.62	-0.000
253.83	-0.000
254.05	-0.000
254.26	-0.000
254.47	-0.000
254.68	-0.000
254.90	-0.000
255.11	-0.000
255.32	-0.000
255.54	-0.000
255.75	-0.000
255.96	-0.000
256.17	-0.000
256.39	-0.000
256.60	-0.000
256.81	-0.000
257.03	-0.000
257.24	-0.000
257.45	-0.000
257.66	-0.000
257.88	-0.000
258.09	-0.000
258.30	-0.000
258.51	-0.000
258.73	-0.000
258.94	-0.000
259.15	-0.000
259.37	-0.000
259.58	-0.000
259.79	-0.000
260.00	-0.000
260.22	-0.000
260.43	-0.000
260.64	-0.000
260.85	-0.000
261.07	-0.000
261.28	-0.000
261.49	-0.000
261.71	-0.000
261.92	-0.000
262.13	-0.000
262.34	-0.000
262.56	-0.000
262.77	-0.000
262.98	-0.000
263.19	-0.000
263.41	-0.000
263.62	-0.000
263.83	-0.000
264.04	-0.000
264.26	-0.000
264.47	-0.000
264.68	-0.000
264.89	-0.000
265.11	-0.000
265.32	-0.000
265.53	-0.000
265.74	-0.000
265.96	-0.000
266.17	-0.000
266.38	-0.000
266.59	-0.000
266.81	-0.000
267.02	-0.000
267.23	-0.000
267.44	-0.000
267.65	-0.000
267.87	-0.000
268.08	-0.000
268.29	-0.000
268.50	-0.000
268.72	-0.000
268.93	-0.000
269.14	-0.000
269.35	-0.000
269.57	-0.000
269.78	-0.000
269.99	-0.000
270.20	-0.000
270.41	-0.000
270.63	-0.000
270.84	-0.000
271.05	-0.000
271.26	-0.000
271.48	-0.000
271.69	-0.000
271.90	-0.000
272.11	-0.000
272.32	-0.000
272.54	-0.000
272.75	-0.000
272.96	-0.000
273.17	-0.000
273.39	-0.000
273.60	-0.000
273.81	-0.000
274.02	-0.000
274.23	-0.000
274.45	-0.000
274.66	-0.000
274.87	-0.000
275.08	-0.000
275.29	-0.000
275.51	-0.000
275.72	-0.000
275.93	-0.000
276.14	-0.000
276.35	-0.000
276.57	-0.000
276.78	-0.000
276.99	-0.000
277.20	-0.000
277.41	-0.000
277.63	-0.000
277.84	-0.000
278.05	-0.000
278.26	-0.000
278.47	-0.000
278.69	-0.000
278.90	-0.000
279.11	-0.000
279.32	-0.000
279.53	-0.000
279.74	-0.000
279.96	-0.000
280.17	-0.000
280.38	-0.000
280.59	-0.000
280.80	-0.000
281.02	-0.000
281.23	-0.000
281.44	-0.000
281.65	-0.000
281.86	-0.000
282.07	-0.000
282.29	-0.000
282.50	-0.000
282.71	-0.000
282.92	-0.000
283.13	-0.000
283.35	-0.000
283.56	-0.000
283.77	-0.000
283.98	-0.000
284.19	-0.000
284.40	-0.000
284.62	-0.000
284.83	-0.000
285.04	-0.000
285.25	-0.000
285.46	-0.000
285.67	-0.000
285.88	-0.000
286.10	-0.000
286.31	-0.000
286.52	-0.000
286.73	-0.000
286.94	-0.000
287.15	-0.000
287.37	-0.000
287.58	-0.000
287.79	-0.000
288.00	-0.000
288.21	-0.000
288.42	-0.000
288.63	-0.000
288.85	-0.000
289.06	-0.000
289.27	-0.000
289.48	-0.000
289.69	-0.000
289.90	-0.000
290.11	-0.000
290.33	-0.000
290.54	-0.000
290.75	-0.000
290.96	-0.000
291.17	-0.000
291.38	-0.000
291.59	-0.000
291.81	-0.000
292.02	-0.000
292.23	-0.000
292.44	-0.000
292.65	-0.000
292.86	-0.000
293.07	-0.000
293.28	2.617
293.50	-0.000
293.71	-0.000
293.92	-0.000
294.13	-0.000
294.34	-0.000
294.55	-0.000
294.76	-0.000
294.97	-0.000
295.19	-0.000
295.40	-0.000
295.61	-0.000
295.82	-0.000
296.03	2.482
296.24	2.588
296.45	1.896
296.66	1.669
296.87	1.686
297.09	1.728
297.30	1.881
297.51	1.627
297.72	1.598
297.93	1.666
298.14	1.627
298.35	1.609
298.56	1.592
298.77	1.681
298.99	1.664
299.20	1.647
299.41	1.626
299.62	1.575
299.83	1.567
300.04	1.528
300.25	1.518
300.46	1.549
300.67	1.523
300.88	1.484
301.10	1.487
301.31	1.546
301.52	1.494
301.73	1.451
301.94	1.462
302.15	1.470
302.36	1.427
302.57	1.374
302.78	1.381
302.99	1.416
303.20	1.429
303.41	1.357
303.63	1.337
303.84	1.339
304.05	1.338
304.26	1.286
304.47	1.295
304.68	1.296
304.89	1.288
305.10	1.253
305.31	1.238
305.52	1.276
305.73	1.266
305.94	1.235
306.15	1.228
306.37	1.247
306.58	1.254
306.79	1.228
307.00	1.246
307.21	1.285
307.42	1.279
307.63	1.253
307.84	1.221
308.05	1.258
308.26	1.260
308.47	1.243
308.68	1.239
308.89	1.235
309.10	1.232
309.31	1.196
309.52	1.183
309.73	1.195
309.95	1.189
310.16	1.165
310.37	1.152
310.58	1.165
310.79	1.164
311.00	1.162
311.21	1.165
311.42	1.167
311.63	1.165
311.84	1.149
312.05	1.147
312.26	1.165
312.47	1.178
312.68	1.158
312.89	1.141
313.10	1.146
313.31	1.120
313.52	1.123
313.73	1.122
313.94	1.123
314.15	1.108
314.36	1.090
314.57	1.085
314.78	1.070
314.99	1.063
315.21	1.054
315.42	1.058
315.63	1.070
315.84	1.049
316.05	1.038
316.26	1.045
316.47	1.062
316.68	1.058
316.89	1.039
317.10	1.058
317.31	1.065
317.52	1.065
317.73	1.046
317.94	1.044
318.15	1.082
318.36	1.082
318.57	1.065
318.78	1.054
318.99	1.085
319.20	1.084
319.41	1.052
319.62	1.052
319.83	1.064
320.04	1.062
320.25	1.050
320.46	1.019
320.67	1.020
320.88	1.017
321.09	1.005
321.30	0.993
321.51	1.005
321.72	1.005
321.93	0.991
322.14	0.984
322.35	1.007
322.56	1.011
322.77	1.000
322.98	1.009
323.19	1.016
323.40	1.023
323.61	1.002
323.82	0.997
324.03	1.000
324.24	0.998
324.45	0.986
324.66	0.968
324.87	0.962
325.08	0.962
325.29	0.946
325.50	0.938
325.71	0.940
325.92	0.950
326.13	0.938
326.34	0.939
326.55	0.947
326.76	0.946
326.97	0.939
327.18	0.934
327.39	0.958
327.60	0.958
327.80	0.961
328.01	0.962
328.22	0.960
328.43	0.963
328.64	0.953
328.85	0.956
329.06	0.956
329.27	0.954
329.48	0.951
329.69	0.932
329.90	0.942
330.11	0.934
330.32	0.927
330.53	0.921
330.74	0.920
330.95	0.918
331.16	0.906
331.37	0.915
331.58	0.916
331.79	0.916
332.00	0.909
332.21	0.902
332.42	0.905
332.63	0.898
332.83	0.894
333.04	0.896
333.25	0.907
333.46	0.906
333.67	0.892
333.88	0.894
334.09	0.902
334.30	0.900
334.51	0.893
334.72	0.889
334.93	0.891
335.14	0.890
335.35	0.884
335.56	0.879
335.77	0.886
335.98	0.886
336.18	0.880
336.39	0.872
336.60	0.874
336.81	0.871
337.02	0.870
337.23	0.875
337.44	0.877
337.65	0.878
337.86	0.869
338.07	0.864
338.28	0.867
338.49	0.865
338.70	0.860
338.91	0.867
339.11	0.875
339.32	0.872
339.53	0.861
339.74	0.858
339.95	0.856
340.16	0.853
340.37	0.848
340.58	0.846
340.79	0.849
341.00	0.850
341.21	0.840
341.41	0.839
341.62	0.840
341.83	0.841
342.04	0.837
342.25	0.846
342.46	0.851
342.67	0.848
342.88	0.843
343.09	0.842
343.30	0.847
343.50	0.849
343.71	0.841
343.92	0.840
344.13	0.843
344.34	0.842
344.55	0.827
344.76	0.826
344.97	0.831
345.18	0.829
345.38	0.827
345.59	0.821
345.80	0.820
346.01	0.818
346.22	0.815
346.43	0.810
346.64	0.818
346.85	0.818
347.06	0.811
347.26	0.810
347.47	0.814
347.68	0.809
347.89	0.806
348.10	0.801
348.31	0.808
348.52	0.806
348.73	0.803
348.93	0.800
349.14	0.802
349.35	0.801
349.56	0.797
349.77	0.792
349.98	0.798
350.19	0.795
350.39	0.791
350.60	0.787
350.81	0.802
351.02	0.801
351.23	0.797
351.44	0.799
351.65	0.801
351.86	0.798
352.06	0.797
352.27	0.797
352.48	0.798
352.69	0.798
352.90	0.793
353.11	0.780
353.31	0.787
353.52	0.784
353.73	0.776
353.94	0.778
354.15	0.784
354.36	0.784
354.57	0.776
354.77	0.779
354.98	0.778
355.19	0.776
355.40	0.776
355.61	0.782
355.82	0.785
356.02	0.784
356.23	0.778
356.44	0.779
356.65	0.782
356.86	0.783
357.07	0.777
357.27	0.780
357.48	0.782
357.69	0.778
357.90	0.763
358.11	0.759
358.32	0.763
358.52	0.766
358.73	0.757
358.94	0.758
359.15	0.762
359.36	0.762
359.56	0.758
359.77	0.755
359.98	0.761
360.19	0.761
360.40	0.759
360.61	0.760
360.81	0.758
361.02	0.759
361.23	0.752
361.44	0.751
361.65	0.751
361.85	0.750
362.06	0.749
362.27	0.751
362.48	0.751
362.69	0.753
362.89	0.746
363.10	0.748
363.31	0.752
363.52	0.755
363.73	0.751
363.93	0.751
364.14	0.753
364.35	0.754
364.56	0.745
364.77	0.747
364.97	0.749
365.18	0.750
365.39	0.745
365.60	0.740
365.81	0.741
366.01	0.740
366.22	0.737
366.43	0.736
366.64	0.738
366.84	0.743
367.05	0.740
367.26	0.739
367.47	0.741
367.68	0.741
367.88	0.740
368.09	0.737
368.30	0.740
368.51	0.740
368.71	0.739
368.92	0.743
369.13	0.741
369.34	0.740
369.55	0.739
369.75	0.739
369.96	0.746
370.17	0.745
370.38	0.742
370.58	0.741
370.79	0.746
371.00	0.745
371.21	0.737
371.41	0.742
371.62	0.745
371.83	0.741
372.04	0.739
372.24	0.732
372.45	0.733
372.66	0.733
372.87	0.731
373.07	0.728
373.28	0.729
373.49	0.733
373.70	0.723
373.90	0.723
374.11	0.732
374.32	0.731
374.53	0.730
374.73	0.731
374.94	0.732
375.15	0.732
375.36	0.729
375.56	0.738
375.77	0.737
375.98	0.737
376.19	0.734
376.39	0.729
376.60	0.732
376.81	0.732
377.02	0.731
377.22	0.731
377.43	0.731
377.64	0.731
377.84	0.723
378.05	0.729
378.26	0.734
378.47	0.733
378.67	0.730
378.88	0.728
379.09	0.729
379.30	0.730
379.50	0.727
379.71	0.729
379.92	0.732
380.12	0.731
380.33	0.723
380.54	0.720
380.75	0.726
380.95	0.727
381.16	0.726
381.37	0.725
381.57	0.726
381.78	0.726
381.99	0.726
382.20	0.725
382.40	0.728
382.61	0.728
382.82	0.726
383.02	0.720
383.23	0.723
383.44	0.723
383.64	0.722
383.85	0.724
384.06	0.727
384.27	0.725
384.47	0.724
384.68	0.723
384.89	0.729
385.09	0.728
385.30	0.727
385.51	0.726
385.71	0.729
385.92	0.730
386.13	0.728
386.33	0.731
386.54	0.732
386.75	0.731
386.95	0.728
387.16	0.723
387.37	0.726
387.58	0.726
387.78	0.725
387.99	0.723
388.20	0.724
388.40	0.722
388.61	0.717
388.82	0.721
389.02	0.723
389.23	0.723
389.44	0.722
389.64	0.722
389.85	0.733
390.06	0.733
390.26	0.734
390.47	0.734
390.68	0.735
390.88	0.734
391.09	0.729
391.30	0.728
391.50	0.728
391.71	0.728
391.92	0.726
392.12	0.718
392.33	0.718
392.53	0.717
392.74	0.718
392.95	0.717
393.15	0.720
393.36	0.722
393.57	0.721
393.77	0.723
393.98	0.725
394.19	0.725
394.39	0.724
394.60	0.725
394.81	0.728
395.01	0.726
395.22	0.725
395.43	0.726
395.63	0.730
395.84	0.731
396.04	0.728
396.25	0.730
396.46	0.732
396.66	0.731
396.87	0.729
397.08	0.726
397.28	0.728
397.49	0.729
397.69	0.726
397.90	0.721
398.11	0.722
398.31	0.723
398.52	0.720
398.73	0.721
398.93	0.719
399.14	0.718
399.34	0.717
399.55	0.718
399.76	0.717
399.96	0.719
400.17	0.718
400.37	0.716
400.58	0.723
400.79	0.724
400.99	0.722
401.20	0.728
401.41	0.730
401.61	0.731
401.82	0.738
402.02	0.738
402.23	0.739
402.44	0.739
402.64	0.739
402.85	0.734
403.05	0.732
403.26	0.731
403.47	0.725
403.67	0.724
403.88	0.724
404.08	0.718
404.29	0.716
404.50	0.716
404.70	0.716
404.91	0.715
405.11	0.712
405.32	0.712
405.52	0.712
405.73	0.712
405.94	0.711
406.14	0.714
406.35	0.716
406.55	0.716
406.76	0.714
406.97	0.715
407.17	0.718
407.38	0.718
407.58	0.717
407.79	0.720
407.99	0.722
408.20	0.723
408.41	0.719
408.61	0.716
408.82	0.717
409.02	0.717
409.23	0.715
409.43	0.714
409.64	0.716
409.84	0.715
410.05	0.712
410.26	0.710
410.46	0.709
410.67	0.709
410.87	0.711
411.08	0.713
411.28	0.714
411.49	0.715
411.69	0.713
411.90	0.714
412.11	0.716
412.31	0.717
412.52	0.716
412.72	0.717
412.93	0.717
413.13	0.716
413.34	0.713
413.54	0.715
413.75	0.716
413.95	0.716
414.16	0.713
414.37	0.715
414.57	0.715
414.78	0.717
414.98	0.715
415.19	0.716
415.39	0.713
415.60	0.716
415.80	0.715
416.01	0.712
416.21	0.715
416.42	0.715
416.62	0.710
416.83	0.711
417.03	0.710
417.24	0.711
417.44	0.708
417.65	0.708
417.86	0.708
418.06	0.706
418.27	0.705
418.47	0.706
418.68	0.706
418.88	0.707
419.09	0.706
419.29	0.706
419.50	0.706
419.70	0.706
419.91	0.704
420.11	0.702
420.32	0.704
420.52	0.704
420.73	0.703
420.93	0.703
421.14	0.705
421.34	0.704
421.55	0.701
421.75	0.701
421.96	0.702
422.16	0.702
422.37	0.702
422.57	0.699
422.78	0.699
422.98	0.696
423.19	0.695
423.39	0.693
423.60	0.696
423.80	0.697
424.01	0.696
424.21	0.698
424.42	0.699
424.62	0.699
424.83	0.699
425.03	0.699
425.23	0.700
425.44	0.700
425.64	0.700
425.85	0.699
426.05	0.700
426.26	0.700
426.46	0.696
426.67	0.696
426.87	0.700
427.08	0.700
427.28	0.698
427.49	0.699
427.69	0.701
427.90	0.700
428.10	0.697
428.31	0.697
428.51	0.699
428.71	0.698
428.92	0.699
429.12	0.696
429.33	0.697
429.53	0.701
429.74	0.705
429.94	0.705
430.15	0.704
430.35	0.703
430.56	0.701
430.76	0.700
430.96	0.700
431.17	0.697
431.37	0.694
431.58	0.692
431.78	0.689
431.99	0.682
432.19	0.684
432.40	0.686
432.60	0.686
432.80	0.688
433.01	0.687
433.21	0.687
433.42	0.689
433.62	0.690
433.83	0.690
434.03	0.692
434.23	0.695
434.44	0.693
434.64	0.690
434.85	0.695
435.05	0.696
435.26	0.697
435.46	0.695
435.66	0.694
435.87	0.694
436.07	0.695
436.28	0.691
436.48	0.687
436.69	0.686
436.89	0.687
437.09	0.681
437.30	0.680
437.50	0.680
437.71	0.692
437.91	0.691
438.11	0.692
438.32	0.696
438.52	0.696
438.73	0.696
438.93	0.695
439.13	0.693
439.34	0.697
439.54	0.694
439.75	0.695
439.95	0.684
440.15	0.689
440.36	0.687
440.56	0.685
440.77	0.686
440.97	0.685
441.17	0.684
441.38	0.686
441.58	0.682
441.79	0.682
441.99	0.680
442.19	0.679
442.40	0.676
442.60	0.676
442.81	0.674
443.01	0.674
443.21	0.675
443.42	0.675
443.62	0.672
443.82	0.672
444.03	0.674
444.23	0.674
444.44	0.674
444.64	0.673
444.84	0.675
445.05	0.674
445.25	0.672
445.45	0.672
445.66	0.673
445.86	0.673
446.06	0.674
446.27	0.673
446.47	0.675
446.68	0.674
446.88	0.673
447.08	0.672
447.29	0.674
447.49	0.674
447.69	0.674
447.90	0.673
448.10	0.676
448.30	0.674
448.51	0.675
448.71	0.673
448.91	0.675
449.12	0.674
449.32	0.675
449.52	0.674
449.73	0.677
449.93	0.676
450.14	0.677
450.34	0.676
450.54	0.678
450.75	0.675
450.95	0.674
451.15	0.673
451.36	0.675
451.56	0.672
451.76	0.672
451.97	0.668
452.17	0.668
452.37	0.666
452.58	0.663
452.78	0.663
452.98	0.665
453.19	0.664
453.39	0.665
453.59	0.664
453.79	0.664
454.00	0.664
454.20	0.664
454.40	0.664
454.61	0.667
454.81	0.668
455.01	0.667
455.22	0.667
455.42	0.669
455.62	0.667
455.83	0.667
456.03	0.670
456.23	0.671
456.44	0.671
456.64	0.670
456.84	0.670
457.04	0.670
457.25	0.670
457.45	0.667
457.65	0.666
457.86	0.666
458.06	0.665
458.26	0.660
458.47	0.660
458.67	0.661
458.87	0.661
459.07	0.658
459.28	0.660
459.48	0.662
459.68	0.662
459.89	0.661
460.09	0.660
460.29	0.661
460.49	0.663
460.70	0.662
460.90	0.661
461.10	0.662
461.31	0.662
461.51	0.659
461.71	0.661
461.91	0.662
462.12	0.662
462.32	0.661
462.52	0.661
462.72	0.663
462.93	0.664
463.13	0.663
463.33	0.664
463.53	0.665
463.74	0.665
463.94	0.660
464.14	0.661
464.35	0.663
464.55	0.663
464.75	0.661
464.95	0.659
465.16	0.661
465.36	0.660
465.56	0.659
465.76	0.657
465.97	0.658
466.17	0.658
466.37	0.656
466.57	0.656
466.78	0.656
466.98	0.656
467.18	0.654
467.38	0.652
467.59	0.654
467.79	0.655
467.99	0.655
468.19	0.656
468.39	0.658
468.60	0.659
468.80	0.657
469.00	0.659
469.20	0.660
469.41	0.660
469.61	0.660
469.81	0.660
470.01	0.659
470.22	0.660
470.42	0.658
470.62	0.656
470.82	0.657
471.02	0.657
471.23	0.655
471.43	0.656
471.63	0.658
471.83	0.658
472.04	0.657
472.24	0.656
472.44	0.662
472.64	0.661
472.84	0.659
473.05	0.659
473.25	0.662
473.45	0.661
473.65	0.660
473.85	0.660
474.06	0.661
474.26	0.660
474.46	0.661
474.66	0.658
474.86	0.658
475.07	0.658
475.27	0.656
475.47	0.654
475.67	0.654
475.87	0.656
476.08	0.653
476.28	0.655
476.48	0.656
476.68	0.654
476.88	0.652
477.09	0.653
477.29	0.654
477.49	0.654
477.69	0.654
477.89	0.654
478.09	0.653
478.30	0.655
478.50	0.652
478.70	0.651
478.90	0.652
479.10	0.655
479.31	0.656
479.51	0.654
479.71	0.655
479.91	0.655
480.11	0.653
480.31	0.653
480.52	0.652
480.72	0.652
480.92	0.652
481.12	0.651
481.32	0.648
481.52	0.646
481.72	0.646
481.93	0.650
482.13	0.651
482.33	0.650
482.53	0.649
482.73	0.650
482.93	0.651
483.14	0.650
483.34	0.649
483.54	0.650
483.74	0.649
483.94	0.648
484.14	0.644
484.34	0.645
484.55	0.645
484.75	0.644
484.95	0.642
485.15	0.642
485.35	0.642
485.55	0.642
485.75	0.640
485.96	0.640
486.16	0.641
486.36	0.641
486.56	0.639
486.76	0.639
486.96	0.639
487.16	0.638
487.36	0.636
487.57	0.635
487.77	0.635
487.97	0.635
488.17	0.634
488.37	0.633
488.57	0.634
488.77	0.634
488.97	0.633
489.18	0.632
489.38	0.635
489.58	0.636
489.78	0.636
489.98	0.636
490.18	0.636
490.38	0.636
490.58	0.636
490.78	0.636
490.98	0.637
491.19	0.638
491.39	0.638
491.59	0.637
491.79	0.640
491.99	0.640
492.19	0.640
492.39	0.643
492.59	0.643
492.79	0.644
492.99	0.645
493.20	0.645
493.40	0.645
493.60	0.646
493.80	0.645
494.00	0.642
494.20	0.643
494.40	0.643
494.60	0.640
494.80	0.644
495.00	0.643
495.20	0.641
495.40	0.640
495.61	0.641
495.81	0.641
496.01	0.645
496.21	0.646
496.41	0.645
496.61	0.646
496.81	0.644
497.01	0.640
497.21	0.639
497.41	0.640
497.61	0.639
497.81	0.637
498.01	0.637
498.21	0.635
498.41	0.632
498.61	0.633
498.82	0.633
499.02	0.635
499.22	0.636
499.42	0.635
499.62	0.637
499.82	0.637
500.02	0.639
500.22	0.638
500.42	0.640
500.62	0.641
500.82	0.641
501.02	0.639
501.22	0.639
501.42	0.638
501.62	0.640
501.82	0.640
502.02	0.640
502.22	0.639
502.42	0.641
502.62	0.638
502.82	0.638
503.02	0.639
503.22	0.638
503.42	0.637
503.63	0.638
503.83	0.635
504.03	0.634
504.23	0.633
504.43	0.633
504.63	0.634
504.83	0.633
505.03	0.633
505.23	0.635
505.43	0.636
505.63	0.637
505.83	0.636
506.03	0.638
506.23	0.640
506.43	0.640
506.63	0.640
506.83	0.639
507.03	0.641
507.23	0.640
507.43	0.638
507.63	0.638
507.83	0.638
508.03	0.639
508.23	0.638
508.43	0.637
508.63	0.638
508.83	0.639
509.03	0.640
509.23	0.638
509.43	0.640
509.63	0.640
509.83	0.639
510.03	0.641
510.23	0.643
510.43	0.644
510.63	0.644
510.83	0.644
511.03	0.645
511.23	0.643
511.43	0.643
511.63	0.644
511.83	0.646
512.03	0.646
512.22	0.642
512.42	0.642
512.62	0.642
512.82	0.642
513.02	0.641
513.22	0.641
513.42	0.642
513.62	0.645
513.82	0.644
514.02	0.643
514.22	0.644
514.42	0.645
514.62	0.644
514.82	0.644
515.02	0.647
515.22	0.650
515.42	0.649
515.62	0.651
515.82	0.649
516.02	0.650
516.22	0.651
516.42	0.652
516.62	0.653
516.82	0.655
517.01	0.653
517.21	0.653
517.41	0.656
517.61	0.656
517.81	0.652
518.01	0.652
518.21	0.651
518.41	0.650
518.61	0.649
518.81	0.650
519.01	0.651
519.21	0.651
519.41	0.650
519.61	0.645
519.81	0.647
520.00	0.647
520.20	0.648
520.40	0.651
520.60	0.652
520.80	0.650
521.00	0.651
521.20	0.652
521.40	0.656
521.60	0.656
521.80	0.656
522.00	0.656
522.20	0.659
522.39	0.658
522.59	0.655
522.79	0.657
522.99	0.658
523.19	0.656
523.39	0.654
523.59	0.652
523.79	0.655
523.99	0.657
524.19	0.656
524.38	0.655
524.58	0.656
524.78	0.657
524.98	0.655
525.18	0.658
525.38	0.659
525.58	0.660
525.78	0.657
525.98	0.655
526.18	0.655
526.37	0.655
526.57	0.656
526.77	0.656
526.97	0.657
527.17	0.657
527.37	0.654
527.57	0.656
527.77	0.657
527.96	0.658
528.16	0.657
528.36	0.658
528.56	0.660
528.76	0.658
528.96	0.657
529.16	0.658
529.36	0.660
529.55	0.660
529.75	0.657
529.95	0.657
530.15	0.658
530.35	0.660
530.55	0.658
530.75	0.658
530.94	0.659
531.14	0.659
531.34	0.659
531.54	0.657
531.74	0.660
531.94	0.663
532.13	0.661
532.33	0.664
532.53	0.663
532.73	0.663
532.93	0.661
533.13	0.662
533.33	0.662
533.52	0.663
533.72	0.666
533.92	0.664
534.12	0.662
534.32	0.662
534.52	0.660
534.71	0.662
534.91	0.664
535.11	0.665
535.31	0.664
535.51	0.665
535.71	0.666
535.90	0.664
536.10	0.665
536.30	0.667
536.50	0.668
536.70	0.668
536.89	0.666
537.09	0.665
537.29	0.667
537.49	0.668
537.69	0.667
537.89	0.667
538.08	0.667
538.28	0.665
538.48	0.666
538.68	0.667
538.88	0.668
539.07	0.669
539.27	0.667
539.47	0.666
539.67	0.665
539.87	0.667
540.06	0.665
540.26	0.666
540.46	0.669
540.66	0.666
540.86	0.664
541.05	0.664
541.25	0.665
541.45	0.665
541.65	0.664
541.84	0.666
542.04	0.667
542.24	0.667
542.44	0.666
542.64	0.667
542.83	0.670
543.03	0.670
543.23	0.667
543.43	0.668
543.62	0.668
543.82	0.668
544.02	0.667
544.22	0.667
544.42	0.671
544.61	0.671
544.81	0.668
545.01	0.667
545.21	0.669
545.40	0.669
545.60	0.668
545.80	0.672
546.00	0.672
546.19	0.671
546.39	0.670
546.59	0.667
546.79	0.669
546.98	0.669
547.18	0.669
547.38	0.669
547.58	0.671
547.77	0.672
547.97	0.668
548.17	0.670
548.37	0.671
548.56	0.672
548.76	0.671
548.96	0.673
549.16	0.675
549.35	0.674
549.55	0.672
549.75	0.673
549.95	0.676
550.14	0.676
550.34	0.674
550.54	0.679
550.73	0.682
550.93	0.683
551.13	0.680
551.33	0.678
551.52	0.680
551.72	0.680
551.92	0.678
552.12	0.679
552.31	0.680
552.51	0.680
552.71	0.676
552.90	0.676
553.10	0.676
553.30	0.676
553.50	0.676
553.69	0.677
553.89	0.677
554.09	0.677
554.28	0.673
554.48	0.675
554.68	0.676
554.87	0.676
555.07	0.673
555.27	0.673
555.47	0.674
555.66	0.675
555.86	0.673
556.06	0.676
556.25	0.677
556.45	0.684
556.65	0.683
556.84	0.686
557.04	0.689
557.24	0.691
557.43	0.691
557.63	0.694
557.83	0.696
558.02	0.697
558.22	0.702
558.42	0.702
558.61	0.695
558.81	0.696
559.01	0.692
559.21	0.692
559.40	0.692
559.60	0.691
559.80	0.687
559.99	0.688
560.19	0.690
560.39	0.684
560.58	0.682
560.78	0.682
560.97	0.685
561.17	0.684
561.37	0.682
561.56	0.683
561.76	0.684
561.96	0.684
562.15	0.682
562.35	0.684
562.55	0.685
562.74	0.685
562.94	0.684
563.14	0.682
563.33	0.682
563.53	0.682
563.73	0.680
563.92	0.681
564.12	0.684
564.31	0.686
564.51	0.684
564.71	0.686
564.90	0.688
565.10	0.689
565.30	0.693
565.49	0.694
565.69	0.695
565.89	0.697
566.08	0.694
566.28	0.696
566.47	0.697
566.67	0.696
566.87	0.694
567.06	0.696
567.26	0.703
567.46	0.698
567.65	0.698
567.85	0.699
568.04	0.701
568.24	0.700
568.44	0.697
568.63	0.695
568.83	0.696
569.02	0.694
569.22	0.690
569.42	0.686
569.61	0.688
569.81	0.687
570.00	0.685
570.20	0.686
570.40	0.687
570.59	0.687
570.79	0.686
570.98	0.684
571.18	0.685
571.38	0.685
571.57	0.682
571.77	0.680
571.96	0.683
572.16	0.681
572.35	0.675
572.55	0.676
572.75	0.675
572.94	0.675
573.14	0.673
573.33	0.674
573.53	0.674
573.73	0.674
573.92	0.672
574.12	0.670
574.31	0.673
574.51	0.674
574.70	0.671
574.90	0.673
575.09	0.674
575.29	0.675
575.49	0.672
575.68	0.672
575.88	0.673
576.07	0.675
576.27	0.673
576.46	0.671
576.66	0.670
576.86	0.669
577.05	0.667
577.25	0.665
577.44	0.666
577.64	0.666
577.83	0.665
578.03	0.666
578.22	0.665
578.42	0.664
578.61	0.663
578.81	0.664
579.00	0.664
579.20	0.663
579.40	0.662
579.59	0.661
579.79	0.661
579.98	0.661
580.18	0.660
580.37	0.660
580.57	0.663
580.76	0.667
580.96	0.666
581.15	0.667
581.35	0.668
581.54	0.668
581.74	0.668
581.93	0.669
582.13	0.670
582.32	0.667
582.52	0.665
582.71	0.664
582.91	0.660
583.10	0.660
583.30	0.659
583.49	0.658
583.69	0.661
583.88	0.662
584.08	0.661
584.27	0.664
584.47	0.667
584.66	0.669
584.86	0.668
585.05	0.670
585.25	0.673
585.44	0.672
585.64	0.671
585.83	0.667
586.03	0.667
586.22	0.666
586.42	0.661
586.61	0.662
586.81	0.664
587.00	0.663
587.20	0.661
587.39	0.662
587.59	0.663
587.78	0.664
587.98	0.665
588.17	0.666
588.37	0.669
588.56	0.670
588.76	0.667
588.95	0.667
589.15	0.670
589.34	0.672
589.54	0.671
589.73	0.672
589.92	0.675
590.12	0.675
590.31	0.673
590.51	0.678
590.70	0.680
590.90	0.681
591.09	0.680
591.29	0.679
591.48	0.678
591.68	0.679
591.87	0.678
592.06	0.678
592.26	0.680
592.45	0.680
592.65	0.674
592.84	0.673
593.04	0.675
593.23	0.677
593.43	0.675
593.62	0.674
593.81	0.674
594.01	0.673
594.20	0.671
594.40	0.669
594.59	0.671
594.79	0.671
594.98	0.670
595.17	0.669
595.37	0.670
595.56	0.672
595.76	0.672
595.95	0.673
596.14	0.676
596.34	0.678
596.53	0.677
596.73	0.679
596.92	0.681
597.12	0.684
597.31	0.685
597.50	0.684
597.70	0.686
597.89	0.685
598.09	0.682
598.28	0.683
598.47	0.685
598.67	0.684
598.86	0.679
599.06	0.680
599.25	0.680
599.44	0.678
599.64	0.675
599.83	0.672
600.03	0.674
600.22	0.674
600.41	0.674
600.61	0.672
600.80	0.674
601.00	0.674
601.19	0.670
601.38	0.668
601.58	0.670
601.77	0.672
601.96	0.675
602.16	0.675
602.35	0.684
602.55	0.682
602.74	0.683
602.93	0.685
603.13	0.690
603.32	0.692
603.51	0.692
603.71	0.695
603.90	0.697
604.09	0.697
604.29	0.694
604.48	0.689
604.68	0.690
604.87	0.689
605.06	0.686
605.26	0.683
605.45	0.683
605.64	0.682
605.84	0.678
606.03	0.677
606.22	0.676
606.42	0.675
606.61	0.672
606.80	0.671
607.00	0.673
607.19	0.672
607.38	0.670
607.58	0.672
607.77	0.674
607.96	0.673
608.16	0.672
608.35	0.675
608.54	0.678
608.74	0.681
608.93	0.686
609.12	0.688
609.32	0.691
609.51	0.694
609.70	0.693
609.90	0.695
610.09	0.699
610.28	0.705
610.48	0.700
610.67	0.701
610.86	0.702
611.06	0.697
611.25	0.695
611.44	0.696
611.64	0.696
611.83	0.699
612.02	0.696
612.21	0.695
612.41	0.693
612.60	0.692
612.79	0.688
612.99	0.688
613.18	0.690
613.37	0.687
613.57	0.684
613.76	0.686
613.95	0.684
614.14	0.683
614.34	0.680
614.53	0.681
614.72	0.683
614.92	0.683
615.11	0.681
615.30	0.678
615.49	0.679
615.69	0.681
615.88	0.678
616.07	0.678
616.26	0.680
616.46	0.681
616.65	0.678
616.84	0.677
617.04	0.678
617.23	0.681
617.42	0.682
617.61	0.685
617.81	0.685
618.00	0.687
618.19	0.687
618.38	0.691
618.58	0.695
618.77	0.697
618.96	0.696
619.15	0.699
619.35	0.700
619.54	0.701
619.73	0.697
619.92	0.699
620.12	0.703
620.31	0.704
620.50	0.699
620.69	0.699
620.89	0.702
621.08	0.703
621.27	0.703
621.46	0.702
621.66	0.706
621.85	0.705
622.04	0.703
622.23	0.703
622.43	0.703
622.62	0.703
622.81	0.702
623.00	0.701
623.19	0.703
623.39	0.702
623.58	0.700
623.77	0.698
623.96	0.701
624.16	0.700
624.35	0.695
624.54	0.698
624.73	0.700
624.92	0.697
625.12	0.695
625.31	0.696
625.50	0.699
625.69	0.700
625.88	0.696
626.08	0.696
626.27	0.697
626.46	0.697
626.65	0.695
626.84	0.696
627.04	0.701
627.23	0.701
627.42	0.696
627.61	0.698
627.80	0.700
628.00	0.701
628.19	0.699
628.38	0.702
628.57	0.705
628.76	0.704
628.96	0.701
629.15	0.702
629.34	0.703
629.53	0.704
629.72	0.700
629.91	0.701
630.11	0.705
630.30	0.706
630.49	0.710
630.68	0.710
630.87	0.713
631.06	0.716
631.26	0.711
631.45	0.713
631.64	0.720
631.83	0.722
632.02	0.718
632.21	0.717
632.41	0.722
632.60	0.716
632.79	0.715
632.98	0.715
633.17	0.716
633.36	0.718
633.55	0.715
633.75	0.711
633.94	0.712
634.13	0.714
634.32	0.712
634.51	0.706
634.70	0.708
634.89	0.707
635.09	0.704
635.28	0.704
635.47	0.705
635.66	0.707
635.85	0.704
636.04	0.706
636.23	0.709
636.43	0.709
636.62	0.708
636.81	0.708
637.00	0.710
637.19	0.713
637.38	0.710
637.57	0.709
637.76	0.711
637.95	0.711
638.15	0.708
638.34	0.705
638.53	0.708
638.72	0.710
638.91	0.709
639.10	0.708
639.29	0.708
639.48	0.709
639.67	0.710
639.87	0.708
640.06	0.714
640.25	0.714
640.44	0.715
640.63	0.716
640.82	0.718
641.01	0.717
641.20	0.717
641.39	0.718
641.58	0.720
641.78	0.718
641.97	0.715
642.16	0.728
642.35	0.728
642.54	0.726
642.73	0.721
642.92	0.720
643.11	0.723
643.30	0.723
643.49	0.719
643.68	0.721
643.87	0.722
644.06	0.722
644.25	0.703
644.45	0.705
644.64	0.706
644.83	0.707
645.02	0.705
645.21	0.704
645.40	0.705
645.59	0.705
645.78	0.701
645.97	0.703
646.16	0.704
646.35	0.703
646.54	0.702
646.73	0.704
646.92	0.705
647.11	0.703
647.30	0.700
647.49	0.701
647.68	0.700
647.88	0.699
648.07	0.692
648.26	0.695
648.45	0.696
648.64	0.693
648.83	0.690
649.02	0.692
649.21	0.701
649.40	0.700
649.59	0.696
649.78	0.697
649.97	0.709
650.16	0.709
650.35	0.703
650.54	0.706
650.73	0.714
650.92	0.711
651.11	0.705
651.30	0.702
651.49	0.706
651.68	0.707
651.87	0.704
652.06	0.694
652.25	0.697
652.44	0.701
652.63	0.700
652.82	0.702
653.01	0.702
653.20	0.701
653.39	0.691
653.58	0.690
653.77	0.689
653.96	0.684
654.15	0.677
654.34	0.675
654.53	0.670
654.72	0.663
654.91	0.653
655.10	0.649
655.29	0.647
655.48	0.645
655.67	0.639
655.86	0.636
656.05	0.634
656.24	0.634
656.43	0.628
656.62	0.627
656.81	0.627
657.00	0.623
657.19	0.619
657.38	0.617
657.57	0.615
657.76	0.617
657.95	0.614
658.14	0.617
658.33	0.619
658.51	0.623
658.70	0.624
658.89	0.625
659.08	0.635
659.27	0.644
659.46	0.645
659.65	0.651
659.84	0.656
660.03	0.660
660.22	0.661
660.41	0.666
660.60	0.666
660.79	0.667
660.98	0.674
661.17	0.673
661.36	0.671
661.55	0.673
661.74	0.672
661.92	0.674
662.11	0.675
662.30	0.675
662.49	0.669
662.68	0.668
662.87	0.670
663.06	0.664
663.25	0.665
663.44	0.666
663.63	0.666
663.82	0.665
664.01	0.661
664.20	0.659
664.38	0.659
664.57	0.660
664.76	0.659
664.95	0.659
665.14	0.663
665.33	0.658
665.52	0.665
665.71	0.668
665.90	0.667
666.09	0.669
666.28	0.667
666.46	0.667
666.65	0.667
666.84	0.666
667.03	0.660
667.22	0.659
667.41	0.662
667.60	0.652
667.79	0.645
667.98	0.648
668.16	0.647
668.35	0.647
668.54	0.643
668.73	0.644
668.92	0.644
669.11	0.644
669.30	0.639
669.49	0.635
669.67	0.637
669.86	0.639
670.05	0.637
670.24	0.635
670.43	0.632
670.62	0.632
670.81	0.627
671.00	0.628
671.18	0.628
671.37	0.626
671.56	0.625
671.75	0.624
671.94	0.621
672.13	0.619
672.32	0.615
672.50	0.615
672.69	0.615
672.88	0.614
673.07	0.611
673.26	0.612
673.45	0.613
673.63	0.612
673.82	0.608
674.01	0.609
674.20	0.608
674.39	0.608
674.58	0.608
674.76	0.608
674.95	0.607
675.14	0.607
675.33	0.603
675.52	0.602
675.71	0.602
675.89	0.602
676.08	0.599
676.27	0.599
676.46	0.599
676.65	0.598
676.84	0.598
677.02	0.599
677.21	0.600
677.40	0.599
677.59	0.597
677.78	0.598
677.96	0.600
678.15	0.599
678.34	0.597
678.53	0.598
678.72	0.598
678.90	0.594
679.09	0.591
679.28	0.588
679.47	0.588
679.66	0.588
679.84	0.584
680.03	0.581
680.22	0.580
680.41	0.582
680.60	0.579
680.78	0.578
680.97	0.580
681.16	0.580
681.35	0.579
681.53	0.578
681.72	0.578
681.91	0.580
682.10	0.579
682.29	0.582
682.47	0.579
682.66	0.578
682.85	0.576
683.04	0.575
683.22	0.574
683.41	0.576
683.60	0.575
683.79	0.576
683.97	0.575
684.16	0.574
684.35	0.570
684.54	0.571
684.72	0.573
684.91	0.574
685.10	0.571
685.29	0.573
685.47	0.570
685.66	0.569
685.85	0.566
686.04	0.565
686.22	0.567
686.41	0.569
686.60	0.566
686.79	0.568
686.97	0.569
687.16	0.570
687.35	0.567
687.54	0.571
687.72	0.574
687.91	0.574
688.10	0.576
688.29	0.576
688.47	0.574
688.66	0.574
688.85	0.571
689.03	0.569
689.22	0.574
689.41	0.575
689.60	0.571
689.78	0.569
689.97	0.570
690.16	0.567
690.34	0.563
690.53	0.563
690.72	0.562
690.91	0.560
691.09	0.558
691.28	0.552
691.47	0.550
691.65	0.549
691.84	0.546
692.03	0.545
692.21	0.542
692.40	0.541
692.59	0.539
692.77	0.538
692.96	0.540
693.15	0.540
693.34	0.538
693.52	0.538
693.71	0.538
693.90	0.539
694.08	0.540
694.27	0.542
694.46	0.550
694.64	0.552
694.83	0.551
695.02	0.550
695.20	0.549
695.39	0.549
695.58	0.549
695.76	0.550
695.95	0.549
696.14	0.548
696.32	0.546
696.51	0.537
696.70	0.537
696.88	0.537
697.07	0.536
697.26	0.537
697.44	0.538
697.63	0.537
697.81	0.535
698.00	0.535
698.19	0.534
698.37	0.534
698.56	0.534
698.75	0.533
698.93	0.533
699.12	0.533
699.31	0.533
699.49	0.532
699.68	0.533
699.87	0.535
700.05	0.535
700.24	0.535
700.42	0.536
700.61	0.535
700.80	0.533
700.98	0.534
701.17	0.535
701.36	0.534
701.54	0.534
701.73	0.535
701.91	0.532
702.10	0.532
702.29	0.530
702.47	0.529
702.66	0.530
702.84	0.531
703.03	0.529
703.22	0.530
703.40	0.530
703.59	0.531
703.77	0.531
703.96	0.531
704.15	0.531
704.33	0.532
704.52	0.531
704.70	0.530
704.89	0.530
705.08	0.529
705.26	0.526
705.45	0.526
705.63	0.526
705.82	0.523
706.00	0.522
706.19	0.521
706.38	0.520
706.56	0.520
706.75	0.518
706.93	0.517
707.12	0.518
707.30	0.518
707.49	0.516
707.68	0.514
707.86	0.513
708.05	0.513
708.23	0.510
708.42	0.511
708.60	0.513
708.79	0.513
708.98	0.511
709.16	0.511
709.35	0.513
709.53	0.517
709.72	0.516
709.90	0.518
710.09	0.520
710.27	0.522
710.46	0.525
710.64	0.524
710.83	0.525
711.02	0.527
711.20	0.526
711.39	0.524
711.57	0.521
711.76	0.522
711.94	0.520
712.13	0.521
712.31	0.521
712.50	0.517
712.68	0.514
712.87	0.515
713.05	0.515
713.24	0.516
713.42	0.516
713.61	0.516
713.79	0.517
713.98	0.517
714.16	0.518
714.35	0.518
714.54	0.518
714.72	0.519
714.91	0.517
715.09	0.522
715.28	0.525
715.46	0.524
715.65	0.523
715.83	0.522
716.02	0.523
716.20	0.520
716.39	0.519
716.57	0.520
716.76	0.522
716.94	0.522
717.12	0.515
717.31	0.517
717.49	0.520
717.68	0.522
717.86	0.522
718.05	0.525
718.23	0.527
718.42	0.529
718.60	0.530
718.79	0.538
718.97	0.540
719.16	0.540
719.34	0.538
719.53	0.537
719.71	0.536
719.90	0.537
720.08	0.534
720.27	0.535
720.45	0.535
720.63	0.534
720.82	0.528
721.00	0.531
721.19	0.534
721.37	0.534
721.56	0.534
721.74	0.536
721.93	0.544
722.11	0.550
722.30	0.549
722.48	0.553
722.66	0.553
722.85	0.554
723.03	0.554
723.22	0.552
723.40	0.554
723.59	0.555
723.77	0.559
723.95	0.553
724.14	0.556
724.32	0.557
724.51	0.556
724.69	0.558
724.88	0.558
725.06	0.556
725.24	0.558
725.43	0.559
725.61	0.561
725.80	0.555
725.98	0.553
726.16	0.551
726.35	0.556
726.53	0.555
726.72	0.555
726.90	0.565
727.09	0.566
727.27	0.572
727.45	0.571
727.64	0.579
727.82	0.589
728.01	0.593
728.19	0.590
728.37	0.595
728.56	0.599
728.74	0.604
728.92	0.593
729.11	0.595
729.29	0.592
729.48	0.593
729.66	0.583
729.84	0.582
730.03	0.585
730.21	0.587
730.40	0.579
730.58	0.579
730.76	0.579
730.95	0.582
731.13	0.584
731.31	0.597
731.50	0.605
731.68	0.610
731.86	0.606
732.05	0.619
732.23	0.623
732.42	0.625
732.60	0.630
732.78	0.634
732.97	0.651
733.15	0.655
733.33	0.646
733.52	0.652
733.70	0.660
733.88	0.669
734.07	0.656
734.25	0.678
734.43	0.685
734.62	0.688
734.80	0.685
734.98	0.675
735.17	0.682
735.35	0.688
735.53	0.677
735.72	0.681
735.90	0.702
736.08	0.721
736.27	0.700
736.45	0.710
736.63	0.718
736.82	0.727
737.00	0.729
737.18	0.738
737.37	0.767
737.55	0.791
737.73	0.784
737.92	0.784
738.10	0.777
738.28	0.797
738.46	0.785
738.65	0.797
738.83	0.813
739.01	0.861
739.20	0.854
739.38	0.837
739.56	0.827
739.75	0.835
739.93	0.806
740.11	0.828
740.29	0.828
740.48	0.836
740.66	0.819
740.84	0.814
741.03	0.780
741.21	0.794
741.39	0.778
741.57	0.790
741.76	0.803
741.94	0.810
742.12	0.781
742.31	0.787
742.49	0.802
742.67	0.823
742.85	0.837
743.04	0.842
743.22	0.845
743.40	0.893
743.58	0.877
743.77	0.890
743.95	0.918
744.13	0.965
744.31	0.947
744.50	0.941
744.68	0.938
744.86	0.915
745.04	0.925
745.23	0.987
745.41	0.964
745.59	0.968
745.77	0.944
745.96	0.936
746.14	0.938
746.32	0.938
746.50	0.932
746.69	0.917
746.87	0.926
747.05	0.917
747.23	0.844
747.42	0.832
747.60	0.855
747.78	0.856
747.96	0.881
748.14	0.843
748.33	0.867
748.51	0.863
748.69	0.857
748.87	0.880
749.06	0.873
749.24	0.878
749.42	0.867
749.60	0.853
749.78	0.858
749.97	0.816
750.15	0.813
750.33	0.811
750.51	0.833
750.69	0.839
750.88	0.846
751.06	0.854
751.24	0.874
751.42	0.865
751.60	0.857
751.79	0.923
751.97	0.961
752.15	0.958
752.33	0.929
752.51	0.989
752.69	0.999
752.88	0.971
753.06	1.017
753.24	0.994
753.42	1.028
753.60	1.182
753.78	1.059
753.97	1.079
754.15	1.097
754.33	1.124
754.51	1.007
754.69	0.990
754.87	1.014
755.06	0.949
755.24	0.953
755.42	0.958
755.60	0.863
755.78	0.869
755.96	0.824
756.15	0.822
756.33	0.826
756.51	0.843
756.69	0.834
756.87	0.802
757.05	0.818
757.23	0.801
757.42	0.772
757.60	0.769
757.78	0.760
757.96	0.757
758.14	0.741
758.32	0.727
758.50	0.739
758.69	0.737
758.87	0.731
759.05	0.732
759.23	0.741
759.41	0.745
759.59	0.738
759.77	0.757
759.95	0.781
760.13	0.829
760.32	0.831
760.50	0.824
760.68	0.843
760.86	0.847
761.04	0.825
761.22	0.830
761.40	0.870
761.58	0.876
761.76	0.852
761.95	0.834
762.13	0.792
762.31	0.792
762.49	0.767
762.67	0.784
762.85	0.791
763.03	0.786
763.21	0.770
763.39	0.752
763.57	0.751
763.75	0.747
763.94	0.734
764.12	0.735
764.30	0.756
764.48	0.761
764.66	0.728
764.84	0.727
765.02	0.761
765.20	0.768
765.38	0.751
765.56	0.757
765.74	0.790
765.92	0.792
766.10	0.796
766.28	0.788
766.46	0.810
766.65	0.810
766.83	0.799
767.01	0.784
767.19	0.789
767.37	0.790
767.55	0.780
767.73	0.764
767.91	0.764
768.09	0.755
768.27	0.744
768.45	0.735
768.63	0.740
768.81	0.743
768.99	0.720
769.17	0.741
769.35	0.752
769.53	0.748
769.71	0.731
769.89	0.740
770.07	0.741
770.25	0.729
770.43	0.709
770.61	0.729
770.79	0.732
770.97	0.740
771.15	0.713
771.33	0.713
771.51	0.716
771.69	0.724
771.87	0.732
772.05	0.740
772.24	0.745
772.42	0.754
772.60	0.735
772.78	0.791
772.96	0.816
773.14	0.814
773.32	0.798
773.49	0.805
773.67	0.803
773.85	0.785
774.03	0.778
774.21	0.807
774.39	0.814
774.57	0.838
774.75	0.770
774.93	0.766
775.11	0.785
775.29	0.791
775.47	0.792
775.65	0.799
775.83	0.813
776.01	0.828
776.19	0.788
776.37	0.788
776.55	0.785
776.73	0.785
776.91	0.778
777.09	0.762
777.27	0.759
777.45	0.747
777.63	0.730
777.81	0.726
777.99	0.714
778.17	0.712
778.35	0.696
778.53	0.685
778.71	0.687
778.89	0.677
779.07	0.668
779.24	0.671
779.42	0.672
779.60	0.689
779.78	0.686
779.96	0.691
780.14	0.698
780.32	0.717
780.50	0.703
780.68	0.701
780.86	0.693
781.04	0.710
781.22	0.716
781.40	0.723
781.58	0.712
781.75	0.707
781.93	0.693
782.11	0.693
782.29	0.678
782.47	0.677
782.65	0.667
782.83	0.692
783.01	0.683
783.19	0.677
783.37	0.667
783.55	0.671
783.72	0.687
783.90	0.695
784.08	0.688
784.26	0.699
784.44	0.717
784.62	0.720
784.80	0.692
784.98	0.699
785.16	0.705
785.33	0.718
785.51	0.705
785.69	0.691
785.87	0.689
786.05	0.701
786.23	0.699
786.41	0.696
786.59	0.702
786.77	0.702
786.94	0.692
787.12	0.692
787.30	0.693
787.48	0.691
787.66	0.684
787.84	0.687
788.02	0.676
788.19	0.674
788.37	0.662
788.55	0.664
788.73	0.662
788.91	0.657
789.09	0.643
789.27	0.632
789.44	0.644
789.62	0.647
789.80	0.655
789.98	0.679
790.16	0.666
790.34	0.664
790.51	0.652
790.69	0.671
790.87	0.674
791.05	0.673
791.23	0.670
791.41	0.667
791.58	0.672
791.76	0.653
791.94	0.626
792.12	0.634
792.30	0.634
792.48	0.632
792.65	0.626
792.83	0.634
793.01	0.638
793.19	0.634
793.37	0.623
793.54	0.620
793.72	0.628
793.90	0.626
794.08	0.616
794.26	0.616
794.43	0.623
794.61	0.608
794.79	0.596
794.97	0.596
795.15	0.602
795.32	0.603
795.50	0.596
795.68	0.591
795.86	0.596
796.04	0.597
796.21	0.593
796.39	0.592
796.57	0.603
796.75	0.611
796.92	0.611
797.10	0.615
797.28	0.617
797.46	0.620
797.64	0.623
797.81	0.628
797.99	0.631
798.17	0.635
798.35	0.632
798.52	0.635
798.70	0.631
798.88	0.641
799.06	0.641
799.23	0.645
799.41	0.650
799.59	0.644
799.77	0.635
799.94	0.642
800.12	0.650
800.30	0.666
800.48	0.668
800.65	0.669
800.83	0.657
801.01	0.649
801.19	0.650
801.36	0.646
801.54	0.646
801.72	0.656
801.90	0.643
802.07	0.639
802.25	0.624
802.43	0.610
802.60	0.606
802.78	0.612
802.96	0.616
803.14	0.611
803.31	0.612
803.49	0.613
803.67	0.609
803.84	0.614
804.02	0.608
804.20	0.611
804.38	0.616
804.55	0.614
804.73	0.601
804.91	0.602
805.08	0.613
805.26	0.610
805.44	0.673
805.61	0.675
805.79	0.674
805.97	0.673
806.15	0.667
806.32	0.663
806.50	0.668
806.68	0.670
806.85	0.662
807.03	0.653
807.21	0.664
807.38	0.600
807.56	0.590
807.74	0.599
807.91	0.604
808.09	0.606
808.27	0.623
808.44	0.647
808.62	0.654
808.80	0.657
808.97	0.650
809.15	0.649
809.33	0.663
809.50	0.670
809.68	0.658
809.86	0.665
810.03	0.691
810.21	0.672
810.39	0.654
810.56	0.659
810.74	0.678
810.91	0.746
811.09	0.735
811.27	0.753
811.44	0.758
811.62	0.760
811.80	0.746
811.97	0.720
812.15	0.719
812.33	0.718
812.50	0.707
812.68	0.696
812.85	0.643
813.03	0.644
813.21	0.616
813.38	0.609
813.56	0.610
813.74	0.620
813.91	0.627
814.09	0.653
814.26	0.645
814.44	0.648
814.62	0.638
814.79	0.641
814.97	0.647
815.14	0.649
815.32	0.655
815.50	0.670
815.67	0.670
815.85	0.661
816.02	0.653
816.20	0.660
816.38	0.670
816.55	0.677
816.73	0.678
816.90	0.684
817.08	0.711
817.26	0.717
817.43	0.702
817.61	0.726
817.78	0.744
817.96	0.724
818.13	0.718
818.31	0.722
818.49	0.731
818.66	0.725
818.84	0.715
819.01	0.697
819.19	0.701
819.36	0.702
819.54	0.674
819.71	0.713
819.89	0.725
820.07	0.736
820.24	0.732
820.42	0.732
820.59	0.748
820.77	0.770
820.94	0.761
821.12	0.777
821.29	0.788
821.47	0.789
821.64	0.734
821.82	0.743
822.00	0.738
822.17	0.735
822.35	0.730
822.52	0.731
822.70	0.718
822.87	0.727
823.05	0.710
823.22	0.722
823.40	0.744
823.57	0.762
823.75	0.752
823.92	0.775
824.10	0.791
824.27	0.828
824.45	0.818
824.62	0.875
824.80	0.890
824.97	0.903
825.15	0.890
825.32	0.905
825.50	0.906
825.67	0.910
825.85	0.887
826.02	0.900
826.20	0.916
826.37	1.024
826.55	0.958
826.72	1.117
826.90	1.167
827.07	1.219
827.25	1.168
827.42	1.294
827.60	1.408
827.77	1.545
827.95	1.530
828.12	1.615
828.30	1.342
828.47	1.436
828.65	1.152
828.82	1.186
829.00	1.218
829.17	1.296
829.34	1.295
829.52	1.314
829.69	-0.000
829.87	-0.000
830.04	-0.000
830.22	-0.000
830.39	-0.000
830.57	-0.000
830.74	-0.000
830.92	-0.000
831.09	-0.000
831.26	-0.000
831.44	-0.000
831.61	-0.000
831.79	-0.000
831.96	-0.000
832.14	-0.000
832.31	-0.000
832.49	-0.000
832.66	-0.000
832.83	-0.000
833.01	-0.000
833.18	-0.000
833.36	-0.000
833.53	-0.000
833.70	-0.000
833.88	-0.000
834.05	-0.000
834.23	-0.000
834.40	-0.000
834.58	-0.000
834.75	-0.000
834.92	-0.000
835.10	-0.000
835.27	-0.000
835.45	-0.000
835.62	-0.000
835.79	-0.000
835.97	-0.000
836.14	-0.000
836.32	-0.000
836.49	-0.000
836.66	-0.000
836.84	-0.000
837.01	-0.000
837.18	-0.000
837.36	-0.000
837.53	-0.000
837.71	-0.000
837.88	-0.000
838.05	-0.000
838.23	-0.000
838.40	-0.000
838.58	-0.000
838.75	-0.000
838.92	-0.000
839.10	-0.000
839.27	-0.000
839.44	-0.000
839.62	-0.000
839.79	-0.000
839.96	-0.000
840.14	-0.000
840.31	-0.000
840.48	-0.000
840.66	-0.000
840.83	-0.000
841.01	-0.000
841.18	-0.000
841.35	-0.000
841.53	-0.000
841.70	-0.000
841.87	-0.000
842.05	-0.000
842.22	-0.000
842.39	-0.000
842.57	-0.000
842.74	-0.000
842.91	-0.000
843.09	-0.000
843.26	-0.000
843.43	-0.000
843.60	-0.000
843.78	-0.000
843.95	-0.000
844.12	-0.000
844.30	-0.000
844.47	-0.000
844.64	-0.000
844.82	-0.000
844.99	-0.000
845.16	-0.000
845.34	-0.000
845.51	-0.000
845.68	-0.000
845.85	-0.000
846.03	-0.000
846.20	-0.000
846.37	-0.000
846.55	-0.000
846.72	-0.000
846.89	-0.000
847.06	-0.000
847.24	-0.000
847.41	-0.000
847.58	-0.000
847.76	-0.000
847.93	-0.000
848.10	-0.000
848.27	-0.000
848.45	-0.000
848.62	-0.000
848.79	-0.000
848.97	-0.000
849.14	-0.000
849.31	-0.000
849.48	-0.000
849.66	-0.000
849.83	-0.000
850.00	-0.000
850.17	-0.000
850.35	-0.000
850.52	-0.000
850.69	-0.000
850.86	-0.000
851.04	-0.000
851.21	-0.000
851.38	-0.000
851.55	-0.000
851.72	-0.000
851.90	-0.000
852.07	-0.000
852.24	-0.000
852.41	-0.000
852.59	-0.000
852.76	-0.000
852.93	-0.000
853.10	-0.000
853.28	-0.000
853.45	-0.000
853.62	-0.000
853.79	-0.000
853.96	-0.000
854.14	-0.000
854.31	-0.000
854.48	-0.000
854.65	-0.000
854.82	-0.000
855.00	-0.000
855.17	-0.000
855.34	-0.000
855.51	-0.000
855.68	-0.000
855.86	-0.000
856.03	-0.000
856.20	-0.000
856.37	-0.000
856.54	-0.000
856.72	-0.000
856.89	-0.000
857.06	-0.000
857.23	-0.000
857.40	-0.000
857.57	-0.000
857.75	-0.000
857.92	-0.000
858.09	-0.000
858.26	-0.000
858.43	-0.000
858.60	-0.000
858.78	-0.000
858.95	-0.000
859.12	-0.000
859.29	-0.000
859.46	-0.000
859.63	-0.000
859.81	-0.000
859.98	-0.000
860.15	-0.000
860.32	-0.000
860.49	-0.000
860.66	-0.000
860.83	-0.000
861.01	-0.000
861.18	-0.000
861.35	-0.000
861.52	-0.000
861.69	-0.000
861.86	-0.000
862.03	-0.000
862.21	-0.000
862.38	-0.000
862.55	-0.000
862.72	-0.000
862.89	-0.000
863.06	-0.000
863.23	-0.000
863.40	-0.000
863.58	-0.000
863.75	-0.000
863.92	-0.000
864.09	-0.000
864.26	-0.000
864.43	-0.000
864.60	-0.000
864.77	-0.000
864.94	-0.000
865.11	-0.000
865.29	-0.000
865.46	-0.000
865.63	-0.000
865.80	-0.000
865.97	-0.000
866.14	-0.000
866.31	-0.000
866.48	-0.000
866.65	-0.000
866.82	-0.000
866.99	-0.000
867.16	-0.000
867.34	-0.000
867.51	-0.000
867.68	-0.000
867.85	-0.000
868.02	-0.000
868.19	-0.000
868.36	-0.000
868.53	-0.000
868.70	-0.000
868.87	-0.000
869.04	-0.000
869.21	-0.000
869.38	-0.000
869.55	-0.000
869.72	-0.000
869.89	-0.000
870.06	-0.000
870.24	-0.000
870.41	-0.000
870.58	-0.000
870.75	-0.000
870.92	-0.000
871.09	-0.000
871.26	-0.000
871.43	-0.000
871.60	-0.000
871.77	-0.000
871.94	-0.000
872.11	-0.000
872.28	-0.000
872.45	-0.000
872.62	-0.000
872.79	-0.000
872.96	-0.000
873.13	-0.000
873.30	-0.000
873.47	-0.000
873.64	-0.000
873.81	-0.000
873.98	-0.000
874.15	-0.000
874.32	-0.000
874.49	-0.000
874.66	-0.000
874.83	-0.000
875.00	-0.000
875.17	-0.000
875.34	-0.000
875.51	-0.000
875.68	-0.000
875.85	-0.000
876.02	-0.000
876.19	-0.000
876.36	-0.000
876.53	-0.000
876.70	-0.000
876.87	-0.000
877.04	-0.000
877.21	-0.000
877.38	-0.000
877.55	-0.000
877.72	-0.000
877.89	-0.000
878.06	-0.000
878.23	-0.000
878.39	-0.000
878.56	-0.000
878.73	-0.000
878.90	-0.000
879.07	-0.000
879.24	-0.000
879.41	-0.000
879.58	-0.000
879.75	-0.000
879.92	-0.000
880.09	-0.000
880.26	-0.000
880.43	-0.000
880.60	-0.000
880.77	-0.000
880.94	-0.000
881.11	-0.000
881.27	-0.000
881.44	-0.000
881.61	-0.000
881.78	-0.000
881.95	-0.000
882.12	-0.000
882.29	-0.000
882.46	-0.000
882.63	-0.000
882.80	-0.000
882.97	-0.000
883.14	-0.000
883.30	-0.000
883.47	-0.000
883.64	-0.000
883.81	-0.000
883.98	-0.000
884.15	-0.000
884.32	-0.000
884.49	-0.000
884.66	-0.000
884.82	-0.000
884.99	-0.000
885.16	-0.000
885.33	-0.000
885.50	-0.000
885.67	-0.000
885.84	-0.000
886.01	-0.000
886.17	-0.000
886.34	-0.000
886.51	-0.000
886.68	-0.000
886.85	-0.000
887.02	-0.000
887.19	-0.000
887.36	-0.000
887.52	-0.000
887.69	-0.000
887.86	-0.000
888.03	-0.000
888.20	-0.000
888.37	-0.000
888.54	-0.000
888.70	-0.000
888.87	-0.000
889.04	-0.000
889.21	-0.000
889.38	-0.000
889.55	-0.000
889.71	-0.000
889.88	-0.000
890.05	-0.000
890.22	-0.000
890.39	-0.000
>>>>>End Processed Spectral Data<<<<<
