SpectraSuite Data File
++++++++++++++++++++++++++++++++++++
Date: Fri Jun 19 13:47:25 CEST 2015
User: introlabs
Dark Spectrum Present: Yes
Reference Spectrum Present: Yes
Number of Sampled Component Spectra: 1
Spectrometers: USB4H08886
Integration Time (usec): 745692 (USB4H08886)
Spectra Averaged: 5 (USB4H08886)
Boxcar Smoothing: 5 (USB4H08886)
Correct for Electrical Dark: Yes (USB4H08886)
Strobe/Lamp Enabled: No (USB4H08886)
Correct for Detector Non-linearity: Yes (USB4H08886)
Correct for Stray Light: Yes (USB4H08886)
Number of Pixels in Processed Spectrum: 3648
>>>>>Begin Processed Spectral Data<<<<<
178.14	-0.000
178.36	-0.000
178.57	-0.000
178.79	-0.000
179.01	-0.000
179.22	-0.000
179.44	-0.000
179.65	-0.000
179.87	-0.000
180.08	-0.000
180.30	-0.000
180.52	-0.000
180.73	-0.000
180.95	-0.000
181.16	-0.000
181.38	-0.000
181.59	-0.000
181.81	-0.000
182.03	-0.000
182.24	-0.000
182.46	-0.000
182.67	-0.000
182.89	-0.000
183.10	-0.000
183.32	-0.000
183.54	-0.000
183.75	-0.000
183.97	-0.000
184.18	-0.000
184.40	-0.000
184.61	-0.000
184.83	-0.000
185.04	-0.000
185.26	-0.000
185.48	-0.000
185.69	-0.000
185.91	-0.000
186.12	-0.000
186.34	-0.000
186.55	-0.000
186.77	-0.000
186.98	-0.000
187.20	-0.000
187.42	-0.000
187.63	-0.000
187.85	-0.000
188.06	-0.000
188.28	-0.000
188.49	-0.000
188.71	-0.000
188.92	-0.000
189.14	-0.000
189.36	-0.000
189.57	-0.000
189.79	-0.000
190.00	-0.000
190.22	-0.000
190.43	-0.000
190.65	-0.000
190.86	-0.000
191.08	-0.000
191.29	-0.000
191.51	-0.000
191.72	-0.000
191.94	-0.000
192.16	-0.000
192.37	-0.000
192.59	-0.000
192.80	-0.000
193.02	-0.000
193.23	-0.000
193.45	-0.000
193.66	-0.000
193.88	-0.000
194.09	-0.000
194.31	-0.000
194.52	-0.000
194.74	-0.000
194.95	-0.000
195.17	-0.000
195.38	-0.000
195.60	-0.000
195.81	-0.000
196.03	-0.000
196.25	-0.000
196.46	-0.000
196.68	-0.000
196.89	-0.000
197.11	-0.000
197.32	-0.000
197.54	-0.000
197.75	-0.000
197.97	-0.000
198.18	-0.000
198.40	-0.000
198.61	-0.000
198.83	-0.000
199.04	-0.000
199.26	-0.000
199.47	-0.000
199.69	-0.000
199.90	-0.000
200.12	-0.000
200.33	-0.000
200.55	-0.000
200.76	-0.000
200.98	-0.000
201.19	-0.000
201.41	-0.000
201.62	-0.000
201.84	-0.000
202.05	-0.000
202.27	-0.000
202.48	-0.000
202.70	-0.000
202.91	-0.000
203.13	-0.000
203.34	-0.000
203.56	-0.000
203.77	-0.000
203.99	-0.000
204.20	-0.000
204.42	-0.000
204.63	-0.000
204.85	-0.000
205.06	-0.000
205.28	-0.000
205.49	-0.000
205.71	-0.000
205.92	-0.000
206.14	-0.000
206.35	-0.000
206.56	-0.000
206.78	-0.000
206.99	-0.000
207.21	-0.000
207.42	-0.000
207.64	-0.000
207.85	-0.000
208.07	-0.000
208.28	-0.000
208.50	-0.000
208.71	-0.000
208.93	-0.000
209.14	-0.000
209.36	-0.000
209.57	-0.000
209.79	-0.000
210.00	-0.000
210.22	-0.000
210.43	-0.000
210.64	-0.000
210.86	-0.000
211.07	-0.000
211.29	-0.000
211.50	-0.000
211.72	-0.000
211.93	-0.000
212.15	-0.000
212.36	-0.000
212.58	-0.000
212.79	-0.000
213.01	-0.000
213.22	-0.000
213.43	-0.000
213.65	-0.000
213.86	-0.000
214.08	-0.000
214.29	-0.000
214.51	-0.000
214.72	-0.000
214.94	-0.000
215.15	-0.000
215.36	-0.000
215.58	-0.000
215.79	-0.000
216.01	-0.000
216.22	-0.000
216.44	-0.000
216.65	-0.000
216.87	-0.000
217.08	-0.000
217.29	-0.000
217.51	-0.000
217.72	-0.000
217.94	-0.000
218.15	-0.000
218.37	-0.000
218.58	-0.000
218.80	-0.000
219.01	-0.000
219.22	-0.000
219.44	-0.000
219.65	-0.000
219.87	-0.000
220.08	-0.000
220.30	-0.000
220.51	-0.000
220.72	-0.000
220.94	-0.000
221.15	-0.000
221.37	-0.000
221.58	-0.000
221.79	-0.000
222.01	-0.000
222.22	-0.000
222.44	-0.000
222.65	-0.000
222.87	-0.000
223.08	-0.000
223.29	-0.000
223.51	-0.000
223.72	-0.000
223.94	-0.000
224.15	-0.000
224.36	-0.000
224.58	-0.000
224.79	-0.000
225.01	-0.000
225.22	-0.000
225.44	-0.000
225.65	-0.000
225.86	-0.000
226.08	-0.000
226.29	-0.000
226.51	-0.000
226.72	-0.000
226.93	-0.000
227.15	-0.000
227.36	-0.000
227.58	-0.000
227.79	-0.000
228.00	-0.000
228.22	-0.000
228.43	-0.000
228.65	-0.000
228.86	-0.000
229.07	-0.000
229.29	-0.000
229.50	-0.000
229.72	-0.000
229.93	-0.000
230.14	-0.000
230.36	-0.000
230.57	-0.000
230.78	-0.000
231.00	-0.000
231.21	-0.000
231.43	-0.000
231.64	-0.000
231.85	-0.000
232.07	-0.000
232.28	-0.000
232.50	-0.000
232.71	-0.000
232.92	-0.000
233.14	-0.000
233.35	-0.000
233.56	-0.000
233.78	-0.000
233.99	-0.000
234.21	-0.000
234.42	-0.000
234.63	-0.000
234.85	-0.000
235.06	-0.000
235.27	-0.000
235.49	-0.000
235.70	-0.000
235.91	-0.000
236.13	-0.000
236.34	-0.000
236.56	-0.000
236.77	-0.000
236.98	-0.000
237.20	-0.000
237.41	-0.000
237.62	-0.000
237.84	-0.000
238.05	-0.000
238.26	-0.000
238.48	-0.000
238.69	-0.000
238.91	-0.000
239.12	-0.000
239.33	-0.000
239.55	-0.000
239.76	-0.000
239.97	-0.000
240.19	-0.000
240.40	-0.000
240.61	-0.000
240.83	-0.000
241.04	-0.000
241.25	-0.000
241.47	-0.000
241.68	-0.000
241.89	-0.000
242.11	-0.000
242.32	-0.000
242.53	-0.000
242.75	-0.000
242.96	-0.000
243.17	-0.000
243.39	-0.000
243.60	-0.000
243.81	-0.000
244.03	-0.000
244.24	-0.000
244.45	-0.000
244.67	-0.000
244.88	-0.000
245.09	-0.000
245.31	-0.000
245.52	-0.000
245.73	-0.000
245.95	-0.000
246.16	-0.000
246.37	-0.000
246.59	-0.000
246.80	-0.000
247.01	-0.000
247.23	-0.000
247.44	-0.000
247.65	-0.000
247.87	-0.000
248.08	-0.000
248.29	-0.000
248.51	-0.000
248.72	-0.000
248.93	-0.000
249.15	-0.000
249.36	-0.000
249.57	-0.000
249.78	-0.000
250.00	-0.000
250.21	-0.000
250.42	-0.000
250.64	-0.000
250.85	-0.000
251.06	-0.000
251.28	-0.000
251.49	-0.000
251.70	-0.000
251.92	-0.000
252.13	-0.000
252.34	-0.000
252.55	-0.000
252.77	-0.000
252.98	-0.000
253.19	-0.000
253.41	-0.000
253.62	-0.000
253.83	-0.000
254.05	-0.000
254.26	-0.000
254.47	-0.000
254.68	-0.000
254.90	-0.000
255.11	-0.000
255.32	-0.000
255.54	-0.000
255.75	-0.000
255.96	-0.000
256.17	-0.000
256.39	-0.000
256.60	-0.000
256.81	-0.000
257.03	-0.000
257.24	-0.000
257.45	-0.000
257.66	-0.000
257.88	-0.000
258.09	-0.000
258.30	-0.000
258.51	-0.000
258.73	-0.000
258.94	-0.000
259.15	-0.000
259.37	-0.000
259.58	-0.000
259.79	-0.000
260.00	-0.000
260.22	-0.000
260.43	-0.000
260.64	-0.000
260.85	-0.000
261.07	-0.000
261.28	-0.000
261.49	-0.000
261.71	-0.000
261.92	-0.000
262.13	-0.000
262.34	-0.000
262.56	-0.000
262.77	-0.000
262.98	-0.000
263.19	-0.000
263.41	-0.000
263.62	-0.000
263.83	-0.000
264.04	-0.000
264.26	-0.000
264.47	-0.000
264.68	-0.000
264.89	-0.000
265.11	-0.000
265.32	-0.000
265.53	-0.000
265.74	-0.000
265.96	-0.000
266.17	-0.000
266.38	-0.000
266.59	-0.000
266.81	-0.000
267.02	-0.000
267.23	-0.000
267.44	-0.000
267.65	-0.000
267.87	-0.000
268.08	-0.000
268.29	-0.000
268.50	-0.000
268.72	-0.000
268.93	-0.000
269.14	-0.000
269.35	-0.000
269.57	-0.000
269.78	-0.000
269.99	-0.000
270.20	-0.000
270.41	-0.000
270.63	-0.000
270.84	-0.000
271.05	-0.000
271.26	-0.000
271.48	-0.000
271.69	-0.000
271.90	-0.000
272.11	-0.000
272.32	-0.000
272.54	-0.000
272.75	-0.000
272.96	-0.000
273.17	-0.000
273.39	-0.000
273.60	-0.000
273.81	-0.000
274.02	-0.000
274.23	-0.000
274.45	-0.000
274.66	-0.000
274.87	-0.000
275.08	-0.000
275.29	-0.000
275.51	-0.000
275.72	-0.000
275.93	-0.000
276.14	-0.000
276.35	-0.000
276.57	-0.000
276.78	-0.000
276.99	-0.000
277.20	-0.000
277.41	-0.000
277.63	-0.000
277.84	-0.000
278.05	-0.000
278.26	-0.000
278.47	-0.000
278.69	-0.000
278.90	-0.000
279.11	-0.000
279.32	-0.000
279.53	-0.000
279.74	-0.000
279.96	-0.000
280.17	-0.000
280.38	-0.000
280.59	-0.000
280.80	-0.000
281.02	-0.000
281.23	-0.000
281.44	-0.000
281.65	-0.000
281.86	-0.000
282.07	-0.000
282.29	-0.000
282.50	-0.000
282.71	-0.000
282.92	-0.000
283.13	-0.000
283.35	-0.000
283.56	-0.000
283.77	-0.000
283.98	-0.000
284.19	-0.000
284.40	-0.000
284.62	-0.000
284.83	-0.000
285.04	-0.000
285.25	-0.000
285.46	-0.000
285.67	-0.000
285.88	-0.000
286.10	-0.000
286.31	-0.000
286.52	-0.000
286.73	-0.000
286.94	-0.000
287.15	-0.000
287.37	-0.000
287.58	-0.000
287.79	-0.000
288.00	-0.000
288.21	-0.000
288.42	-0.000
288.63	-0.000
288.85	-0.000
289.06	-0.000
289.27	-0.000
289.48	-0.000
289.69	-0.000
289.90	-0.000
290.11	-0.000
290.33	-0.000
290.54	-0.000
290.75	-0.000
290.96	-0.000
291.17	-0.000
291.38	-0.000
291.59	-0.000
291.81	-0.000
292.02	-0.000
292.23	-0.000
292.44	-0.000
292.65	-0.000
292.86	-0.000
293.07	-0.000
293.28	-0.000
293.50	-0.000
293.71	-0.000
293.92	-0.000
294.13	-0.000
294.34	-0.000
294.55	-0.000
294.76	-0.000
294.97	-0.000
295.19	-0.000
295.40	-0.000
295.61	-0.000
295.82	-0.000
296.03	-0.000
296.24	-0.000
296.45	-0.000
296.66	2.449
296.87	2.488
297.09	3.224
297.30	-0.000
297.51	2.158
297.72	2.070
297.93	2.368
298.14	2.234
298.35	2.098
298.56	2.030
298.77	2.353
298.99	2.253
299.20	2.142
299.41	2.060
299.62	1.967
299.83	1.948
300.04	1.819
300.25	1.802
300.46	1.871
300.67	1.816
300.88	1.723
301.10	1.733
301.31	1.858
301.52	1.760
301.73	1.666
301.94	1.673
302.15	1.699
302.36	1.631
302.57	1.539
302.78	1.551
302.99	1.611
303.20	1.638
303.41	1.509
303.63	1.478
303.84	1.489
304.05	1.484
304.26	1.402
304.47	1.407
304.68	1.410
304.89	1.394
305.10	1.343
305.31	1.332
305.52	1.380
305.73	1.374
305.94	1.329
306.15	1.318
306.37	1.347
306.58	1.354
306.79	1.312
307.00	1.339
307.21	1.388
307.42	1.377
307.63	1.328
307.84	1.291
308.05	1.330
308.26	1.328
308.47	1.302
308.68	1.296
308.89	1.300
309.10	1.299
309.31	1.250
309.52	1.241
309.73	1.258
309.95	1.251
310.16	1.220
310.37	1.208
310.58	1.226
310.79	1.222
311.00	1.215
311.21	1.214
311.42	1.217
311.63	1.212
311.84	1.187
312.05	1.186
312.26	1.213
312.47	1.224
312.68	1.196
312.89	1.178
313.10	1.188
313.31	1.159
313.52	1.159
313.73	1.160
313.94	1.164
314.15	1.146
314.36	1.124
314.57	1.112
314.78	1.099
314.99	1.093
315.21	1.079
315.42	1.083
315.63	1.097
315.84	1.075
316.05	1.060
316.26	1.066
316.47	1.086
316.68	1.082
316.89	1.063
317.10	1.083
317.31	1.092
317.52	1.094
317.73	1.071
317.94	1.071
318.15	1.126
318.36	1.124
318.57	1.105
318.78	1.091
318.99	1.130
319.20	1.128
319.41	1.092
319.62	1.093
319.83	1.107
320.04	1.103
320.25	1.086
320.46	1.043
320.67	1.046
320.88	1.042
321.09	1.026
321.30	1.011
321.51	1.025
321.72	1.023
321.93	1.006
322.14	0.998
322.35	1.025
322.56	1.026
322.77	1.013
322.98	1.025
323.19	1.034
323.40	1.041
323.61	1.018
323.82	1.012
324.03	1.018
324.24	1.017
324.45	1.002
324.66	0.984
324.87	0.981
325.08	0.982
325.29	0.962
325.50	0.955
325.71	0.958
325.92	0.966
326.13	0.952
326.34	0.952
326.55	0.960
326.76	0.960
326.97	0.949
327.18	0.944
327.39	0.970
327.60	0.971
327.80	0.970
328.01	0.971
328.22	0.971
328.43	0.973
328.64	0.960
328.85	0.965
329.06	0.967
329.27	0.965
329.48	0.958
329.69	0.938
329.90	0.948
330.11	0.942
330.32	0.933
330.53	0.926
330.74	0.927
330.95	0.926
331.16	0.912
331.37	0.920
331.58	0.921
331.79	0.921
332.00	0.910
332.21	0.905
332.42	0.909
332.63	0.900
332.83	0.895
333.04	0.898
333.25	0.911
333.46	0.908
333.67	0.894
333.88	0.897
334.09	0.906
334.30	0.904
334.51	0.895
334.72	0.890
334.93	0.895
335.14	0.893
335.35	0.884
335.56	0.880
335.77	0.890
335.98	0.888
336.18	0.880
336.39	0.874
336.60	0.879
336.81	0.877
337.02	0.875
337.23	0.880
337.44	0.884
337.65	0.886
337.86	0.874
338.07	0.869
338.28	0.874
338.49	0.871
338.70	0.864
338.91	0.871
339.11	0.877
339.32	0.873
339.53	0.860
339.74	0.857
339.95	0.855
340.16	0.853
340.37	0.844
340.58	0.843
340.79	0.848
341.00	0.847
341.21	0.836
341.41	0.836
341.62	0.837
341.83	0.839
342.04	0.834
342.25	0.844
342.46	0.849
342.67	0.848
342.88	0.840
343.09	0.839
343.30	0.846
343.50	0.849
343.71	0.840
343.92	0.839
344.13	0.845
344.34	0.844
344.55	0.827
344.76	0.826
344.97	0.830
345.18	0.830
345.38	0.827
345.59	0.822
345.80	0.821
346.01	0.819
346.22	0.815
346.43	0.809
346.64	0.818
346.85	0.816
347.06	0.810
347.26	0.810
347.47	0.814
347.68	0.808
347.89	0.804
348.10	0.800
348.31	0.807
348.52	0.807
348.73	0.804
348.93	0.801
349.14	0.804
349.35	0.804
349.56	0.797
349.77	0.793
349.98	0.800
350.19	0.797
350.39	0.792
350.60	0.787
350.81	0.803
351.02	0.802
351.23	0.797
351.44	0.799
351.65	0.802
351.86	0.800
352.06	0.798
352.27	0.797
352.48	0.798
352.69	0.798
352.90	0.794
353.11	0.779
353.31	0.786
353.52	0.782
353.73	0.773
353.94	0.775
354.15	0.781
354.36	0.781
354.57	0.772
354.77	0.775
354.98	0.774
355.19	0.773
355.40	0.771
355.61	0.777
355.82	0.782
356.02	0.781
356.23	0.774
356.44	0.775
356.65	0.779
356.86	0.780
357.07	0.774
357.27	0.777
357.48	0.780
357.69	0.775
357.90	0.760
358.11	0.756
358.32	0.761
358.52	0.764
358.73	0.754
358.94	0.757
359.15	0.762
359.36	0.762
359.56	0.757
359.77	0.754
359.98	0.762
360.19	0.761
360.40	0.758
360.61	0.759
360.81	0.758
361.02	0.758
361.23	0.750
361.44	0.748
361.65	0.749
361.85	0.749
362.06	0.746
362.27	0.748
362.48	0.749
362.69	0.751
362.89	0.744
363.10	0.746
363.31	0.752
363.52	0.754
363.73	0.749
363.93	0.749
364.14	0.752
364.35	0.754
364.56	0.743
364.77	0.745
364.97	0.746
365.18	0.748
365.39	0.742
365.60	0.739
365.81	0.741
366.01	0.740
366.22	0.737
366.43	0.735
366.64	0.738
366.84	0.744
367.05	0.740
367.26	0.739
367.47	0.741
367.68	0.740
367.88	0.737
368.09	0.735
368.30	0.738
368.51	0.737
368.71	0.736
368.92	0.741
369.13	0.739
369.34	0.739
369.55	0.738
369.75	0.737
369.96	0.745
370.17	0.745
370.38	0.741
370.58	0.741
370.79	0.747
371.00	0.744
371.21	0.735
371.41	0.740
371.62	0.745
371.83	0.741
372.04	0.739
372.24	0.732
372.45	0.733
372.66	0.733
372.87	0.729
373.07	0.726
373.28	0.727
373.49	0.731
373.70	0.721
373.90	0.720
374.11	0.729
374.32	0.728
374.53	0.727
374.73	0.728
374.94	0.730
375.15	0.731
375.36	0.727
375.56	0.736
375.77	0.737
375.98	0.737
376.19	0.733
376.39	0.727
376.60	0.731
376.81	0.732
377.02	0.729
377.22	0.727
377.43	0.727
377.64	0.727
377.84	0.718
378.05	0.723
378.26	0.729
378.47	0.729
378.67	0.725
378.88	0.722
379.09	0.723
379.30	0.723
379.50	0.721
379.71	0.725
379.92	0.727
380.12	0.727
380.33	0.718
380.54	0.715
380.75	0.722
380.95	0.722
381.16	0.719
381.37	0.720
381.57	0.721
381.78	0.721
381.99	0.720
382.20	0.719
382.40	0.721
382.61	0.722
382.82	0.718
383.02	0.711
383.23	0.714
383.44	0.714
383.64	0.712
383.85	0.714
384.06	0.718
384.27	0.716
384.47	0.714
384.68	0.715
384.89	0.720
385.09	0.720
385.30	0.719
385.51	0.719
385.71	0.723
385.92	0.723
386.13	0.721
386.33	0.723
386.54	0.723
386.75	0.722
386.95	0.718
387.16	0.713
387.37	0.716
387.58	0.715
387.78	0.712
387.99	0.709
388.20	0.712
388.40	0.708
388.61	0.705
388.82	0.708
389.02	0.711
389.23	0.710
389.44	0.708
389.64	0.709
389.85	0.720
390.06	0.720
390.26	0.721
390.47	0.720
390.68	0.724
390.88	0.722
391.09	0.718
391.30	0.717
391.50	0.717
391.71	0.717
391.92	0.714
392.12	0.706
392.33	0.706
392.53	0.705
392.74	0.705
392.95	0.703
393.15	0.706
393.36	0.708
393.57	0.706
393.77	0.709
393.98	0.711
394.19	0.711
394.39	0.710
394.60	0.712
394.81	0.714
395.01	0.712
395.22	0.710
395.43	0.711
395.63	0.716
395.84	0.717
396.04	0.713
396.25	0.715
396.46	0.718
396.66	0.716
396.87	0.713
397.08	0.710
397.28	0.712
397.49	0.714
397.69	0.709
397.90	0.704
398.11	0.705
398.31	0.706
398.52	0.702
398.73	0.703
398.93	0.701
399.14	0.700
399.34	0.699
399.55	0.701
399.76	0.701
399.96	0.702
400.17	0.700
400.37	0.698
400.58	0.705
400.79	0.707
400.99	0.704
401.20	0.710
401.41	0.712
401.61	0.713
401.82	0.718
402.02	0.717
402.23	0.718
402.44	0.718
402.64	0.717
402.85	0.712
403.05	0.710
403.26	0.710
403.47	0.704
403.67	0.703
403.88	0.704
404.08	0.697
404.29	0.696
404.50	0.695
404.70	0.696
404.91	0.695
405.11	0.692
405.32	0.693
405.52	0.693
405.73	0.693
405.94	0.691
406.14	0.694
406.35	0.696
406.55	0.696
406.76	0.693
406.97	0.694
407.17	0.697
407.38	0.696
407.58	0.694
407.79	0.697
407.99	0.699
408.20	0.700
408.41	0.695
408.61	0.693
408.82	0.694
409.02	0.694
409.23	0.692
409.43	0.691
409.64	0.692
409.84	0.692
410.05	0.688
410.26	0.686
410.46	0.686
410.67	0.685
410.87	0.687
411.08	0.689
411.28	0.690
411.49	0.691
411.69	0.689
411.90	0.690
412.11	0.692
412.31	0.694
412.52	0.692
412.72	0.693
412.93	0.694
413.13	0.693
413.34	0.689
413.54	0.690
413.75	0.693
413.95	0.692
414.16	0.688
414.37	0.691
414.57	0.691
414.78	0.693
414.98	0.691
415.19	0.692
415.39	0.690
415.60	0.692
415.80	0.690
416.01	0.688
416.21	0.691
416.42	0.690
416.62	0.686
416.83	0.687
417.03	0.686
417.24	0.687
417.44	0.685
417.65	0.684
417.86	0.685
418.06	0.684
418.27	0.681
418.47	0.683
418.68	0.683
418.88	0.684
419.09	0.682
419.29	0.683
419.50	0.684
419.70	0.683
419.91	0.682
420.11	0.679
420.32	0.682
420.52	0.681
420.73	0.680
420.93	0.681
421.14	0.682
421.34	0.681
421.55	0.677
421.75	0.677
421.96	0.678
422.16	0.679
422.37	0.678
422.57	0.675
422.78	0.677
422.98	0.674
423.19	0.671
423.39	0.670
423.60	0.674
423.80	0.676
424.01	0.675
424.21	0.677
424.42	0.678
424.62	0.677
424.83	0.676
425.03	0.676
425.23	0.679
425.44	0.679
425.64	0.680
425.85	0.679
426.05	0.680
426.26	0.680
426.46	0.676
426.67	0.675
426.87	0.680
427.08	0.681
427.28	0.679
427.49	0.679
427.69	0.680
427.90	0.678
428.10	0.675
428.31	0.675
428.51	0.676
428.71	0.676
428.92	0.677
429.12	0.674
429.33	0.675
429.53	0.678
429.74	0.682
429.94	0.682
430.15	0.682
430.35	0.682
430.56	0.679
430.76	0.679
430.96	0.680
431.17	0.677
431.37	0.674
431.58	0.672
431.78	0.669
431.99	0.662
432.19	0.665
432.40	0.666
432.60	0.668
432.80	0.670
433.01	0.668
433.21	0.668
433.42	0.671
433.62	0.672
433.83	0.671
434.03	0.674
434.23	0.677
434.44	0.676
434.64	0.673
434.85	0.678
435.05	0.680
435.26	0.680
435.46	0.678
435.66	0.677
435.87	0.677
436.07	0.677
436.28	0.673
436.48	0.671
436.69	0.670
436.89	0.670
437.09	0.664
437.30	0.663
437.50	0.664
437.71	0.676
437.91	0.675
438.11	0.675
438.32	0.680
438.52	0.680
438.73	0.679
438.93	0.677
439.13	0.677
439.34	0.681
439.54	0.678
439.75	0.678
439.95	0.668
440.15	0.673
440.36	0.671
440.56	0.669
440.77	0.670
440.97	0.670
441.17	0.669
441.38	0.671
441.58	0.668
441.79	0.668
441.99	0.667
442.19	0.666
442.40	0.664
442.60	0.663
442.81	0.660
443.01	0.661
443.21	0.661
443.42	0.660
443.62	0.658
443.82	0.658
444.03	0.660
444.23	0.659
444.44	0.659
444.64	0.658
444.84	0.660
445.05	0.659
445.25	0.657
445.45	0.658
445.66	0.660
445.86	0.660
446.06	0.661
446.27	0.660
446.47	0.664
446.68	0.662
446.88	0.660
447.08	0.660
447.29	0.662
447.49	0.662
447.69	0.662
447.90	0.660
448.10	0.664
448.30	0.661
448.51	0.663
448.71	0.660
448.91	0.663
449.12	0.662
449.32	0.663
449.52	0.662
449.73	0.666
449.93	0.665
450.14	0.665
450.34	0.664
450.54	0.667
450.75	0.664
450.95	0.663
451.15	0.662
451.36	0.665
451.56	0.662
451.76	0.661
451.97	0.658
452.17	0.659
452.37	0.657
452.58	0.653
452.78	0.654
452.98	0.656
453.19	0.656
453.39	0.656
453.59	0.655
453.79	0.657
454.00	0.657
454.20	0.655
454.40	0.656
454.61	0.658
454.81	0.659
455.01	0.657
455.22	0.658
455.42	0.660
455.62	0.659
455.83	0.658
456.03	0.661
456.23	0.662
456.44	0.663
456.64	0.662
456.84	0.662
457.04	0.663
457.25	0.662
457.45	0.658
457.65	0.657
457.86	0.658
458.06	0.656
458.26	0.652
458.47	0.651
458.67	0.652
458.87	0.652
459.07	0.650
459.28	0.652
459.48	0.655
459.68	0.655
459.89	0.654
460.09	0.653
460.29	0.654
460.49	0.655
460.70	0.654
460.90	0.654
461.10	0.655
461.31	0.655
461.51	0.651
461.71	0.653
461.91	0.655
462.12	0.655
462.32	0.654
462.52	0.655
462.72	0.658
462.93	0.658
463.13	0.657
463.33	0.658
463.53	0.659
463.74	0.658
463.94	0.653
464.14	0.653
464.35	0.655
464.55	0.655
464.75	0.653
464.95	0.650
465.16	0.652
465.36	0.652
465.56	0.650
465.76	0.649
465.97	0.651
466.17	0.652
466.37	0.650
466.57	0.651
466.78	0.652
466.98	0.652
467.18	0.650
467.38	0.649
467.59	0.650
467.79	0.652
467.99	0.651
468.19	0.652
468.39	0.654
468.60	0.655
468.80	0.653
469.00	0.655
469.20	0.656
469.41	0.656
469.61	0.655
469.81	0.655
470.01	0.655
470.22	0.655
470.42	0.653
470.62	0.651
470.82	0.652
471.02	0.652
471.23	0.649
471.43	0.649
471.63	0.651
471.83	0.651
472.04	0.649
472.24	0.648
472.44	0.654
472.64	0.655
472.84	0.652
473.05	0.652
473.25	0.655
473.45	0.655
473.65	0.653
473.85	0.654
474.06	0.655
474.26	0.655
474.46	0.656
474.66	0.652
474.86	0.652
475.07	0.653
475.27	0.650
475.47	0.648
475.67	0.649
475.87	0.651
476.08	0.647
476.28	0.648
476.48	0.649
476.68	0.647
476.88	0.645
477.09	0.647
477.29	0.648
477.49	0.648
477.69	0.647
477.89	0.647
478.09	0.647
478.30	0.649
478.50	0.646
478.70	0.645
478.90	0.646
479.10	0.649
479.31	0.649
479.51	0.648
479.71	0.649
479.91	0.649
480.11	0.647
480.31	0.647
480.52	0.647
480.72	0.647
480.92	0.646
481.12	0.644
481.32	0.642
481.52	0.640
481.72	0.640
481.93	0.643
482.13	0.644
482.33	0.644
482.53	0.642
482.73	0.642
482.93	0.644
483.14	0.643
483.34	0.642
483.54	0.643
483.74	0.643
483.94	0.641
484.14	0.637
484.34	0.637
484.55	0.638
484.75	0.638
484.95	0.636
485.15	0.636
485.35	0.636
485.55	0.636
485.75	0.634
485.96	0.635
486.16	0.636
486.36	0.636
486.56	0.634
486.76	0.634
486.96	0.635
487.16	0.634
487.36	0.632
487.57	0.632
487.77	0.633
487.97	0.633
488.17	0.631
488.37	0.630
488.57	0.631
488.77	0.631
488.97	0.629
489.18	0.629
489.38	0.631
489.58	0.632
489.78	0.631
489.98	0.630
490.18	0.631
490.38	0.631
490.58	0.630
490.78	0.631
490.98	0.633
491.19	0.634
491.39	0.633
491.59	0.631
491.79	0.635
491.99	0.635
492.19	0.635
492.39	0.638
492.59	0.638
492.79	0.640
492.99	0.639
493.20	0.639
493.40	0.640
493.60	0.642
493.80	0.640
494.00	0.637
494.20	0.638
494.40	0.637
494.60	0.634
494.80	0.639
495.00	0.638
495.20	0.636
495.40	0.635
495.61	0.637
495.81	0.636
496.01	0.640
496.21	0.641
496.41	0.640
496.61	0.641
496.81	0.640
497.01	0.635
497.21	0.635
497.41	0.637
497.61	0.636
497.81	0.633
498.01	0.633
498.21	0.631
498.41	0.629
498.61	0.628
498.82	0.629
499.02	0.631
499.22	0.632
499.42	0.631
499.62	0.632
499.82	0.633
500.02	0.634
500.22	0.632
500.42	0.635
500.62	0.636
500.82	0.637
501.02	0.635
501.22	0.635
501.42	0.635
501.62	0.637
501.82	0.636
502.02	0.637
502.22	0.636
502.42	0.638
502.62	0.635
502.82	0.635
503.02	0.637
503.22	0.637
503.42	0.635
503.63	0.634
503.83	0.632
504.03	0.631
504.23	0.630
504.43	0.631
504.63	0.632
504.83	0.632
505.03	0.630
505.23	0.631
505.43	0.633
505.63	0.633
505.83	0.633
506.03	0.635
506.23	0.637
506.43	0.637
506.63	0.636
506.83	0.634
507.03	0.636
507.23	0.637
507.43	0.634
507.63	0.635
507.83	0.635
508.03	0.635
508.23	0.635
508.43	0.633
508.63	0.636
508.83	0.636
509.03	0.638
509.23	0.636
509.43	0.638
509.63	0.638
509.83	0.637
510.03	0.639
510.23	0.641
510.43	0.642
510.63	0.642
510.83	0.641
511.03	0.643
511.23	0.640
511.43	0.640
511.63	0.641
511.83	0.644
512.03	0.644
512.22	0.640
512.42	0.640
512.62	0.641
512.82	0.640
513.02	0.639
513.22	0.639
513.42	0.641
513.62	0.644
513.82	0.641
514.02	0.641
514.22	0.642
514.42	0.642
514.62	0.641
514.82	0.642
515.02	0.645
515.22	0.648
515.42	0.647
515.62	0.649
515.82	0.648
516.02	0.649
516.22	0.649
516.42	0.651
516.62	0.653
516.82	0.654
517.01	0.652
517.21	0.651
517.41	0.655
517.61	0.654
517.81	0.651
518.01	0.650
518.21	0.649
518.41	0.648
518.61	0.647
518.81	0.648
519.01	0.649
519.21	0.649
519.41	0.647
519.61	0.643
519.81	0.646
520.00	0.646
520.20	0.646
520.40	0.650
520.60	0.651
520.80	0.650
521.00	0.650
521.20	0.651
521.40	0.656
521.60	0.657
521.80	0.655
522.00	0.655
522.20	0.658
522.39	0.658
522.59	0.654
522.79	0.655
522.99	0.658
523.19	0.655
523.39	0.653
523.59	0.651
523.79	0.654
523.99	0.656
524.19	0.655
524.38	0.654
524.58	0.655
524.78	0.656
524.98	0.654
525.18	0.656
525.38	0.658
525.58	0.658
525.78	0.656
525.98	0.655
526.18	0.655
526.37	0.654
526.57	0.656
526.77	0.656
526.97	0.657
527.17	0.657
527.37	0.654
527.57	0.656
527.77	0.658
527.96	0.659
528.16	0.657
528.36	0.658
528.56	0.661
528.76	0.658
528.96	0.657
529.16	0.658
529.36	0.661
529.55	0.661
529.75	0.657
529.95	0.657
530.15	0.659
530.35	0.662
530.55	0.659
530.75	0.660
530.94	0.661
531.14	0.661
531.34	0.659
531.54	0.658
531.74	0.661
531.94	0.664
532.13	0.662
532.33	0.664
532.53	0.663
532.73	0.663
532.93	0.660
533.13	0.662
533.33	0.661
533.52	0.662
533.72	0.665
533.92	0.664
534.12	0.661
534.32	0.662
534.52	0.659
534.71	0.662
534.91	0.664
535.11	0.666
535.31	0.664
535.51	0.666
535.71	0.668
535.90	0.665
536.10	0.666
536.30	0.668
536.50	0.670
536.70	0.669
536.89	0.666
537.09	0.667
537.29	0.668
537.49	0.669
537.69	0.666
537.89	0.667
538.08	0.667
538.28	0.665
538.48	0.665
538.68	0.666
538.88	0.669
539.07	0.668
539.27	0.666
539.47	0.665
539.67	0.665
539.87	0.667
540.06	0.664
540.26	0.665
540.46	0.667
540.66	0.665
540.86	0.662
541.05	0.662
541.25	0.665
541.45	0.665
541.65	0.663
541.84	0.666
542.04	0.666
542.24	0.667
542.44	0.666
542.64	0.667
542.83	0.670
543.03	0.671
543.23	0.668
543.43	0.668
543.62	0.670
543.82	0.669
544.02	0.668
544.22	0.668
544.42	0.672
544.61	0.672
544.81	0.668
545.01	0.667
545.21	0.670
545.40	0.671
545.60	0.668
545.80	0.672
546.00	0.672
546.19	0.671
546.39	0.670
546.59	0.667
546.79	0.670
546.98	0.670
547.18	0.669
547.38	0.670
547.58	0.672
547.77	0.673
547.97	0.668
548.17	0.670
548.37	0.671
548.56	0.671
548.76	0.671
548.96	0.672
549.16	0.675
549.35	0.675
549.55	0.672
549.75	0.672
549.95	0.676
550.14	0.676
550.34	0.674
550.54	0.679
550.73	0.684
550.93	0.685
551.13	0.681
551.33	0.680
551.52	0.681
551.72	0.681
551.92	0.679
552.12	0.679
552.31	0.680
552.51	0.681
552.71	0.676
552.90	0.675
553.10	0.676
553.30	0.677
553.50	0.675
553.69	0.677
553.89	0.678
554.09	0.678
554.28	0.675
554.48	0.677
554.68	0.679
554.87	0.678
555.07	0.674
555.27	0.675
555.47	0.676
555.66	0.676
555.86	0.675
556.06	0.677
556.25	0.678
556.45	0.686
556.65	0.683
556.84	0.687
557.04	0.691
557.24	0.692
557.43	0.692
557.63	0.695
557.83	0.697
558.02	0.697
558.22	0.701
558.42	0.702
558.61	0.695
558.81	0.695
559.01	0.691
559.21	0.691
559.40	0.692
559.60	0.692
559.80	0.689
559.99	0.690
560.19	0.692
560.39	0.686
560.58	0.684
560.78	0.684
560.97	0.688
561.17	0.687
561.37	0.684
561.56	0.685
561.76	0.686
561.96	0.686
562.15	0.683
562.35	0.685
562.55	0.686
562.74	0.685
562.94	0.684
563.14	0.682
563.33	0.684
563.53	0.684
563.73	0.682
563.92	0.683
564.12	0.686
564.31	0.688
564.51	0.686
564.71	0.689
564.90	0.691
565.10	0.692
565.30	0.694
565.49	0.695
565.69	0.697
565.89	0.696
566.08	0.693
566.28	0.694
566.47	0.697
566.67	0.695
566.87	0.692
567.06	0.694
567.26	0.700
567.46	0.696
567.65	0.695
567.85	0.696
568.04	0.700
568.24	0.699
568.44	0.695
568.63	0.694
568.83	0.695
569.02	0.694
569.22	0.689
569.42	0.686
569.61	0.688
569.81	0.687
570.00	0.685
570.20	0.686
570.40	0.687
570.59	0.687
570.79	0.685
570.98	0.683
571.18	0.685
571.38	0.685
571.57	0.682
571.77	0.679
571.96	0.683
572.16	0.680
572.35	0.675
572.55	0.675
572.75	0.673
572.94	0.673
573.14	0.671
573.33	0.671
573.53	0.672
573.73	0.671
573.92	0.669
574.12	0.667
574.31	0.670
574.51	0.671
574.70	0.668
574.90	0.670
575.09	0.673
575.29	0.673
575.49	0.670
575.68	0.670
575.88	0.671
576.07	0.673
576.27	0.670
576.46	0.669
576.66	0.668
576.86	0.668
577.05	0.665
577.25	0.663
577.44	0.665
577.64	0.665
577.83	0.663
578.03	0.664
578.22	0.663
578.42	0.663
578.61	0.661
578.81	0.661
579.00	0.662
579.20	0.662
579.40	0.660
579.59	0.659
579.79	0.659
579.98	0.659
580.18	0.658
580.37	0.658
580.57	0.660
580.76	0.665
580.96	0.664
581.15	0.665
581.35	0.667
581.54	0.666
581.74	0.666
581.93	0.668
582.13	0.669
582.32	0.667
582.52	0.665
582.71	0.665
582.91	0.661
583.10	0.660
583.30	0.659
583.49	0.658
583.69	0.662
583.88	0.663
584.08	0.662
584.27	0.664
584.47	0.667
584.66	0.668
584.86	0.666
585.05	0.668
585.25	0.671
585.44	0.671
585.64	0.669
585.83	0.666
586.03	0.667
586.22	0.665
586.42	0.661
586.61	0.663
586.81	0.665
587.00	0.665
587.20	0.663
587.39	0.663
587.59	0.666
587.78	0.667
587.98	0.667
588.17	0.668
588.37	0.671
588.56	0.674
588.76	0.669
588.95	0.669
589.15	0.673
589.34	0.676
589.54	0.674
589.73	0.675
589.92	0.678
590.12	0.678
590.31	0.675
590.51	0.680
590.70	0.681
590.90	0.681
591.09	0.679
591.29	0.678
591.48	0.678
591.68	0.679
591.87	0.677
592.06	0.676
592.26	0.678
592.45	0.678
592.65	0.672
592.84	0.671
593.04	0.674
593.23	0.677
593.43	0.674
593.62	0.673
593.81	0.674
594.01	0.673
594.20	0.671
594.40	0.670
594.59	0.673
594.79	0.674
594.98	0.672
595.17	0.671
595.37	0.672
595.56	0.674
595.76	0.673
595.95	0.674
596.14	0.677
596.34	0.678
596.53	0.676
596.73	0.678
596.92	0.679
597.12	0.682
597.31	0.682
597.50	0.681
597.70	0.683
597.89	0.683
598.09	0.680
598.28	0.681
598.47	0.684
598.67	0.683
598.86	0.679
599.06	0.681
599.25	0.681
599.44	0.680
599.64	0.677
599.83	0.675
600.03	0.678
600.22	0.679
600.41	0.678
600.61	0.676
600.80	0.679
601.00	0.679
601.19	0.675
601.38	0.673
601.58	0.676
601.77	0.677
601.96	0.679
602.16	0.679
602.35	0.687
602.55	0.684
602.74	0.685
602.93	0.686
603.13	0.691
603.32	0.693
603.51	0.692
603.71	0.695
603.90	0.697
604.09	0.697
604.29	0.694
604.48	0.689
604.68	0.690
604.87	0.689
605.06	0.685
605.26	0.683
605.45	0.684
605.64	0.683
605.84	0.678
606.03	0.677
606.22	0.676
606.42	0.675
606.61	0.672
606.80	0.672
607.00	0.674
607.19	0.674
607.38	0.672
607.58	0.673
607.77	0.676
607.96	0.675
608.16	0.674
608.35	0.679
608.54	0.682
608.74	0.686
608.93	0.690
609.12	0.693
609.32	0.696
609.51	0.700
609.70	0.699
609.90	0.701
610.09	0.706
610.28	0.711
610.48	0.704
610.67	0.705
610.86	0.706
611.06	0.700
611.25	0.698
611.44	0.698
611.64	0.698
611.83	0.701
612.02	0.697
612.21	0.695
612.41	0.695
612.60	0.693
612.79	0.689
612.99	0.689
613.18	0.692
613.37	0.689
613.57	0.686
613.76	0.688
613.95	0.686
614.14	0.686
614.34	0.684
614.53	0.685
614.72	0.688
614.92	0.689
615.11	0.686
615.30	0.683
615.49	0.685
615.69	0.688
615.88	0.684
616.07	0.685
616.26	0.688
616.46	0.688
616.65	0.685
616.84	0.683
617.04	0.685
617.23	0.688
617.42	0.689
617.61	0.692
617.81	0.693
618.00	0.695
618.19	0.693
618.38	0.697
618.58	0.700
618.77	0.701
618.96	0.701
619.15	0.702
619.35	0.704
619.54	0.705
619.73	0.700
619.92	0.702
620.12	0.706
620.31	0.707
620.50	0.702
620.69	0.702
620.89	0.706
621.08	0.706
621.27	0.706
621.46	0.704
621.66	0.708
621.85	0.708
622.04	0.705
622.23	0.705
622.43	0.706
622.62	0.705
622.81	0.704
623.00	0.703
623.19	0.706
623.39	0.705
623.58	0.702
623.77	0.700
623.96	0.704
624.16	0.703
624.35	0.699
624.54	0.702
624.73	0.707
624.92	0.705
625.12	0.702
625.31	0.703
625.50	0.707
625.69	0.708
625.88	0.705
626.08	0.704
626.27	0.706
626.46	0.706
626.65	0.702
626.84	0.702
627.04	0.708
627.23	0.707
627.42	0.702
627.61	0.704
627.80	0.707
628.00	0.708
628.19	0.706
628.38	0.710
628.57	0.712
628.76	0.712
628.96	0.708
629.15	0.709
629.34	0.713
629.53	0.714
629.72	0.707
629.91	0.708
630.11	0.713
630.30	0.713
630.49	0.715
630.68	0.717
630.87	0.721
631.06	0.723
631.26	0.717
631.45	0.719
631.64	0.727
631.83	0.730
632.02	0.727
632.21	0.727
632.41	0.735
632.60	0.729
632.79	0.726
632.98	0.727
633.17	0.728
633.36	0.730
633.55	0.726
633.75	0.722
633.94	0.725
634.13	0.725
634.32	0.721
634.51	0.714
634.70	0.717
634.89	0.717
635.09	0.713
635.28	0.713
635.47	0.714
635.66	0.717
635.85	0.713
636.04	0.713
636.23	0.719
636.43	0.721
636.62	0.719
636.81	0.717
637.00	0.720
637.19	0.724
637.38	0.720
637.57	0.720
637.76	0.721
637.95	0.722
638.15	0.718
638.34	0.715
638.53	0.719
638.72	0.721
638.91	0.719
639.10	0.717
639.29	0.717
639.48	0.718
639.67	0.718
639.87	0.718
640.06	0.724
640.25	0.723
640.44	0.723
640.63	0.723
640.82	0.726
641.01	0.725
641.20	0.725
641.39	0.726
641.58	0.729
641.78	0.727
641.97	0.722
642.16	0.736
642.35	0.738
642.54	0.737
642.73	0.732
642.92	0.731
643.11	0.735
643.30	0.734
643.49	0.729
643.68	0.730
643.87	0.733
644.06	0.733
644.25	0.712
644.45	0.714
644.64	0.716
644.83	0.717
645.02	0.713
645.21	0.712
645.40	0.713
645.59	0.713
645.78	0.708
645.97	0.710
646.16	0.712
646.35	0.711
646.54	0.708
646.73	0.709
646.92	0.712
647.11	0.712
647.30	0.708
647.49	0.710
647.68	0.710
647.88	0.708
648.07	0.700
648.26	0.704
648.45	0.706
648.64	0.702
648.83	0.699
649.02	0.700
649.21	0.710
649.40	0.709
649.59	0.703
649.78	0.704
649.97	0.719
650.16	0.719
650.35	0.712
650.54	0.715
650.73	0.724
650.92	0.721
651.11	0.715
651.30	0.713
651.49	0.717
651.68	0.718
651.87	0.715
652.06	0.705
652.25	0.709
652.44	0.711
652.63	0.707
652.82	0.706
653.01	0.706
653.20	0.703
653.39	0.691
653.58	0.688
653.77	0.687
653.96	0.682
654.15	0.674
654.34	0.672
654.53	0.667
654.72	0.661
654.91	0.652
655.10	0.648
655.29	0.646
655.48	0.644
655.67	0.639
655.86	0.636
656.05	0.635
656.24	0.634
656.43	0.630
656.62	0.629
656.81	0.629
657.00	0.627
657.19	0.625
657.38	0.626
657.57	0.626
657.76	0.628
657.95	0.626
658.14	0.630
658.33	0.633
658.51	0.639
658.70	0.640
658.89	0.641
659.08	0.650
659.27	0.658
659.46	0.657
659.65	0.664
659.84	0.668
660.03	0.671
660.22	0.672
660.41	0.675
660.60	0.675
660.79	0.676
660.98	0.682
661.17	0.681
661.36	0.680
661.55	0.681
661.74	0.678
661.92	0.682
662.11	0.684
662.30	0.682
662.49	0.675
662.68	0.675
662.87	0.678
663.06	0.672
663.25	0.672
663.44	0.672
663.63	0.674
663.82	0.672
664.01	0.666
664.20	0.665
664.38	0.666
664.57	0.668
664.76	0.667
664.95	0.667
665.14	0.672
665.33	0.667
665.52	0.674
665.71	0.678
665.90	0.678
666.09	0.680
666.28	0.677
666.46	0.676
666.65	0.677
666.84	0.675
667.03	0.669
667.22	0.667
667.41	0.670
667.60	0.660
667.79	0.653
667.98	0.654
668.16	0.655
668.35	0.654
668.54	0.650
668.73	0.651
668.92	0.652
669.11	0.652
669.30	0.646
669.49	0.643
669.67	0.645
669.86	0.647
670.05	0.645
670.24	0.642
670.43	0.640
670.62	0.640
670.81	0.634
671.00	0.635
671.18	0.634
671.37	0.634
671.56	0.631
671.75	0.631
671.94	0.627
672.13	0.626
672.32	0.621
672.50	0.620
672.69	0.620
672.88	0.621
673.07	0.617
673.26	0.619
673.45	0.620
673.63	0.621
673.82	0.616
674.01	0.618
674.20	0.617
674.39	0.617
674.58	0.616
674.76	0.616
674.95	0.614
675.14	0.614
675.33	0.609
675.52	0.608
675.71	0.608
675.89	0.607
676.08	0.603
676.27	0.604
676.46	0.605
676.65	0.605
676.84	0.604
677.02	0.606
677.21	0.608
677.40	0.608
677.59	0.605
677.78	0.605
677.96	0.608
678.15	0.607
678.34	0.603
678.53	0.604
678.72	0.603
678.90	0.599
679.09	0.595
679.28	0.591
679.47	0.592
679.66	0.592
679.84	0.588
680.03	0.585
680.22	0.585
680.41	0.587
680.60	0.584
680.78	0.584
680.97	0.587
681.16	0.587
681.35	0.586
681.53	0.584
681.72	0.585
681.91	0.587
682.10	0.586
682.29	0.589
682.47	0.587
682.66	0.586
682.85	0.584
683.04	0.582
683.22	0.582
683.41	0.584
683.60	0.583
683.79	0.584
683.97	0.584
684.16	0.582
684.35	0.578
684.54	0.580
684.72	0.580
684.91	0.580
685.10	0.578
685.29	0.580
685.47	0.577
685.66	0.576
685.85	0.572
686.04	0.571
686.22	0.574
686.41	0.577
686.60	0.573
686.79	0.577
686.97	0.578
687.16	0.579
687.35	0.576
687.54	0.580
687.72	0.585
687.91	0.584
688.10	0.586
688.29	0.585
688.47	0.583
688.66	0.582
688.85	0.578
689.03	0.576
689.22	0.580
689.41	0.581
689.60	0.576
689.78	0.573
689.97	0.574
690.16	0.571
690.34	0.567
690.53	0.567
690.72	0.568
690.91	0.566
691.09	0.564
691.28	0.558
691.47	0.557
691.65	0.555
691.84	0.552
692.03	0.551
692.21	0.549
692.40	0.549
692.59	0.546
692.77	0.545
692.96	0.547
693.15	0.548
693.34	0.545
693.52	0.545
693.71	0.546
693.90	0.547
694.08	0.548
694.27	0.549
694.46	0.559
694.64	0.560
694.83	0.559
695.02	0.558
695.20	0.558
695.39	0.557
695.58	0.557
695.76	0.558
695.95	0.558
696.14	0.558
696.32	0.555
696.51	0.546
696.70	0.546
696.88	0.546
697.07	0.544
697.26	0.546
697.44	0.548
697.63	0.547
697.81	0.544
698.00	0.543
698.19	0.542
698.37	0.543
698.56	0.542
698.75	0.542
698.93	0.542
699.12	0.542
699.31	0.540
699.49	0.539
699.68	0.540
699.87	0.543
700.05	0.543
700.24	0.542
700.42	0.543
700.61	0.542
700.80	0.540
700.98	0.540
701.17	0.542
701.36	0.541
701.54	0.540
701.73	0.541
701.91	0.539
702.10	0.538
702.29	0.537
702.47	0.535
702.66	0.537
702.84	0.538
703.03	0.536
703.22	0.537
703.40	0.537
703.59	0.539
703.77	0.538
703.96	0.539
704.15	0.540
704.33	0.540
704.52	0.540
704.70	0.539
704.89	0.538
705.08	0.537
705.26	0.533
705.45	0.533
705.63	0.533
705.82	0.529
706.00	0.528
706.19	0.526
706.38	0.527
706.56	0.526
706.75	0.524
706.93	0.523
707.12	0.525
707.30	0.525
707.49	0.523
707.68	0.521
707.86	0.520
708.05	0.520
708.23	0.518
708.42	0.518
708.60	0.521
708.79	0.521
708.98	0.520
709.16	0.518
709.35	0.520
709.53	0.524
709.72	0.523
709.90	0.525
710.09	0.527
710.27	0.529
710.46	0.533
710.64	0.532
710.83	0.533
711.02	0.535
711.20	0.534
711.39	0.532
711.57	0.530
711.76	0.531
711.94	0.529
712.13	0.530
712.31	0.530
712.50	0.525
712.68	0.522
712.87	0.523
713.05	0.523
713.24	0.524
713.42	0.523
713.61	0.524
713.79	0.524
713.98	0.524
714.16	0.525
714.35	0.525
714.54	0.526
714.72	0.527
714.91	0.524
715.09	0.530
715.28	0.534
715.46	0.534
715.65	0.531
715.83	0.531
716.02	0.533
716.20	0.530
716.39	0.529
716.57	0.530
716.76	0.532
716.94	0.533
717.12	0.524
717.31	0.525
717.49	0.529
717.68	0.531
717.86	0.530
718.05	0.532
718.23	0.534
718.42	0.536
718.60	0.538
718.79	0.545
718.97	0.547
719.16	0.548
719.34	0.545
719.53	0.545
719.71	0.545
719.90	0.547
720.08	0.544
720.27	0.545
720.45	0.545
720.63	0.544
720.82	0.538
721.00	0.541
721.19	0.544
721.37	0.543
721.56	0.543
721.74	0.547
721.93	0.556
722.11	0.564
722.30	0.562
722.48	0.568
722.66	0.570
722.85	0.570
723.03	0.570
723.22	0.569
723.40	0.573
723.59	0.573
723.77	0.577
723.95	0.570
724.14	0.572
724.32	0.573
724.51	0.571
724.69	0.572
724.88	0.573
725.06	0.572
725.24	0.572
725.43	0.573
725.61	0.576
725.80	0.569
725.98	0.566
726.16	0.562
726.35	0.568
726.53	0.567
726.72	0.566
726.90	0.576
727.09	0.576
727.27	0.582
727.45	0.578
727.64	0.587
727.82	0.598
728.01	0.603
728.19	0.601
728.37	0.606
728.56	0.612
728.74	0.619
728.92	0.606
729.11	0.608
729.29	0.607
729.48	0.610
729.66	0.598
729.84	0.598
730.03	0.602
730.21	0.604
730.40	0.594
730.58	0.593
730.76	0.593
730.95	0.597
731.13	0.596
731.31	0.611
731.50	0.621
731.68	0.625
731.86	0.622
732.05	0.636
732.23	0.638
732.42	0.643
732.60	0.648
732.78	0.653
732.97	0.670
733.15	0.678
733.33	0.665
733.52	0.672
733.70	0.686
733.88	0.693
734.07	0.677
734.25	0.704
734.43	0.713
734.62	0.716
734.80	0.709
734.98	0.699
735.17	0.708
735.35	0.715
735.53	0.702
735.72	0.704
735.90	0.730
736.08	0.749
736.27	0.727
736.45	0.738
736.63	0.748
736.82	0.761
737.00	0.761
737.18	0.772
737.37	0.804
737.55	0.831
737.73	0.824
737.92	0.825
738.10	0.827
738.28	0.847
738.46	0.834
738.65	0.852
738.83	0.876
739.01	0.939
739.20	0.924
739.38	0.908
739.56	0.901
739.75	0.907
739.93	0.868
740.11	0.894
740.29	0.896
740.48	0.902
740.66	0.880
740.84	0.873
741.03	0.835
741.21	0.849
741.39	0.829
741.57	0.842
741.76	0.862
741.94	0.872
742.12	0.831
742.31	0.839
742.49	0.863
742.67	0.887
742.85	0.901
743.04	0.904
743.22	0.919
743.40	0.982
743.58	0.953
743.77	0.974
743.95	1.016
744.13	1.086
744.31	1.054
744.50	1.052
744.68	1.057
744.86	1.025
745.04	1.040
745.23	1.118
745.41	1.095
745.59	1.108
745.77	1.061
745.96	1.042
746.14	1.051
746.32	1.052
746.50	1.032
746.69	1.011
746.87	1.031
747.05	1.018
747.23	0.928
747.42	0.914
747.60	0.949
747.78	0.952
747.96	0.985
748.14	0.933
748.33	0.969
748.51	0.965
748.69	0.957
748.87	0.990
749.06	0.984
749.24	0.982
749.42	0.959
749.60	0.936
749.78	0.950
749.97	0.900
750.15	0.894
750.33	0.895
750.51	0.929
750.69	0.935
750.88	0.938
751.06	0.952
751.24	0.984
751.42	0.979
751.60	0.963
751.79	1.049
751.97	1.107
752.15	1.099
752.33	1.054
752.51	1.133
752.69	1.154
752.88	1.112
753.06	1.164
753.24	1.133
753.42	1.177
753.60	1.428
753.78	1.208
753.97	1.237
754.15	1.268
754.33	1.306
754.51	1.130
754.69	1.112
754.87	1.149
755.06	1.056
755.24	1.057
755.42	1.060
755.60	0.940
755.78	0.953
755.96	0.888
756.15	0.889
756.33	0.893
756.51	0.914
756.69	0.895
756.87	0.862
757.05	0.885
757.23	0.863
757.42	0.831
757.60	0.832
757.78	0.819
757.96	0.817
758.14	0.796
758.32	0.783
758.50	0.797
758.69	0.795
758.87	0.783
759.05	0.787
759.23	0.801
759.41	0.804
759.59	0.797
759.77	0.824
759.95	0.859
760.13	0.915
760.32	0.909
760.50	0.901
760.68	0.929
760.86	0.929
761.04	0.898
761.22	0.900
761.40	0.952
761.58	0.950
761.76	0.913
761.95	0.888
762.13	0.842
762.31	0.844
762.49	0.810
762.67	0.829
762.85	0.846
763.03	0.844
763.21	0.824
763.39	0.801
763.57	0.807
763.75	0.803
763.94	0.788
764.12	0.789
764.30	0.819
764.48	0.826
764.66	0.785
764.84	0.786
765.02	0.829
765.20	0.836
765.38	0.816
765.56	0.817
765.74	0.860
765.92	0.863
766.10	0.872
766.28	0.860
766.46	0.893
766.65	0.895
766.83	0.877
767.01	0.856
767.19	0.865
767.37	0.862
767.55	0.851
767.73	0.832
767.91	0.835
768.09	0.818
768.27	0.804
768.45	0.793
768.63	0.801
768.81	0.801
768.99	0.771
769.17	0.798
769.35	0.817
769.53	0.815
769.71	0.793
769.89	0.800
770.07	0.810
770.25	0.792
770.43	0.769
770.61	0.795
770.79	0.804
770.97	0.817
771.15	0.779
771.33	0.780
771.51	0.784
771.69	0.794
771.87	0.804
772.05	0.810
772.24	0.821
772.42	0.829
772.60	0.806
772.78	0.870
772.96	0.900
773.14	0.900
773.32	0.878
773.49	0.884
773.67	0.885
773.85	0.861
774.03	0.845
774.21	0.880
774.39	0.895
774.57	0.916
774.75	0.836
774.93	0.831
775.11	0.855
775.29	0.859
775.47	0.859
775.65	0.868
775.83	0.885
776.01	0.909
776.19	0.856
776.37	0.858
776.55	0.860
776.73	0.856
776.91	0.849
777.09	0.833
777.27	0.835
777.45	0.825
777.63	0.800
777.81	0.797
777.99	0.786
778.17	0.783
778.35	0.756
778.53	0.745
778.71	0.748
778.89	0.734
779.07	0.720
779.24	0.727
779.42	0.727
779.60	0.749
779.78	0.744
779.96	0.749
780.14	0.760
780.32	0.783
780.50	0.763
780.68	0.764
780.86	0.759
781.04	0.777
781.22	0.776
781.40	0.789
781.58	0.779
781.75	0.771
781.93	0.752
782.11	0.753
782.29	0.739
782.47	0.739
782.65	0.725
782.83	0.758
783.01	0.753
783.19	0.746
783.37	0.729
783.55	0.734
783.72	0.756
783.90	0.769
784.08	0.759
784.26	0.771
784.44	0.792
784.62	0.798
784.80	0.758
784.98	0.763
785.16	0.771
785.33	0.786
785.51	0.769
785.69	0.753
785.87	0.752
786.05	0.762
786.23	0.758
786.41	0.756
786.59	0.762
786.77	0.761
786.94	0.747
787.12	0.750
787.30	0.753
787.48	0.749
787.66	0.734
787.84	0.734
788.02	0.727
788.19	0.725
788.37	0.709
788.55	0.708
788.73	0.709
788.91	0.701
789.09	0.683
789.27	0.672
789.44	0.683
789.62	0.690
789.80	0.698
789.98	0.725
790.16	0.710
790.34	0.707
790.51	0.694
790.69	0.714
790.87	0.724
791.05	0.722
791.23	0.714
791.41	0.714
791.58	0.724
791.76	0.703
791.94	0.669
792.12	0.680
792.30	0.683
792.48	0.681
792.65	0.674
792.83	0.679
793.01	0.688
793.19	0.686
793.37	0.673
793.54	0.666
793.72	0.679
793.90	0.677
794.08	0.666
794.26	0.667
794.43	0.678
794.61	0.661
794.79	0.650
794.97	0.647
795.15	0.653
795.32	0.657
795.50	0.646
795.68	0.639
795.86	0.643
796.04	0.643
796.21	0.637
796.39	0.635
796.57	0.651
796.75	0.659
796.92	0.660
797.10	0.664
797.28	0.667
797.46	0.672
797.64	0.674
797.81	0.683
797.99	0.688
798.17	0.691
798.35	0.685
798.52	0.686
798.70	0.683
798.88	0.690
799.06	0.690
799.23	0.694
799.41	0.703
799.59	0.696
799.77	0.685
799.94	0.694
800.12	0.705
800.30	0.722
800.48	0.722
800.65	0.723
800.83	0.715
801.01	0.706
801.19	0.702
801.36	0.699
801.54	0.701
801.72	0.710
801.90	0.694
802.07	0.686
802.25	0.672
802.43	0.657
802.60	0.652
802.78	0.660
802.96	0.666
803.14	0.659
803.31	0.656
803.49	0.656
803.67	0.653
803.84	0.658
804.02	0.653
804.20	0.655
804.38	0.660
804.55	0.658
804.73	0.642
804.91	0.641
805.08	0.654
805.26	0.648
805.44	0.716
805.61	0.719
805.79	0.720
805.97	0.720
806.15	0.712
806.32	0.707
806.50	0.714
806.68	0.714
806.85	0.704
807.03	0.696
807.21	0.716
807.38	0.645
807.56	0.635
807.74	0.645
807.91	0.651
808.09	0.652
808.27	0.671
808.44	0.701
808.62	0.712
808.80	0.715
808.97	0.709
809.15	0.703
809.33	0.722
809.50	0.728
809.68	0.713
809.86	0.719
810.03	0.755
810.21	0.733
810.39	0.711
810.56	0.716
810.74	0.743
810.91	0.823
811.09	0.810
811.27	0.831
811.44	0.839
811.62	0.841
811.80	0.822
811.97	0.789
812.15	0.789
812.33	0.785
812.50	0.770
812.68	0.756
812.85	0.695
813.03	0.699
813.21	0.666
813.38	0.659
813.56	0.663
813.74	0.676
813.91	0.680
814.09	0.713
814.26	0.706
814.44	0.708
814.62	0.698
814.79	0.703
814.97	0.707
815.14	0.713
815.32	0.716
815.50	0.733
815.67	0.733
815.85	0.725
816.02	0.714
816.20	0.722
816.38	0.737
816.55	0.743
816.73	0.742
816.90	0.754
817.08	0.787
817.26	0.794
817.43	0.773
817.61	0.804
817.78	0.827
817.96	0.803
818.13	0.790
818.31	0.792
818.49	0.807
818.66	0.796
818.84	0.781
819.01	0.755
819.19	0.763
819.36	0.761
819.54	0.728
819.71	0.773
819.89	0.790
820.07	0.803
820.24	0.796
820.42	0.795
820.59	0.819
820.77	0.841
820.94	0.831
821.12	0.851
821.29	0.873
821.47	0.873
821.64	0.802
821.82	0.816
822.00	0.816
822.17	0.813
822.35	0.807
822.52	0.809
822.70	0.801
822.87	0.817
823.05	0.794
823.22	0.805
823.40	0.838
823.57	0.865
823.75	0.846
823.92	0.877
824.10	0.902
824.27	0.949
824.45	0.938
824.62	1.014
824.80	1.035
824.97	1.049
825.15	1.041
825.32	1.061
825.50	1.069
825.67	1.076
825.85	1.043
826.02	1.071
826.20	1.106
826.37	1.279
826.55	1.165
826.72	1.496
826.90	1.718
827.07	1.866
827.25	1.670
827.42	2.437
827.60	-0.000
827.77	-0.000
827.95	-0.000
828.12	-0.000
828.30	-0.000
828.47	-0.000
828.65	1.694
828.82	1.855
829.00	2.460
829.17	-0.000
829.34	-0.000
829.52	-0.000
829.69	-0.000
829.87	-0.000
830.04	-0.000
830.22	-0.000
830.39	-0.000
830.57	-0.000
830.74	-0.000
830.92	-0.000
831.09	-0.000
831.26	-0.000
831.44	-0.000
831.61	-0.000
831.79	-0.000
831.96	-0.000
832.14	-0.000
832.31	-0.000
832.49	-0.000
832.66	-0.000
832.83	-0.000
833.01	-0.000
833.18	-0.000
833.36	-0.000
833.53	-0.000
833.70	-0.000
833.88	-0.000
834.05	-0.000
834.23	-0.000
834.40	-0.000
834.58	-0.000
834.75	-0.000
834.92	-0.000
835.10	-0.000
835.27	-0.000
835.45	-0.000
835.62	-0.000
835.79	-0.000
835.97	-0.000
836.14	-0.000
836.32	-0.000
836.49	-0.000
836.66	-0.000
836.84	-0.000
837.01	-0.000
837.18	-0.000
837.36	-0.000
837.53	-0.000
837.71	-0.000
837.88	-0.000
838.05	-0.000
838.23	-0.000
838.40	-0.000
838.58	-0.000
838.75	-0.000
838.92	-0.000
839.10	-0.000
839.27	-0.000
839.44	-0.000
839.62	-0.000
839.79	-0.000
839.96	-0.000
840.14	-0.000
840.31	-0.000
840.48	-0.000
840.66	-0.000
840.83	-0.000
841.01	-0.000
841.18	-0.000
841.35	-0.000
841.53	-0.000
841.70	-0.000
841.87	-0.000
842.05	-0.000
842.22	-0.000
842.39	-0.000
842.57	-0.000
842.74	-0.000
842.91	-0.000
843.09	-0.000
843.26	-0.000
843.43	-0.000
843.60	-0.000
843.78	-0.000
843.95	-0.000
844.12	-0.000
844.30	-0.000
844.47	-0.000
844.64	-0.000
844.82	-0.000
844.99	-0.000
845.16	-0.000
845.34	-0.000
845.51	-0.000
845.68	-0.000
845.85	-0.000
846.03	-0.000
846.20	-0.000
846.37	-0.000
846.55	-0.000
846.72	-0.000
846.89	-0.000
847.06	-0.000
847.24	-0.000
847.41	-0.000
847.58	-0.000
847.76	-0.000
847.93	-0.000
848.10	-0.000
848.27	-0.000
848.45	-0.000
848.62	-0.000
848.79	-0.000
848.97	-0.000
849.14	-0.000
849.31	-0.000
849.48	-0.000
849.66	-0.000
849.83	-0.000
850.00	-0.000
850.17	-0.000
850.35	-0.000
850.52	-0.000
850.69	-0.000
850.86	-0.000
851.04	-0.000
851.21	-0.000
851.38	-0.000
851.55	-0.000
851.72	-0.000
851.90	-0.000
852.07	-0.000
852.24	-0.000
852.41	-0.000
852.59	-0.000
852.76	-0.000
852.93	-0.000
853.10	-0.000
853.28	-0.000
853.45	-0.000
853.62	-0.000
853.79	-0.000
853.96	-0.000
854.14	-0.000
854.31	-0.000
854.48	-0.000
854.65	-0.000
854.82	-0.000
855.00	-0.000
855.17	-0.000
855.34	-0.000
855.51	-0.000
855.68	-0.000
855.86	-0.000
856.03	-0.000
856.20	-0.000
856.37	-0.000
856.54	-0.000
856.72	-0.000
856.89	-0.000
857.06	-0.000
857.23	-0.000
857.40	-0.000
857.57	-0.000
857.75	-0.000
857.92	-0.000
858.09	-0.000
858.26	-0.000
858.43	-0.000
858.60	-0.000
858.78	-0.000
858.95	-0.000
859.12	-0.000
859.29	-0.000
859.46	-0.000
859.63	-0.000
859.81	-0.000
859.98	-0.000
860.15	-0.000
860.32	-0.000
860.49	-0.000
860.66	-0.000
860.83	-0.000
861.01	-0.000
861.18	-0.000
861.35	-0.000
861.52	-0.000
861.69	-0.000
861.86	-0.000
862.03	-0.000
862.21	-0.000
862.38	-0.000
862.55	-0.000
862.72	-0.000
862.89	-0.000
863.06	-0.000
863.23	-0.000
863.40	-0.000
863.58	-0.000
863.75	-0.000
863.92	-0.000
864.09	-0.000
864.26	-0.000
864.43	-0.000
864.60	-0.000
864.77	-0.000
864.94	-0.000
865.11	-0.000
865.29	-0.000
865.46	-0.000
865.63	-0.000
865.80	-0.000
865.97	-0.000
866.14	-0.000
866.31	-0.000
866.48	-0.000
866.65	-0.000
866.82	-0.000
866.99	-0.000
867.16	-0.000
867.34	-0.000
867.51	-0.000
867.68	-0.000
867.85	-0.000
868.02	-0.000
868.19	-0.000
868.36	-0.000
868.53	-0.000
868.70	-0.000
868.87	-0.000
869.04	-0.000
869.21	-0.000
869.38	-0.000
869.55	-0.000
869.72	-0.000
869.89	-0.000
870.06	-0.000
870.24	-0.000
870.41	-0.000
870.58	-0.000
870.75	-0.000
870.92	-0.000
871.09	-0.000
871.26	-0.000
871.43	-0.000
871.60	-0.000
871.77	-0.000
871.94	-0.000
872.11	-0.000
872.28	-0.000
872.45	-0.000
872.62	-0.000
872.79	-0.000
872.96	-0.000
873.13	-0.000
873.30	-0.000
873.47	-0.000
873.64	-0.000
873.81	-0.000
873.98	-0.000
874.15	-0.000
874.32	-0.000
874.49	-0.000
874.66	-0.000
874.83	-0.000
875.00	-0.000
875.17	-0.000
875.34	-0.000
875.51	-0.000
875.68	-0.000
875.85	-0.000
876.02	-0.000
876.19	-0.000
876.36	-0.000
876.53	-0.000
876.70	-0.000
876.87	-0.000
877.04	-0.000
877.21	-0.000
877.38	-0.000
877.55	-0.000
877.72	-0.000
877.89	-0.000
878.06	-0.000
878.23	-0.000
878.39	-0.000
878.56	-0.000
878.73	-0.000
878.90	-0.000
879.07	-0.000
879.24	-0.000
879.41	-0.000
879.58	-0.000
879.75	-0.000
879.92	-0.000
880.09	-0.000
880.26	-0.000
880.43	-0.000
880.60	-0.000
880.77	-0.000
880.94	-0.000
881.11	-0.000
881.27	-0.000
881.44	-0.000
881.61	-0.000
881.78	-0.000
881.95	-0.000
882.12	-0.000
882.29	-0.000
882.46	-0.000
882.63	-0.000
882.80	-0.000
882.97	-0.000
883.14	-0.000
883.30	-0.000
883.47	-0.000
883.64	-0.000
883.81	-0.000
883.98	-0.000
884.15	-0.000
884.32	-0.000
884.49	-0.000
884.66	-0.000
884.82	-0.000
884.99	-0.000
885.16	-0.000
885.33	-0.000
885.50	-0.000
885.67	-0.000
885.84	-0.000
886.01	-0.000
886.17	-0.000
886.34	-0.000
886.51	-0.000
886.68	-0.000
886.85	-0.000
887.02	-0.000
887.19	-0.000
887.36	-0.000
887.52	-0.000
887.69	-0.000
887.86	-0.000
888.03	-0.000
888.20	-0.000
888.37	-0.000
888.54	-0.000
888.70	-0.000
888.87	-0.000
889.04	-0.000
889.21	-0.000
889.38	-0.000
889.55	-0.000
889.71	-0.000
889.88	-0.000
890.05	-0.000
890.22	-0.000
890.39	-0.000
>>>>>End Processed Spectral Data<<<<<
