SpectraSuite Data File
++++++++++++++++++++++++++++++++++++
Date: Fri Jun 19 16:55:15 CEST 2015
User: introlabs
Dark Spectrum Present: Yes
Reference Spectrum Present: Yes
Number of Sampled Component Spectra: 1
Spectrometers: USB4H08886
Integration Time (usec): 745692 (USB4H08886)
Spectra Averaged: 5 (USB4H08886)
Boxcar Smoothing: 5 (USB4H08886)
Correct for Electrical Dark: Yes (USB4H08886)
Strobe/Lamp Enabled: No (USB4H08886)
Correct for Detector Non-linearity: Yes (USB4H08886)
Correct for Stray Light: Yes (USB4H08886)
Number of Pixels in Processed Spectrum: 3648
>>>>>Begin Processed Spectral Data<<<<<
178.14	-0.000
178.36	-0.000
178.57	-0.000
178.79	-0.000
179.01	-0.000
179.22	-0.000
179.44	-0.000
179.65	-0.000
179.87	-0.000
180.08	-0.000
180.30	-0.000
180.52	-0.000
180.73	-0.000
180.95	-0.000
181.16	-0.000
181.38	-0.000
181.59	-0.000
181.81	-0.000
182.03	-0.000
182.24	-0.000
182.46	-0.000
182.67	-0.000
182.89	-0.000
183.10	-0.000
183.32	-0.000
183.54	-0.000
183.75	-0.000
183.97	-0.000
184.18	-0.000
184.40	-0.000
184.61	-0.000
184.83	-0.000
185.04	-0.000
185.26	-0.000
185.48	-0.000
185.69	-0.000
185.91	-0.000
186.12	-0.000
186.34	-0.000
186.55	-0.000
186.77	-0.000
186.98	-0.000
187.20	-0.000
187.42	-0.000
187.63	-0.000
187.85	-0.000
188.06	-0.000
188.28	-0.000
188.49	-0.000
188.71	-0.000
188.92	-0.000
189.14	-0.000
189.36	-0.000
189.57	-0.000
189.79	-0.000
190.00	-0.000
190.22	-0.000
190.43	-0.000
190.65	-0.000
190.86	-0.000
191.08	-0.000
191.29	-0.000
191.51	-0.000
191.72	-0.000
191.94	-0.000
192.16	-0.000
192.37	-0.000
192.59	-0.000
192.80	-0.000
193.02	-0.000
193.23	-0.000
193.45	-0.000
193.66	-0.000
193.88	-0.000
194.09	-0.000
194.31	-0.000
194.52	-0.000
194.74	-0.000
194.95	-0.000
195.17	-0.000
195.38	-0.000
195.60	-0.000
195.81	-0.000
196.03	-0.000
196.25	-0.000
196.46	-0.000
196.68	-0.000
196.89	-0.000
197.11	-0.000
197.32	-0.000
197.54	-0.000
197.75	-0.000
197.97	-0.000
198.18	-0.000
198.40	-0.000
198.61	-0.000
198.83	-0.000
199.04	-0.000
199.26	-0.000
199.47	-0.000
199.69	-0.000
199.90	-0.000
200.12	-0.000
200.33	-0.000
200.55	-0.000
200.76	-0.000
200.98	-0.000
201.19	-0.000
201.41	-0.000
201.62	-0.000
201.84	-0.000
202.05	-0.000
202.27	-0.000
202.48	-0.000
202.70	-0.000
202.91	-0.000
203.13	-0.000
203.34	-0.000
203.56	-0.000
203.77	-0.000
203.99	-0.000
204.20	-0.000
204.42	-0.000
204.63	-0.000
204.85	-0.000
205.06	-0.000
205.28	-0.000
205.49	-0.000
205.71	-0.000
205.92	-0.000
206.14	-0.000
206.35	-0.000
206.56	-0.000
206.78	-0.000
206.99	-0.000
207.21	-0.000
207.42	-0.000
207.64	-0.000
207.85	-0.000
208.07	-0.000
208.28	-0.000
208.50	-0.000
208.71	-0.000
208.93	-0.000
209.14	-0.000
209.36	-0.000
209.57	-0.000
209.79	-0.000
210.00	-0.000
210.22	-0.000
210.43	-0.000
210.64	-0.000
210.86	-0.000
211.07	-0.000
211.29	-0.000
211.50	-0.000
211.72	-0.000
211.93	-0.000
212.15	-0.000
212.36	-0.000
212.58	-0.000
212.79	-0.000
213.01	-0.000
213.22	-0.000
213.43	-0.000
213.65	-0.000
213.86	-0.000
214.08	-0.000
214.29	-0.000
214.51	-0.000
214.72	-0.000
214.94	-0.000
215.15	-0.000
215.36	-0.000
215.58	-0.000
215.79	-0.000
216.01	-0.000
216.22	-0.000
216.44	-0.000
216.65	-0.000
216.87	-0.000
217.08	-0.000
217.29	-0.000
217.51	-0.000
217.72	-0.000
217.94	-0.000
218.15	-0.000
218.37	-0.000
218.58	-0.000
218.80	-0.000
219.01	-0.000
219.22	-0.000
219.44	-0.000
219.65	-0.000
219.87	-0.000
220.08	-0.000
220.30	-0.000
220.51	-0.000
220.72	-0.000
220.94	-0.000
221.15	-0.000
221.37	-0.000
221.58	-0.000
221.79	-0.000
222.01	-0.000
222.22	-0.000
222.44	-0.000
222.65	-0.000
222.87	-0.000
223.08	-0.000
223.29	-0.000
223.51	-0.000
223.72	-0.000
223.94	-0.000
224.15	-0.000
224.36	-0.000
224.58	-0.000
224.79	-0.000
225.01	-0.000
225.22	-0.000
225.44	-0.000
225.65	-0.000
225.86	-0.000
226.08	-0.000
226.29	-0.000
226.51	-0.000
226.72	-0.000
226.93	-0.000
227.15	-0.000
227.36	-0.000
227.58	-0.000
227.79	-0.000
228.00	-0.000
228.22	-0.000
228.43	-0.000
228.65	-0.000
228.86	-0.000
229.07	-0.000
229.29	-0.000
229.50	-0.000
229.72	-0.000
229.93	-0.000
230.14	-0.000
230.36	-0.000
230.57	-0.000
230.78	-0.000
231.00	-0.000
231.21	-0.000
231.43	-0.000
231.64	-0.000
231.85	-0.000
232.07	-0.000
232.28	-0.000
232.50	-0.000
232.71	-0.000
232.92	-0.000
233.14	-0.000
233.35	-0.000
233.56	-0.000
233.78	-0.000
233.99	-0.000
234.21	-0.000
234.42	-0.000
234.63	-0.000
234.85	-0.000
235.06	-0.000
235.27	-0.000
235.49	-0.000
235.70	-0.000
235.91	-0.000
236.13	-0.000
236.34	-0.000
236.56	-0.000
236.77	-0.000
236.98	-0.000
237.20	-0.000
237.41	-0.000
237.62	-0.000
237.84	-0.000
238.05	-0.000
238.26	-0.000
238.48	-0.000
238.69	-0.000
238.91	-0.000
239.12	-0.000
239.33	-0.000
239.55	-0.000
239.76	-0.000
239.97	-0.000
240.19	-0.000
240.40	-0.000
240.61	-0.000
240.83	-0.000
241.04	-0.000
241.25	-0.000
241.47	-0.000
241.68	-0.000
241.89	-0.000
242.11	-0.000
242.32	-0.000
242.53	-0.000
242.75	-0.000
242.96	-0.000
243.17	-0.000
243.39	-0.000
243.60	-0.000
243.81	-0.000
244.03	-0.000
244.24	-0.000
244.45	-0.000
244.67	-0.000
244.88	-0.000
245.09	-0.000
245.31	-0.000
245.52	-0.000
245.73	-0.000
245.95	-0.000
246.16	-0.000
246.37	-0.000
246.59	-0.000
246.80	-0.000
247.01	-0.000
247.23	-0.000
247.44	-0.000
247.65	-0.000
247.87	-0.000
248.08	-0.000
248.29	-0.000
248.51	-0.000
248.72	-0.000
248.93	-0.000
249.15	-0.000
249.36	-0.000
249.57	-0.000
249.78	-0.000
250.00	-0.000
250.21	-0.000
250.42	-0.000
250.64	-0.000
250.85	-0.000
251.06	-0.000
251.28	-0.000
251.49	-0.000
251.70	-0.000
251.92	-0.000
252.13	-0.000
252.34	-0.000
252.55	-0.000
252.77	-0.000
252.98	-0.000
253.19	-0.000
253.41	-0.000
253.62	-0.000
253.83	-0.000
254.05	-0.000
254.26	-0.000
254.47	-0.000
254.68	-0.000
254.90	-0.000
255.11	-0.000
255.32	-0.000
255.54	-0.000
255.75	-0.000
255.96	-0.000
256.17	-0.000
256.39	-0.000
256.60	-0.000
256.81	-0.000
257.03	-0.000
257.24	-0.000
257.45	-0.000
257.66	-0.000
257.88	-0.000
258.09	-0.000
258.30	-0.000
258.51	-0.000
258.73	-0.000
258.94	-0.000
259.15	-0.000
259.37	-0.000
259.58	-0.000
259.79	-0.000
260.00	-0.000
260.22	-0.000
260.43	-0.000
260.64	-0.000
260.85	-0.000
261.07	-0.000
261.28	-0.000
261.49	-0.000
261.71	-0.000
261.92	-0.000
262.13	-0.000
262.34	-0.000
262.56	-0.000
262.77	-0.000
262.98	-0.000
263.19	-0.000
263.41	-0.000
263.62	-0.000
263.83	-0.000
264.04	-0.000
264.26	-0.000
264.47	-0.000
264.68	-0.000
264.89	-0.000
265.11	-0.000
265.32	-0.000
265.53	-0.000
265.74	-0.000
265.96	-0.000
266.17	-0.000
266.38	-0.000
266.59	-0.000
266.81	-0.000
267.02	-0.000
267.23	-0.000
267.44	-0.000
267.65	-0.000
267.87	-0.000
268.08	-0.000
268.29	-0.000
268.50	-0.000
268.72	-0.000
268.93	-0.000
269.14	-0.000
269.35	-0.000
269.57	-0.000
269.78	-0.000
269.99	-0.000
270.20	-0.000
270.41	-0.000
270.63	-0.000
270.84	-0.000
271.05	-0.000
271.26	-0.000
271.48	-0.000
271.69	-0.000
271.90	-0.000
272.11	-0.000
272.32	-0.000
272.54	-0.000
272.75	-0.000
272.96	-0.000
273.17	-0.000
273.39	-0.000
273.60	-0.000
273.81	-0.000
274.02	-0.000
274.23	-0.000
274.45	-0.000
274.66	-0.000
274.87	-0.000
275.08	-0.000
275.29	-0.000
275.51	-0.000
275.72	-0.000
275.93	-0.000
276.14	-0.000
276.35	-0.000
276.57	-0.000
276.78	-0.000
276.99	-0.000
277.20	-0.000
277.41	-0.000
277.63	-0.000
277.84	-0.000
278.05	-0.000
278.26	-0.000
278.47	-0.000
278.69	-0.000
278.90	-0.000
279.11	-0.000
279.32	-0.000
279.53	-0.000
279.74	-0.000
279.96	-0.000
280.17	-0.000
280.38	-0.000
280.59	-0.000
280.80	-0.000
281.02	-0.000
281.23	-0.000
281.44	-0.000
281.65	-0.000
281.86	-0.000
282.07	-0.000
282.29	-0.000
282.50	-0.000
282.71	-0.000
282.92	-0.000
283.13	-0.000
283.35	-0.000
283.56	-0.000
283.77	-0.000
283.98	-0.000
284.19	-0.000
284.40	-0.000
284.62	-0.000
284.83	-0.000
285.04	-0.000
285.25	-0.000
285.46	-0.000
285.67	-0.000
285.88	-0.000
286.10	-0.000
286.31	-0.000
286.52	-0.000
286.73	-0.000
286.94	-0.000
287.15	-0.000
287.37	-0.000
287.58	-0.000
287.79	-0.000
288.00	-0.000
288.21	-0.000
288.42	-0.000
288.63	-0.000
288.85	-0.000
289.06	-0.000
289.27	-0.000
289.48	-0.000
289.69	-0.000
289.90	-0.000
290.11	-0.000
290.33	-0.000
290.54	-0.000
290.75	-0.000
290.96	-0.000
291.17	-0.000
291.38	-0.000
291.59	-0.000
291.81	-0.000
292.02	-0.000
292.23	-0.000
292.44	-0.000
292.65	-0.000
292.86	-0.000
293.07	-0.000
293.28	-0.000
293.50	-0.000
293.71	-0.000
293.92	-0.000
294.13	-0.000
294.34	-0.000
294.55	-0.000
294.76	-0.000
294.97	-0.000
295.19	-0.000
295.40	-0.000
295.61	-0.000
295.82	-0.000
296.03	-0.000
296.24	-0.000
296.45	-0.000
296.66	-0.000
296.87	-0.000
297.09	-0.000
297.30	-0.000
297.51	-0.000
297.72	-0.000
297.93	-0.000
298.14	-0.000
298.35	-0.000
298.56	-0.000
298.77	-0.000
298.99	-0.000
299.20	-0.000
299.41	-0.000
299.62	-0.000
299.83	-0.000
300.04	-0.000
300.25	-0.000
300.46	-0.000
300.67	-0.000
300.88	-0.000
301.10	-0.000
301.31	-0.000
301.52	-0.000
301.73	-0.000
301.94	-0.000
302.15	-0.000
302.36	-0.000
302.57	-0.000
302.78	-0.000
302.99	-0.000
303.20	-0.000
303.41	-0.000
303.63	-0.000
303.84	-0.000
304.05	-0.000
304.26	-0.000
304.47	-0.000
304.68	-0.000
304.89	-0.000
305.10	-0.000
305.31	-0.000
305.52	-0.000
305.73	-0.000
305.94	-0.000
306.15	-0.000
306.37	-0.000
306.58	-0.000
306.79	-0.000
307.00	-0.000
307.21	-0.000
307.42	-0.000
307.63	-0.000
307.84	-0.000
308.05	-0.000
308.26	-0.000
308.47	-0.000
308.68	-0.000
308.89	-0.000
309.10	-0.000
309.31	-0.000
309.52	-0.000
309.73	-0.000
309.95	-0.000
310.16	-0.000
310.37	-0.000
310.58	-0.000
310.79	-0.000
311.00	-0.000
311.21	-0.000
311.42	-0.000
311.63	-0.000
311.84	-0.000
312.05	-0.000
312.26	-0.000
312.47	-0.000
312.68	-0.000
312.89	-0.000
313.10	-0.000
313.31	-0.000
313.52	-0.000
313.73	-0.000
313.94	-0.000
314.15	-0.000
314.36	-0.000
314.57	-0.000
314.78	-0.000
314.99	-0.000
315.21	-0.000
315.42	-0.000
315.63	-0.000
315.84	-0.000
316.05	-0.000
316.26	-0.000
316.47	-0.000
316.68	-0.000
316.89	-0.000
317.10	-0.000
317.31	-0.000
317.52	-0.000
317.73	-0.000
317.94	-0.000
318.15	-0.000
318.36	-0.000
318.57	-0.000
318.78	-0.000
318.99	-0.000
319.20	-0.000
319.41	-0.000
319.62	-0.000
319.83	-0.000
320.04	-0.000
320.25	-0.000
320.46	-0.000
320.67	-0.000
320.88	-0.000
321.09	-0.000
321.30	-0.000
321.51	-0.000
321.72	-0.000
321.93	-0.000
322.14	-0.000
322.35	-0.000
322.56	-0.000
322.77	-0.000
322.98	-0.000
323.19	-0.000
323.40	-0.000
323.61	-0.000
323.82	-0.000
324.03	-0.000
324.24	-0.000
324.45	-0.000
324.66	-0.000
324.87	-0.000
325.08	-0.000
325.29	2.936
325.50	2.588
325.71	2.696
325.92	3.628
326.13	2.638
326.34	2.685
326.55	2.864
326.76	2.877
326.97	2.576
327.18	2.490
327.39	-0.000
327.60	-0.000
327.80	-0.000
328.01	-0.000
328.22	-0.000
328.43	-0.000
328.64	-0.000
328.85	-0.000
329.06	-0.000
329.27	-0.000
329.48	-0.000
329.69	2.556
329.90	3.222
330.11	2.837
330.32	2.633
330.53	2.458
330.74	2.400
330.95	2.364
331.16	2.150
331.37	2.315
331.58	2.277
331.79	2.320
332.00	2.221
332.21	2.117
332.42	2.122
332.63	2.030
332.83	2.032
333.04	2.079
333.25	2.223
333.46	2.226
333.67	2.047
333.88	2.081
334.09	2.213
334.30	2.169
334.51	2.092
334.72	2.056
334.93	2.067
335.14	2.049
335.35	1.996
335.56	1.966
335.77	2.024
335.98	2.031
336.18	1.990
336.39	1.909
336.60	1.928
336.81	1.919
337.02	1.923
337.23	1.986
337.44	2.000
337.65	2.031
337.86	1.945
338.07	1.904
338.28	1.926
338.49	1.934
338.70	1.910
338.91	1.986
339.11	2.060
339.32	2.034
339.53	1.952
339.74	1.946
339.95	1.890
340.16	1.894
340.37	1.861
340.58	1.862
340.79	1.867
341.00	1.861
341.21	1.802
341.41	1.804
341.62	1.809
341.83	1.809
342.04	1.788
342.25	1.899
342.46	1.923
342.67	1.925
342.88	1.882
343.09	1.890
343.30	1.951
343.50	2.006
343.71	1.927
343.92	1.923
344.13	1.965
344.34	1.962
344.55	1.823
344.76	1.827
344.97	1.859
345.18	1.863
345.38	1.858
345.59	1.836
345.80	1.817
346.01	1.811
346.22	1.804
346.43	1.760
346.64	1.816
346.85	1.823
347.06	1.785
347.26	1.776
347.47	1.795
347.68	1.772
347.89	1.747
348.10	1.716
348.31	1.757
348.52	1.752
348.73	1.748
348.93	1.739
349.14	1.747
349.35	1.745
349.56	1.729
349.77	1.705
349.98	1.739
350.19	1.729
350.39	1.711
350.60	1.693
350.81	1.805
351.02	1.803
351.23	1.776
351.44	1.796
351.65	1.819
351.86	1.806
352.06	1.800
352.27	1.805
352.48	1.811
352.69	1.813
352.90	1.779
353.11	1.681
353.31	1.737
353.52	1.721
353.73	1.682
353.94	1.694
354.15	1.723
354.36	1.730
354.57	1.680
354.77	1.698
354.98	1.699
355.19	1.702
355.40	1.704
355.61	1.747
355.82	1.762
356.02	1.767
356.23	1.724
356.44	1.734
356.65	1.751
356.86	1.755
357.07	1.724
357.27	1.733
357.48	1.743
357.69	1.718
357.90	1.619
358.11	1.608
358.32	1.622
358.52	1.641
358.73	1.595
358.94	1.611
359.15	1.639
359.36	1.640
359.56	1.625
359.77	1.614
359.98	1.657
360.19	1.662
360.40	1.649
360.61	1.662
360.81	1.651
361.02	1.659
361.23	1.616
361.44	1.603
361.65	1.604
361.85	1.603
362.06	1.600
362.27	1.612
362.48	1.614
362.69	1.627
362.89	1.602
363.10	1.612
363.31	1.637
363.52	1.657
363.73	1.636
363.93	1.635
364.14	1.640
364.35	1.643
364.56	1.595
364.77	1.593
364.97	1.597
365.18	1.593
365.39	1.577
365.60	1.559
365.81	1.564
366.01	1.562
366.22	1.554
366.43	1.555
366.64	1.561
366.84	1.592
367.05	1.587
367.26	1.586
367.47	1.596
367.68	1.592
367.88	1.588
368.09	1.575
368.30	1.585
368.51	1.588
368.71	1.586
368.92	1.616
369.13	1.604
369.34	1.605
369.55	1.609
369.75	1.610
369.96	1.645
370.17	1.648
370.38	1.640
370.58	1.641
370.79	1.664
371.00	1.657
371.21	1.609
371.41	1.642
371.62	1.656
371.83	1.634
372.04	1.623
372.24	1.588
372.45	1.584
372.66	1.583
372.87	1.576
373.07	1.564
373.28	1.570
373.49	1.591
373.70	1.540
373.90	1.538
374.11	1.585
374.32	1.584
374.53	1.584
374.73	1.595
374.94	1.600
375.15	1.598
375.36	1.587
375.56	1.641
375.77	1.632
375.98	1.630
376.19	1.618
376.39	1.581
376.60	1.597
376.81	1.597
377.02	1.591
377.22	1.593
377.43	1.588
377.64	1.589
377.84	1.541
378.05	1.568
378.26	1.605
378.47	1.607
378.67	1.593
378.88	1.582
379.09	1.583
379.30	1.578
379.50	1.568
379.71	1.579
379.92	1.589
380.12	1.585
380.33	1.549
380.54	1.529
380.75	1.560
380.95	1.558
381.16	1.556
381.37	1.557
381.57	1.565
381.78	1.569
381.99	1.574
382.20	1.573
382.40	1.594
382.61	1.593
382.82	1.580
383.02	1.548
383.23	1.565
383.44	1.562
383.64	1.559
383.85	1.572
384.06	1.587
384.27	1.575
384.47	1.568
384.68	1.565
384.89	1.595
385.09	1.594
385.30	1.589
385.51	1.580
385.71	1.595
385.92	1.596
386.13	1.590
386.33	1.610
386.54	1.614
386.75	1.608
386.95	1.593
387.16	1.568
387.37	1.578
387.58	1.580
387.78	1.573
387.99	1.563
388.20	1.569
388.40	1.554
388.61	1.526
388.82	1.544
389.02	1.551
389.23	1.550
389.44	1.545
389.64	1.549
389.85	1.614
390.06	1.610
390.26	1.615
390.47	1.610
390.68	1.617
390.88	1.613
391.09	1.586
391.30	1.587
391.50	1.583
391.71	1.579
391.92	1.566
392.12	1.514
392.33	1.518
392.53	1.515
392.74	1.522
392.95	1.516
393.15	1.525
393.36	1.537
393.57	1.528
393.77	1.543
393.98	1.550
394.19	1.547
394.39	1.551
394.60	1.556
394.81	1.565
395.01	1.552
395.22	1.550
395.43	1.547
395.63	1.568
395.84	1.573
396.04	1.559
396.25	1.564
396.46	1.569
396.66	1.554
396.87	1.543
397.08	1.526
397.28	1.534
397.49	1.538
397.69	1.526
397.90	1.499
398.11	1.499
398.31	1.497
398.52	1.481
398.73	1.494
398.93	1.489
399.14	1.485
399.34	1.487
399.55	1.495
399.76	1.494
399.96	1.495
400.17	1.490
400.37	1.485
400.58	1.518
400.79	1.528
400.99	1.509
401.20	1.540
401.41	1.544
401.61	1.541
401.82	1.572
402.02	1.572
402.23	1.578
402.44	1.574
402.64	1.575
402.85	1.540
403.05	1.530
403.26	1.524
403.47	1.495
403.67	1.492
403.88	1.492
404.08	1.458
404.29	1.450
404.50	1.449
404.70	1.446
404.91	1.443
405.11	1.433
405.32	1.435
405.52	1.435
405.73	1.434
405.94	1.430
406.14	1.444
406.35	1.452
406.55	1.451
406.76	1.439
406.97	1.444
407.17	1.456
407.38	1.456
407.58	1.452
407.79	1.460
407.99	1.468
408.20	1.468
408.41	1.449
408.61	1.441
408.82	1.441
409.02	1.443
409.23	1.438
409.43	1.428
409.64	1.430
409.84	1.430
410.05	1.419
410.26	1.412
410.46	1.411
410.67	1.410
410.87	1.418
411.08	1.426
411.28	1.427
411.49	1.434
411.69	1.426
411.90	1.434
412.11	1.437
412.31	1.439
412.52	1.433
412.72	1.433
412.93	1.433
413.13	1.428
413.34	1.416
413.54	1.425
413.75	1.429
413.95	1.428
414.16	1.417
414.37	1.425
414.57	1.424
414.78	1.434
414.98	1.434
415.19	1.438
415.39	1.423
415.60	1.432
415.80	1.428
416.01	1.420
416.21	1.423
416.42	1.422
416.62	1.405
416.83	1.407
417.03	1.401
417.24	1.397
417.44	1.391
417.65	1.389
417.86	1.386
418.06	1.377
418.27	1.371
418.47	1.378
418.68	1.376
418.88	1.376
419.09	1.372
419.29	1.374
419.50	1.375
419.70	1.375
419.91	1.370
420.11	1.365
420.32	1.371
420.52	1.370
420.73	1.369
420.93	1.372
421.14	1.380
421.34	1.376
421.55	1.368
421.75	1.367
421.96	1.366
422.16	1.366
422.37	1.364
422.57	1.356
422.78	1.359
422.98	1.346
423.19	1.343
423.39	1.334
423.60	1.348
423.80	1.350
424.01	1.346
424.21	1.358
424.42	1.359
424.62	1.357
424.83	1.354
425.03	1.355
425.23	1.359
425.44	1.356
425.64	1.359
425.85	1.351
426.05	1.352
426.26	1.353
426.46	1.339
426.67	1.335
426.87	1.350
427.08	1.350
427.28	1.345
427.49	1.348
427.69	1.348
427.90	1.342
428.10	1.336
428.31	1.335
428.51	1.342
428.71	1.339
428.92	1.345
429.12	1.337
429.33	1.338
429.53	1.354
429.74	1.378
429.94	1.381
430.15	1.379
430.35	1.376
430.56	1.368
430.76	1.363
430.96	1.366
431.17	1.356
431.37	1.348
431.58	1.345
431.78	1.329
431.99	1.299
432.19	1.309
432.40	1.316
432.60	1.320
432.80	1.329
433.01	1.325
433.21	1.324
433.42	1.328
433.62	1.327
433.83	1.327
434.03	1.337
434.23	1.345
434.44	1.339
434.64	1.331
434.85	1.348
435.05	1.352
435.26	1.351
435.46	1.350
435.66	1.350
435.87	1.349
436.07	1.349
436.28	1.336
436.48	1.329
436.69	1.326
436.89	1.326
437.09	1.305
437.30	1.300
437.50	1.301
437.71	1.348
437.91	1.347
438.11	1.350
438.32	1.364
438.52	1.364
438.73	1.362
438.93	1.355
439.13	1.354
439.34	1.369
439.54	1.361
439.75	1.362
439.95	1.318
440.15	1.336
440.36	1.333
440.56	1.324
440.77	1.327
440.97	1.329
441.17	1.327
441.38	1.331
441.58	1.320
441.79	1.319
441.99	1.317
442.19	1.310
442.40	1.298
442.60	1.297
442.81	1.291
443.01	1.290
443.21	1.289
443.42	1.288
443.62	1.285
443.82	1.282
444.03	1.286
444.23	1.285
444.44	1.288
444.64	1.287
444.84	1.292
445.05	1.293
445.25	1.288
445.45	1.288
445.66	1.293
445.86	1.291
446.06	1.301
446.27	1.297
446.47	1.306
446.68	1.299
446.88	1.295
447.08	1.291
447.29	1.295
447.49	1.296
447.69	1.295
447.90	1.291
448.10	1.300
448.30	1.289
448.51	1.297
448.71	1.289
448.91	1.293
449.12	1.292
449.32	1.299
449.52	1.295
449.73	1.305
449.93	1.303
450.14	1.310
450.34	1.307
450.54	1.312
450.75	1.303
450.95	1.302
451.15	1.302
451.36	1.311
451.56	1.302
451.76	1.301
451.97	1.293
452.17	1.294
452.37	1.287
452.58	1.282
452.78	1.282
452.98	1.286
453.19	1.285
453.39	1.290
453.59	1.282
453.79	1.283
454.00	1.285
454.20	1.281
454.40	1.284
454.61	1.293
454.81	1.292
455.01	1.289
455.22	1.294
455.42	1.299
455.62	1.291
455.83	1.291
456.03	1.301
456.23	1.303
456.44	1.306
456.64	1.302
456.84	1.298
457.04	1.300
457.25	1.299
457.45	1.289
457.65	1.286
457.86	1.290
458.06	1.287
458.26	1.275
458.47	1.272
458.67	1.276
458.87	1.277
459.07	1.270
459.28	1.276
459.48	1.283
459.68	1.282
459.89	1.278
460.09	1.272
460.29	1.274
460.49	1.278
460.70	1.277
460.90	1.274
461.10	1.276
461.31	1.277
461.51	1.271
461.71	1.278
461.91	1.280
462.12	1.284
462.32	1.285
462.52	1.285
462.72	1.290
462.93	1.290
463.13	1.288
463.33	1.292
463.53	1.292
463.74	1.292
463.94	1.276
464.14	1.279
464.35	1.282
464.55	1.282
464.75	1.280
464.95	1.275
465.16	1.280
465.36	1.277
465.56	1.274
465.76	1.271
465.97	1.271
466.17	1.273
466.37	1.266
466.57	1.269
466.78	1.271
466.98	1.270
467.18	1.265
467.38	1.260
467.59	1.263
467.79	1.271
467.99	1.269
468.19	1.270
468.39	1.277
468.60	1.276
468.80	1.271
469.00	1.274
469.20	1.276
469.41	1.278
469.61	1.278
469.81	1.278
470.01	1.275
470.22	1.276
470.42	1.274
470.62	1.268
470.82	1.272
471.02	1.270
471.23	1.264
471.43	1.264
471.63	1.270
471.83	1.270
472.04	1.267
472.24	1.261
472.44	1.278
472.64	1.278
472.84	1.274
473.05	1.273
473.25	1.280
473.45	1.278
473.65	1.275
473.85	1.273
474.06	1.272
474.26	1.271
474.46	1.278
474.66	1.264
474.86	1.265
475.07	1.263
475.27	1.259
475.47	1.251
475.67	1.251
475.87	1.258
476.08	1.251
476.28	1.257
476.48	1.261
476.68	1.254
476.88	1.250
477.09	1.252
477.29	1.257
477.49	1.258
477.69	1.256
477.89	1.258
478.09	1.253
478.30	1.261
478.50	1.252
478.70	1.248
478.90	1.249
479.10	1.256
479.31	1.262
479.51	1.257
479.71	1.256
479.91	1.256
480.11	1.251
480.31	1.252
480.52	1.246
480.72	1.246
480.92	1.244
481.12	1.240
481.32	1.231
481.52	1.224
481.72	1.223
481.93	1.234
482.13	1.237
482.33	1.238
482.53	1.233
482.73	1.236
482.93	1.237
483.14	1.235
483.34	1.233
483.54	1.235
483.74	1.232
483.94	1.230
484.14	1.218
484.34	1.216
484.55	1.215
484.75	1.215
484.95	1.210
485.15	1.210
485.35	1.209
485.55	1.210
485.75	1.205
485.96	1.206
486.16	1.209
486.36	1.208
486.56	1.204
486.76	1.206
486.96	1.209
487.16	1.207
487.36	1.204
487.57	1.202
487.77	1.204
487.97	1.206
488.17	1.203
488.37	1.202
488.57	1.203
488.77	1.204
488.97	1.201
489.18	1.197
489.38	1.203
489.58	1.203
489.78	1.204
489.98	1.201
490.18	1.200
490.38	1.201
490.58	1.198
490.78	1.201
490.98	1.203
491.19	1.204
491.39	1.203
491.59	1.200
491.79	1.208
491.99	1.208
492.19	1.210
492.39	1.218
492.59	1.219
492.79	1.225
492.99	1.225
493.20	1.225
493.40	1.224
493.60	1.230
493.80	1.227
494.00	1.218
494.20	1.218
494.40	1.217
494.60	1.210
494.80	1.223
495.00	1.218
495.20	1.213
495.40	1.212
495.61	1.217
495.81	1.214
496.01	1.225
496.21	1.231
496.41	1.230
496.61	1.232
496.81	1.228
497.01	1.213
497.21	1.212
497.41	1.213
497.61	1.211
497.81	1.206
498.01	1.206
498.21	1.197
498.41	1.190
498.61	1.190
498.82	1.193
499.02	1.197
499.22	1.198
499.42	1.198
499.62	1.200
499.82	1.203
500.02	1.206
500.22	1.203
500.42	1.210
500.62	1.211
500.82	1.210
501.02	1.206
501.22	1.206
501.42	1.206
501.62	1.213
501.82	1.211
502.02	1.212
502.22	1.209
502.42	1.216
502.62	1.208
502.82	1.208
503.02	1.211
503.22	1.211
503.42	1.208
503.63	1.207
503.83	1.199
504.03	1.197
504.23	1.194
504.43	1.197
504.63	1.197
504.83	1.197
505.03	1.196
505.23	1.200
505.43	1.204
505.63	1.206
505.83	1.207
506.03	1.211
506.23	1.215
506.43	1.216
506.63	1.213
506.83	1.208
507.03	1.213
507.23	1.213
507.43	1.206
507.63	1.206
507.83	1.206
508.03	1.207
508.23	1.205
508.43	1.203
508.63	1.208
508.83	1.208
509.03	1.214
509.23	1.210
509.43	1.212
509.63	1.213
509.83	1.211
510.03	1.217
510.23	1.218
510.43	1.222
510.63	1.222
510.83	1.219
511.03	1.223
511.23	1.215
511.43	1.215
511.63	1.219
511.83	1.224
512.03	1.224
512.22	1.217
512.42	1.218
512.62	1.220
512.82	1.220
513.02	1.221
513.22	1.218
513.42	1.224
513.62	1.233
513.82	1.227
514.02	1.224
514.22	1.227
514.42	1.227
514.62	1.226
514.82	1.225
515.02	1.230
515.22	1.241
515.42	1.241
515.62	1.245
515.82	1.240
516.02	1.242
516.22	1.244
516.42	1.249
516.62	1.252
516.82	1.254
517.01	1.250
517.21	1.248
517.41	1.257
517.61	1.259
517.81	1.251
518.01	1.250
518.21	1.251
518.41	1.247
518.61	1.244
518.81	1.246
519.01	1.247
519.21	1.249
519.41	1.247
519.61	1.229
519.81	1.233
520.00	1.234
520.20	1.235
520.40	1.242
520.60	1.242
520.80	1.241
521.00	1.244
521.20	1.246
521.40	1.259
521.60	1.259
521.80	1.257
522.00	1.255
522.20	1.258
522.39	1.257
522.59	1.249
522.79	1.254
522.99	1.258
523.19	1.252
523.39	1.249
523.59	1.242
523.79	1.250
523.99	1.257
524.19	1.254
524.38	1.251
524.58	1.254
524.78	1.254
524.98	1.248
525.18	1.255
525.38	1.258
525.58	1.257
525.78	1.252
525.98	1.246
526.18	1.243
526.37	1.242
526.57	1.250
526.77	1.248
526.97	1.249
527.17	1.250
527.37	1.239
527.57	1.245
527.77	1.248
527.96	1.248
528.16	1.247
528.36	1.252
528.56	1.257
528.76	1.249
528.96	1.248
529.16	1.253
529.36	1.258
529.55	1.260
529.75	1.251
529.95	1.252
530.15	1.253
530.35	1.262
530.55	1.253
530.75	1.254
530.94	1.256
531.14	1.257
531.34	1.252
531.54	1.248
531.74	1.254
531.94	1.265
532.13	1.262
532.33	1.268
532.53	1.262
532.73	1.264
532.93	1.257
533.13	1.259
533.33	1.259
533.52	1.260
533.72	1.272
533.92	1.267
534.12	1.259
534.32	1.259
534.52	1.252
534.71	1.255
534.91	1.259
535.11	1.265
535.31	1.261
535.51	1.265
535.71	1.268
535.90	1.257
536.10	1.261
536.30	1.267
536.50	1.269
536.70	1.273
536.89	1.268
537.09	1.267
537.29	1.270
537.49	1.272
537.69	1.266
537.89	1.269
538.08	1.267
538.28	1.261
538.48	1.262
538.68	1.265
538.88	1.268
539.07	1.268
539.27	1.262
539.47	1.260
539.67	1.261
539.87	1.265
540.06	1.259
540.26	1.260
540.46	1.265
540.66	1.257
540.86	1.252
541.05	1.251
541.25	1.256
541.45	1.260
541.65	1.255
541.84	1.259
542.04	1.259
542.24	1.259
542.44	1.256
542.64	1.260
542.83	1.267
543.03	1.269
543.23	1.264
543.43	1.265
543.62	1.266
543.82	1.266
544.02	1.262
544.22	1.262
544.42	1.270
544.61	1.272
544.81	1.265
545.01	1.260
545.21	1.263
545.40	1.262
545.60	1.258
545.80	1.267
546.00	1.268
546.19	1.265
546.39	1.264
546.59	1.258
546.79	1.263
546.98	1.264
547.18	1.265
547.38	1.267
547.58	1.274
547.77	1.275
547.97	1.262
548.17	1.265
548.37	1.265
548.56	1.265
548.76	1.264
548.96	1.265
549.16	1.268
549.35	1.266
549.55	1.259
549.75	1.258
549.95	1.266
550.14	1.268
550.34	1.267
550.54	1.281
550.73	1.292
550.93	1.294
551.13	1.290
551.33	1.287
551.52	1.287
551.72	1.288
551.92	1.283
552.12	1.285
552.31	1.283
552.51	1.283
552.71	1.268
552.90	1.269
553.10	1.269
553.30	1.267
553.50	1.267
553.69	1.271
553.89	1.271
554.09	1.274
554.28	1.264
554.48	1.268
554.68	1.274
554.87	1.273
555.07	1.264
555.27	1.264
555.47	1.267
555.66	1.269
555.86	1.267
556.06	1.274
556.25	1.277
556.45	1.307
556.65	1.304
556.84	1.313
557.04	1.322
557.24	1.326
557.43	1.326
557.63	1.337
557.83	1.339
558.02	1.342
558.22	1.357
558.42	1.356
558.61	1.324
558.81	1.324
559.01	1.310
559.21	1.308
559.40	1.306
559.60	1.309
559.80	1.298
559.99	1.301
560.19	1.304
560.39	1.285
560.58	1.279
560.78	1.281
560.97	1.291
561.17	1.289
561.37	1.286
561.56	1.291
561.76	1.293
561.96	1.293
562.15	1.287
562.35	1.295
562.55	1.297
562.74	1.299
562.94	1.295
563.14	1.288
563.33	1.290
563.53	1.289
563.73	1.282
563.92	1.285
564.12	1.289
564.31	1.293
564.51	1.286
564.71	1.291
564.90	1.294
565.10	1.296
565.30	1.309
565.49	1.311
565.69	1.316
565.89	1.318
566.08	1.312
566.28	1.318
566.47	1.323
566.67	1.317
566.87	1.311
567.06	1.319
567.26	1.341
567.46	1.326
567.65	1.324
567.85	1.329
568.04	1.335
568.24	1.331
568.44	1.321
568.63	1.315
568.83	1.320
569.02	1.314
569.22	1.300
569.42	1.286
569.61	1.291
569.81	1.286
570.00	1.282
570.20	1.284
570.40	1.287
570.59	1.288
570.79	1.281
570.98	1.274
571.18	1.277
571.38	1.276
571.57	1.268
571.77	1.262
571.96	1.272
572.16	1.265
572.35	1.252
572.55	1.257
572.75	1.251
572.94	1.251
573.14	1.246
573.33	1.247
573.53	1.247
573.73	1.245
573.92	1.241
574.12	1.235
574.31	1.241
574.51	1.242
574.70	1.232
574.90	1.235
575.09	1.241
575.29	1.242
575.49	1.236
575.68	1.240
575.88	1.242
576.07	1.245
576.27	1.239
576.46	1.234
576.66	1.232
576.86	1.231
577.05	1.227
577.25	1.223
577.44	1.226
577.64	1.226
577.83	1.221
578.03	1.224
578.22	1.220
578.42	1.220
578.61	1.216
578.81	1.218
579.00	1.218
579.20	1.217
579.40	1.216
579.59	1.213
579.79	1.213
579.98	1.212
580.18	1.213
580.37	1.215
580.57	1.221
580.76	1.236
580.96	1.233
581.15	1.237
581.35	1.238
581.54	1.236
581.74	1.234
581.93	1.239
582.13	1.241
582.32	1.232
582.52	1.227
582.71	1.224
582.91	1.209
583.10	1.210
583.30	1.207
583.49	1.206
583.69	1.216
583.88	1.221
584.08	1.219
584.27	1.225
584.47	1.233
584.66	1.235
584.86	1.234
585.05	1.238
585.25	1.244
585.44	1.242
585.64	1.241
585.83	1.233
586.03	1.235
586.22	1.232
586.42	1.223
586.61	1.230
586.81	1.237
587.00	1.237
587.20	1.231
587.39	1.233
587.59	1.238
587.78	1.239
587.98	1.240
588.17	1.241
588.37	1.245
588.56	1.249
588.76	1.237
588.95	1.236
589.15	1.249
589.34	1.257
589.54	1.253
589.73	1.255
589.92	1.261
590.12	1.261
590.31	1.255
590.51	1.272
590.70	1.276
590.90	1.277
591.09	1.271
591.29	1.262
591.48	1.260
591.68	1.263
591.87	1.261
592.06	1.261
592.26	1.269
592.45	1.266
592.65	1.248
592.84	1.248
593.04	1.254
593.23	1.261
593.43	1.256
593.62	1.256
593.81	1.257
594.01	1.255
594.20	1.251
594.40	1.247
594.59	1.252
594.79	1.254
594.98	1.251
595.17	1.248
595.37	1.250
595.56	1.255
595.76	1.255
595.95	1.258
596.14	1.265
596.34	1.268
596.53	1.263
596.73	1.266
596.92	1.266
597.12	1.273
597.31	1.275
597.50	1.270
597.70	1.275
597.89	1.271
598.09	1.263
598.28	1.267
598.47	1.274
598.67	1.272
598.86	1.266
599.06	1.275
599.25	1.274
599.44	1.268
599.64	1.264
599.83	1.258
600.03	1.268
600.22	1.267
600.41	1.270
600.61	1.260
600.80	1.267
601.00	1.267
601.19	1.256
601.38	1.252
601.58	1.256
601.77	1.259
601.96	1.265
602.16	1.263
602.35	1.291
602.55	1.280
602.74	1.284
602.93	1.287
603.13	1.300
603.32	1.302
603.51	1.304
603.71	1.314
603.90	1.316
604.09	1.319
604.29	1.312
604.48	1.290
604.68	1.294
604.87	1.291
605.06	1.285
605.26	1.276
605.45	1.276
605.64	1.273
605.84	1.260
606.03	1.261
606.22	1.254
606.42	1.252
606.61	1.246
606.80	1.246
607.00	1.254
607.19	1.253
607.38	1.252
607.58	1.259
607.77	1.264
607.96	1.265
608.16	1.263
608.35	1.281
608.54	1.293
608.74	1.302
608.93	1.323
609.12	1.327
609.32	1.335
609.51	1.343
609.70	1.337
609.90	1.342
610.09	1.354
610.28	1.370
610.48	1.345
610.67	1.347
610.86	1.347
611.06	1.323
611.25	1.317
611.44	1.318
611.64	1.317
611.83	1.328
612.02	1.322
612.21	1.318
612.41	1.311
612.60	1.313
612.79	1.302
612.99	1.303
613.18	1.313
613.37	1.307
613.57	1.303
613.76	1.309
613.95	1.299
614.14	1.296
614.34	1.291
614.53	1.293
614.72	1.298
614.92	1.300
615.11	1.292
615.30	1.279
615.49	1.286
615.69	1.293
615.88	1.283
616.07	1.288
616.26	1.295
616.46	1.299
616.65	1.293
616.84	1.290
617.04	1.291
617.23	1.301
617.42	1.302
617.61	1.309
617.81	1.305
618.00	1.313
618.19	1.311
618.38	1.323
618.58	1.332
618.77	1.336
618.96	1.337
619.15	1.345
619.35	1.350
619.54	1.352
619.73	1.337
619.92	1.344
620.12	1.354
620.31	1.356
620.50	1.338
620.69	1.338
620.89	1.345
621.08	1.349
621.27	1.351
621.46	1.348
621.66	1.362
621.85	1.364
622.04	1.356
622.23	1.364
622.43	1.366
622.62	1.366
622.81	1.365
623.00	1.363
623.19	1.370
623.39	1.364
623.58	1.355
623.77	1.352
623.96	1.360
624.16	1.362
624.35	1.342
624.54	1.351
624.73	1.363
624.92	1.355
625.12	1.346
625.31	1.349
625.50	1.358
625.69	1.361
625.88	1.351
626.08	1.350
626.27	1.350
626.46	1.352
626.65	1.341
626.84	1.338
627.04	1.356
627.23	1.360
627.42	1.351
627.61	1.358
627.80	1.362
628.00	1.365
628.19	1.358
628.38	1.369
628.57	1.376
628.76	1.377
628.96	1.369
629.15	1.367
629.34	1.377
629.53	1.374
629.72	1.356
629.91	1.361
630.11	1.373
630.30	1.375
630.49	1.392
630.68	1.394
630.87	1.403
631.06	1.413
631.26	1.399
631.45	1.402
631.64	1.431
631.83	1.438
632.02	1.429
632.21	1.420
632.41	1.443
632.60	1.414
632.79	1.407
632.98	1.410
633.17	1.408
633.36	1.416
633.55	1.407
633.75	1.392
633.94	1.394
634.13	1.398
634.32	1.394
634.51	1.377
634.70	1.383
634.89	1.386
635.09	1.375
635.28	1.380
635.47	1.378
635.66	1.388
635.85	1.378
636.04	1.386
636.23	1.403
636.43	1.407
636.62	1.409
636.81	1.404
637.00	1.407
637.19	1.422
637.38	1.414
637.57	1.419
637.76	1.425
637.95	1.426
638.15	1.414
638.34	1.402
638.53	1.409
638.72	1.407
638.91	1.402
639.10	1.400
639.29	1.390
639.48	1.390
639.67	1.391
639.87	1.388
640.06	1.412
640.25	1.411
640.44	1.413
640.63	1.418
640.82	1.426
641.01	1.432
641.20	1.432
641.39	1.450
641.58	1.460
641.78	1.455
641.97	1.438
642.16	1.505
642.35	1.504
642.54	1.497
642.73	1.479
642.92	1.475
643.11	1.484
643.30	1.483
643.49	1.460
643.68	1.468
643.87	1.468
644.06	1.470
644.25	1.386
644.45	1.399
644.64	1.404
644.83	1.402
645.02	1.398
645.21	1.395
645.40	1.395
645.59	1.398
645.78	1.383
645.97	1.394
646.16	1.394
646.35	1.391
646.54	1.385
646.73	1.393
646.92	1.404
647.11	1.399
647.30	1.388
647.49	1.397
647.68	1.392
647.88	1.386
648.07	1.371
648.26	1.387
648.45	1.389
648.64	1.380
648.83	1.372
649.02	1.381
649.21	1.425
649.40	1.421
649.59	1.405
649.78	1.410
649.97	1.476
650.16	1.469
650.35	1.445
650.54	1.466
650.73	1.501
650.92	1.486
651.11	1.455
651.30	1.444
651.49	1.459
651.68	1.462
651.87	1.453
652.06	1.398
652.25	1.406
652.44	1.410
652.63	1.393
652.82	1.392
653.01	1.389
653.20	1.385
653.39	1.347
653.58	1.341
653.77	1.339
653.96	1.325
654.15	1.305
654.34	1.301
654.53	1.293
654.72	1.275
654.91	1.250
655.10	1.241
655.29	1.234
655.48	1.227
655.67	1.214
655.86	1.209
656.05	1.206
656.24	1.204
656.43	1.192
656.62	1.192
656.81	1.196
657.00	1.192
657.19	1.187
657.38	1.189
657.57	1.191
657.76	1.197
657.95	1.194
658.14	1.205
658.33	1.215
658.51	1.232
658.70	1.231
658.89	1.232
659.08	1.255
659.27	1.278
659.46	1.279
659.65	1.295
659.84	1.308
660.03	1.315
660.22	1.318
660.41	1.332
660.60	1.329
660.79	1.334
660.98	1.359
661.17	1.351
661.36	1.346
661.55	1.352
661.74	1.345
661.92	1.352
662.11	1.361
662.30	1.353
662.49	1.334
662.68	1.327
662.87	1.331
663.06	1.309
663.25	1.317
663.44	1.317
663.63	1.317
663.82	1.313
664.01	1.295
664.20	1.288
664.38	1.294
664.57	1.293
664.76	1.296
664.95	1.303
665.14	1.319
665.33	1.305
665.52	1.336
665.71	1.355
665.90	1.358
666.09	1.367
666.28	1.363
666.46	1.353
666.65	1.354
666.84	1.350
667.03	1.336
667.22	1.332
667.41	1.343
667.60	1.307
667.79	1.283
667.98	1.287
668.16	1.287
668.35	1.289
668.54	1.283
668.73	1.287
668.92	1.290
669.11	1.287
669.30	1.270
669.49	1.258
669.67	1.265
669.86	1.276
670.05	1.268
670.24	1.265
670.43	1.259
670.62	1.258
670.81	1.246
671.00	1.247
671.18	1.245
671.37	1.244
671.56	1.239
671.75	1.233
671.94	1.223
672.13	1.218
672.32	1.205
672.50	1.205
672.69	1.203
672.88	1.203
673.07	1.193
673.26	1.200
673.45	1.202
673.63	1.202
673.82	1.195
674.01	1.200
674.20	1.200
674.39	1.200
674.58	1.199
674.76	1.202
674.95	1.201
675.14	1.202
675.33	1.191
675.52	1.189
675.71	1.189
675.89	1.189
676.08	1.179
676.27	1.179
676.46	1.181
676.65	1.180
676.84	1.180
677.02	1.182
677.21	1.186
677.40	1.184
677.59	1.180
677.78	1.180
677.96	1.187
678.15	1.185
678.34	1.182
678.53	1.184
678.72	1.183
678.90	1.175
679.09	1.170
679.28	1.165
679.47	1.165
679.66	1.163
679.84	1.158
680.03	1.150
680.22	1.150
680.41	1.156
680.60	1.150
680.78	1.148
680.97	1.153
681.16	1.153
681.35	1.148
681.53	1.146
681.72	1.147
681.91	1.153
682.10	1.151
682.29	1.157
682.47	1.150
682.66	1.143
682.85	1.140
683.04	1.138
683.22	1.137
683.41	1.144
683.60	1.143
683.79	1.149
683.97	1.145
684.16	1.143
684.35	1.136
684.54	1.140
684.72	1.145
684.91	1.148
685.10	1.142
685.29	1.147
685.47	1.139
685.66	1.137
685.85	1.126
686.04	1.126
686.22	1.130
686.41	1.138
686.60	1.131
686.79	1.140
686.97	1.142
687.16	1.146
687.35	1.140
687.54	1.150
687.72	1.160
687.91	1.163
688.10	1.169
688.29	1.170
688.47	1.161
688.66	1.162
688.85	1.151
689.03	1.146
689.22	1.163
689.41	1.165
689.60	1.154
689.78	1.149
689.97	1.149
690.16	1.142
690.34	1.134
690.53	1.137
690.72	1.136
690.91	1.133
691.09	1.129
691.28	1.111
691.47	1.108
691.65	1.106
691.84	1.100
692.03	1.099
692.21	1.094
692.40	1.094
692.59	1.088
692.77	1.084
692.96	1.087
693.15	1.090
693.34	1.085
693.52	1.085
693.71	1.085
693.90	1.087
694.08	1.090
694.27	1.094
694.46	1.123
694.64	1.126
694.83	1.126
695.02	1.125
695.20	1.124
695.39	1.124
695.58	1.124
695.76	1.127
695.95	1.123
696.14	1.120
696.32	1.113
696.51	1.085
696.70	1.084
696.88	1.089
697.07	1.084
697.26	1.086
697.44	1.088
697.63	1.085
697.81	1.081
698.00	1.082
698.19	1.080
698.37	1.081
698.56	1.080
698.75	1.079
698.93	1.074
699.12	1.075
699.31	1.074
699.49	1.073
699.68	1.074
699.87	1.080
700.05	1.080
700.24	1.078
700.42	1.080
700.61	1.080
700.80	1.076
700.98	1.079
701.17	1.081
701.36	1.080
701.54	1.079
701.73	1.082
701.91	1.075
702.10	1.075
702.29	1.073
702.47	1.072
702.66	1.078
702.84	1.082
703.03	1.079
703.22	1.085
703.40	1.084
703.59	1.089
703.77	1.090
703.96	1.091
704.15	1.092
704.33	1.092
704.52	1.092
704.70	1.087
704.89	1.085
705.08	1.082
705.26	1.073
705.45	1.072
705.63	1.070
705.82	1.063
706.00	1.059
706.19	1.059
706.38	1.059
706.56	1.057
706.75	1.055
706.93	1.052
707.12	1.054
707.30	1.054
707.49	1.050
707.68	1.046
707.86	1.044
708.05	1.044
708.23	1.038
708.42	1.038
708.60	1.045
708.79	1.044
708.98	1.042
709.16	1.040
709.35	1.044
709.53	1.054
709.72	1.052
709.90	1.055
710.09	1.060
710.27	1.063
710.46	1.075
710.64	1.068
710.83	1.069
711.02	1.074
711.20	1.074
711.39	1.069
711.57	1.060
711.76	1.060
711.94	1.058
712.13	1.060
712.31	1.058
712.50	1.046
712.68	1.042
712.87	1.044
713.05	1.043
713.24	1.043
713.42	1.042
713.61	1.043
713.79	1.046
713.98	1.045
714.16	1.048
714.35	1.046
714.54	1.049
714.72	1.050
714.91	1.045
715.09	1.062
715.28	1.066
715.46	1.066
715.65	1.063
715.83	1.062
716.02	1.068
716.20	1.059
716.39	1.061
716.57	1.065
716.76	1.069
716.94	1.070
717.12	1.051
717.31	1.056
717.49	1.061
717.68	1.065
717.86	1.065
718.05	1.068
718.23	1.072
718.42	1.075
718.60	1.079
718.79	1.104
718.97	1.109
719.16	1.107
719.34	1.102
719.53	1.103
719.71	1.103
719.90	1.104
720.08	1.096
720.27	1.097
720.45	1.095
720.63	1.086
720.82	1.066
721.00	1.071
721.19	1.079
721.37	1.075
721.56	1.074
721.74	1.078
721.93	1.101
722.11	1.119
722.30	1.119
722.48	1.132
722.66	1.133
722.85	1.129
723.03	1.132
723.22	1.130
723.40	1.137
723.59	1.135
723.77	1.149
723.95	1.125
724.14	1.129
724.32	1.130
724.51	1.127
724.69	1.131
724.88	1.129
725.06	1.121
725.24	1.122
725.43	1.126
725.61	1.133
725.80	1.115
725.98	1.115
726.16	1.103
726.35	1.117
726.53	1.112
726.72	1.111
726.90	1.140
727.09	1.142
727.27	1.159
727.45	1.149
727.64	1.171
727.82	1.187
728.01	1.192
728.19	1.184
728.37	1.198
728.56	1.208
728.74	1.226
728.92	1.188
729.11	1.195
729.29	1.182
729.48	1.189
729.66	1.162
729.84	1.161
730.03	1.165
730.21	1.169
730.40	1.138
730.58	1.138
730.76	1.132
730.95	1.136
731.13	1.133
731.31	1.171
731.50	1.184
731.68	1.191
731.86	1.182
732.05	1.226
732.23	1.227
732.42	1.242
732.60	1.253
732.78	1.264
732.97	1.312
733.15	1.329
733.33	1.285
733.52	1.309
733.70	1.330
733.88	1.361
734.07	1.308
734.25	1.405
734.43	1.420
734.62	1.421
734.80	1.412
734.98	1.366
735.17	1.381
735.35	1.398
735.53	1.357
735.72	1.361
735.90	1.428
736.08	1.526
736.27	1.416
736.45	1.452
736.63	1.503
736.82	1.543
737.00	1.551
737.18	1.608
737.37	1.825
737.55	2.104
737.73	2.059
737.92	2.058
738.10	1.945
738.28	2.326
738.46	2.153
738.65	2.326
738.83	3.182
739.01	-0.000
739.20	-0.000
739.38	-0.000
739.56	-0.000
739.75	-0.000
739.93	-0.000
740.11	-0.000
740.29	-0.000
740.48	-0.000
740.66	-0.000
740.84	-0.000
741.03	1.927
741.21	2.045
741.39	1.932
741.57	2.089
741.76	2.124
741.94	2.160
742.12	1.834
742.31	1.902
742.49	2.153
742.67	3.332
742.85	-0.000
743.04	-0.000
743.22	-0.000
743.40	-0.000
743.58	-0.000
743.77	-0.000
743.95	-0.000
744.13	-0.000
744.31	-0.000
744.50	-0.000
744.68	-0.000
744.86	-0.000
745.04	-0.000
745.23	-0.000
745.41	-0.000
745.59	-0.000
745.77	-0.000
745.96	-0.000
746.14	-0.000
746.32	-0.000
746.50	-0.000
746.69	-0.000
746.87	-0.000
747.05	-0.000
747.23	-0.000
747.42	-0.000
747.60	-0.000
747.78	-0.000
747.96	-0.000
748.14	-0.000
748.33	-0.000
748.51	-0.000
748.69	-0.000
748.87	-0.000
749.06	-0.000
749.24	-0.000
749.42	-0.000
749.60	-0.000
749.78	-0.000
749.97	-0.000
750.15	-0.000
750.33	-0.000
750.51	-0.000
750.69	-0.000
750.88	-0.000
751.06	-0.000
751.24	-0.000
751.42	-0.000
751.60	-0.000
751.79	-0.000
751.97	-0.000
752.15	-0.000
752.33	-0.000
752.51	-0.000
752.69	-0.000
752.88	-0.000
753.06	-0.000
753.24	-0.000
753.42	-0.000
753.60	-0.000
753.78	-0.000
753.97	-0.000
754.15	-0.000
754.33	-0.000
754.51	-0.000
754.69	-0.000
754.87	-0.000
755.06	-0.000
755.24	-0.000
755.42	-0.000
755.60	-0.000
755.78	-0.000
755.96	-0.000
756.15	-0.000
756.33	-0.000
756.51	-0.000
756.69	-0.000
756.87	-0.000
757.05	-0.000
757.23	2.820
757.42	1.966
757.60	2.040
757.78	1.919
757.96	1.960
758.14	1.840
758.32	1.744
758.50	1.796
758.69	1.733
758.87	1.707
759.05	1.730
759.23	1.768
759.41	1.756
759.59	1.748
759.77	1.913
759.95	2.285
760.13	-0.000
760.32	-0.000
760.50	-0.000
760.68	-0.000
760.86	-0.000
761.04	-0.000
761.22	-0.000
761.40	-0.000
761.58	-0.000
761.76	-0.000
761.95	-0.000
762.13	2.505
762.31	2.561
762.49	1.993
762.67	2.450
762.85	3.326
763.03	3.648
763.21	2.430
763.39	1.972
763.57	1.931
763.75	1.875
763.94	1.783
764.12	1.765
764.30	2.006
764.48	2.031
764.66	1.687
764.84	1.674
765.02	1.971
765.20	2.012
765.38	1.878
765.56	2.002
765.74	-0.000
765.92	-0.000
766.10	-0.000
766.28	-0.000
766.46	-0.000
766.65	-0.000
766.83	-0.000
767.01	-0.000
767.19	-0.000
767.37	-0.000
767.55	-0.000
767.73	2.244
767.91	2.180
768.09	2.056
768.27	1.942
768.45	1.830
768.63	1.816
768.81	1.811
768.99	1.630
769.17	1.812
769.35	1.907
769.53	1.890
769.71	1.776
769.89	1.834
770.07	1.897
770.25	1.756
770.43	1.670
770.61	1.863
770.79	1.919
770.97	2.016
771.15	1.748
771.33	1.750
771.51	1.757
771.69	1.805
771.87	1.945
772.05	1.911
772.24	1.956
772.42	2.013
772.60	1.799
772.78	-0.000
772.96	-0.000
773.14	-0.000
773.32	-0.000
773.49	-0.000
773.67	-0.000
773.85	-0.000
774.03	3.186
774.21	-0.000
774.39	-0.000
774.57	-0.000
774.75	2.991
774.93	2.583
775.11	4.475
775.29	4.775
775.47	-0.000
775.65	-0.000
775.83	-0.000
776.01	-0.000
776.19	-0.000
776.37	-0.000
776.55	-0.000
776.73	-0.000
776.91	-0.000
777.09	-0.000
777.27	-0.000
777.45	-0.000
777.63	2.296
777.81	2.201
777.99	1.905
778.17	1.948
778.35	1.792
778.53	1.676
778.71	1.713
778.89	1.613
779.07	1.593
779.24	1.598
779.42	1.567
779.60	1.699
779.78	1.689
779.96	1.715
780.14	1.724
780.32	1.903
780.50	1.769
780.68	1.737
780.86	1.682
781.04	1.831
781.22	1.921
781.40	2.038
781.58	1.804
781.75	1.703
781.93	1.645
782.11	1.640
782.29	1.533
782.47	1.525
782.65	1.502
782.83	1.646
783.01	1.554
783.19	1.505
783.37	1.458
783.55	1.478
783.72	1.579
783.90	1.606
784.08	1.579
784.26	1.672
784.44	1.851
784.62	1.859
784.80	1.614
784.98	1.688
785.16	1.733
785.33	1.858
785.51	1.809
785.69	1.689
785.87	1.699
786.05	1.801
786.23	1.764
786.41	1.720
786.59	1.743
786.77	1.752
786.94	1.657
787.12	1.658
787.30	1.662
787.48	1.640
787.66	1.607
787.84	1.604
788.02	1.538
788.19	1.522
788.37	1.459
788.55	1.470
788.73	1.461
788.91	1.442
789.09	1.386
789.27	1.356
789.44	1.406
789.62	1.423
789.80	1.496
789.98	1.664
790.16	1.590
790.34	1.584
790.51	1.544
790.69	1.686
790.87	1.746
791.05	1.778
791.23	1.694
791.41	1.654
791.58	1.684
791.76	1.525
791.94	1.377
792.12	1.408
792.30	1.409
792.48	1.402
792.65	1.389
792.83	1.409
793.01	1.420
793.19	1.432
793.37	1.382
793.54	1.374
793.72	1.415
793.90	1.417
794.08	1.372
794.26	1.372
794.43	1.396
794.61	1.329
794.79	1.290
794.97	1.292
795.15	1.298
795.32	1.316
795.50	1.286
795.68	1.266
795.86	1.261
796.04	1.279
796.21	1.266
796.39	1.262
796.57	1.296
796.75	1.339
796.92	1.340
797.10	1.355
797.28	1.354
797.46	1.355
797.64	1.370
797.81	1.407
797.99	1.403
798.17	1.421
798.35	1.398
798.52	1.422
798.70	1.379
798.88	1.429
799.06	1.447
799.23	1.455
799.41	1.491
799.59	1.458
799.77	1.423
799.94	1.446
800.12	1.482
800.30	1.588
800.48	1.596
800.65	1.630
800.83	1.537
801.01	1.498
801.19	1.519
801.36	1.506
801.54	1.513
801.72	1.587
801.90	1.556
802.07	1.525
802.25	1.435
802.43	1.373
802.60	1.353
802.78	1.384
802.96	1.400
803.14	1.367
803.31	1.357
803.49	1.358
803.67	1.322
803.84	1.320
804.02	1.295
804.20	1.310
804.38	1.305
804.55	1.297
804.73	1.254
804.91	1.246
805.08	1.288
805.26	1.276
805.44	1.703
805.61	1.725
805.79	1.741
805.97	1.744
806.15	1.684
806.32	1.675
806.50	1.728
806.68	1.733
806.85	1.677
807.03	1.586
807.21	1.717
807.38	1.274
807.56	1.257
807.74	1.285
807.91	1.313
808.09	1.318
808.27	1.404
808.44	1.546
808.62	1.587
808.80	1.618
808.97	1.614
809.15	1.569
809.33	1.664
809.50	1.691
809.68	1.612
809.86	1.650
810.03	1.971
810.21	1.720
810.39	1.586
810.56	1.602
810.74	1.738
810.91	-0.000
811.09	-0.000
811.27	-0.000
811.44	-0.000
811.62	-0.000
811.80	-0.000
811.97	-0.000
812.15	-0.000
812.33	-0.000
812.50	3.419
812.68	2.308
812.85	1.512
813.03	1.531
813.21	1.383
813.38	1.378
813.56	1.372
813.74	1.415
813.91	1.445
814.09	1.590
814.26	1.534
814.44	1.520
814.62	1.492
814.79	1.504
814.97	1.499
815.14	1.526
815.32	1.504
815.50	1.605
815.67	1.602
815.85	1.555
816.02	1.516
816.20	1.565
816.38	1.676
816.55	1.701
816.73	1.743
816.90	1.819
817.08	2.249
817.26	2.791
817.43	2.155
817.61	-0.000
817.78	-0.000
817.96	3.078
818.13	2.441
818.31	2.328
818.49	2.693
818.66	2.219
818.84	2.126
819.01	1.776
819.19	1.777
819.36	1.798
819.54	1.563
819.71	1.974
819.89	2.048
820.07	2.270
820.24	2.110
820.42	2.131
820.59	2.440
820.77	-0.000
820.94	-0.000
821.12	-0.000
821.29	-0.000
821.47	-0.000
821.64	2.079
821.82	2.373
822.00	2.187
822.17	2.410
822.35	2.353
822.52	2.399
822.70	2.032
822.87	2.200
823.05	1.957
823.22	2.204
823.40	3.354
823.57	-0.000
823.75	-0.000
823.92	-0.000
824.10	-0.000
824.27	-0.000
824.45	-0.000
824.62	-0.000
824.80	-0.000
824.97	-0.000
825.15	-0.000
825.32	-0.000
825.50	-0.000
825.67	-0.000
825.85	-0.000
826.02	-0.000
826.20	-0.000
826.37	-0.000
826.55	-0.000
826.72	-0.000
826.90	-0.000
827.07	-0.000
827.25	-0.000
827.42	-0.000
827.60	-0.000
827.77	-0.000
827.95	-0.000
828.12	-0.000
828.30	-0.000
828.47	-0.000
828.65	-0.000
828.82	-0.000
829.00	-0.000
829.17	-0.000
829.34	-0.000
829.52	-0.000
829.69	-0.000
829.87	-0.000
830.04	-0.000
830.22	-0.000
830.39	-0.000
830.57	-0.000
830.74	-0.000
830.92	-0.000
831.09	-0.000
831.26	-0.000
831.44	-0.000
831.61	-0.000
831.79	-0.000
831.96	-0.000
832.14	-0.000
832.31	-0.000
832.49	-0.000
832.66	-0.000
832.83	-0.000
833.01	-0.000
833.18	-0.000
833.36	-0.000
833.53	-0.000
833.70	-0.000
833.88	-0.000
834.05	-0.000
834.23	-0.000
834.40	-0.000
834.58	-0.000
834.75	-0.000
834.92	-0.000
835.10	-0.000
835.27	-0.000
835.45	-0.000
835.62	-0.000
835.79	-0.000
835.97	-0.000
836.14	-0.000
836.32	-0.000
836.49	-0.000
836.66	-0.000
836.84	-0.000
837.01	-0.000
837.18	-0.000
837.36	-0.000
837.53	-0.000
837.71	-0.000
837.88	-0.000
838.05	-0.000
838.23	-0.000
838.40	-0.000
838.58	-0.000
838.75	-0.000
838.92	-0.000
839.10	-0.000
839.27	-0.000
839.44	-0.000
839.62	-0.000
839.79	-0.000
839.96	-0.000
840.14	-0.000
840.31	-0.000
840.48	-0.000
840.66	-0.000
840.83	-0.000
841.01	-0.000
841.18	-0.000
841.35	-0.000
841.53	-0.000
841.70	-0.000
841.87	-0.000
842.05	-0.000
842.22	-0.000
842.39	-0.000
842.57	-0.000
842.74	-0.000
842.91	-0.000
843.09	-0.000
843.26	-0.000
843.43	-0.000
843.60	-0.000
843.78	-0.000
843.95	-0.000
844.12	-0.000
844.30	-0.000
844.47	-0.000
844.64	-0.000
844.82	-0.000
844.99	-0.000
845.16	-0.000
845.34	-0.000
845.51	-0.000
845.68	-0.000
845.85	-0.000
846.03	-0.000
846.20	-0.000
846.37	-0.000
846.55	-0.000
846.72	-0.000
846.89	-0.000
847.06	-0.000
847.24	-0.000
847.41	-0.000
847.58	-0.000
847.76	-0.000
847.93	-0.000
848.10	-0.000
848.27	-0.000
848.45	-0.000
848.62	-0.000
848.79	-0.000
848.97	-0.000
849.14	-0.000
849.31	-0.000
849.48	-0.000
849.66	-0.000
849.83	-0.000
850.00	-0.000
850.17	-0.000
850.35	-0.000
850.52	-0.000
850.69	-0.000
850.86	-0.000
851.04	-0.000
851.21	-0.000
851.38	-0.000
851.55	-0.000
851.72	-0.000
851.90	-0.000
852.07	-0.000
852.24	-0.000
852.41	-0.000
852.59	-0.000
852.76	-0.000
852.93	-0.000
853.10	-0.000
853.28	-0.000
853.45	-0.000
853.62	-0.000
853.79	-0.000
853.96	-0.000
854.14	-0.000
854.31	-0.000
854.48	-0.000
854.65	-0.000
854.82	-0.000
855.00	-0.000
855.17	-0.000
855.34	-0.000
855.51	-0.000
855.68	-0.000
855.86	-0.000
856.03	-0.000
856.20	-0.000
856.37	-0.000
856.54	-0.000
856.72	-0.000
856.89	-0.000
857.06	-0.000
857.23	-0.000
857.40	-0.000
857.57	-0.000
857.75	-0.000
857.92	-0.000
858.09	-0.000
858.26	-0.000
858.43	-0.000
858.60	-0.000
858.78	-0.000
858.95	-0.000
859.12	-0.000
859.29	-0.000
859.46	-0.000
859.63	-0.000
859.81	-0.000
859.98	-0.000
860.15	-0.000
860.32	-0.000
860.49	-0.000
860.66	-0.000
860.83	-0.000
861.01	-0.000
861.18	-0.000
861.35	-0.000
861.52	-0.000
861.69	-0.000
861.86	-0.000
862.03	-0.000
862.21	-0.000
862.38	-0.000
862.55	-0.000
862.72	-0.000
862.89	-0.000
863.06	-0.000
863.23	-0.000
863.40	-0.000
863.58	-0.000
863.75	-0.000
863.92	-0.000
864.09	-0.000
864.26	-0.000
864.43	-0.000
864.60	-0.000
864.77	-0.000
864.94	-0.000
865.11	-0.000
865.29	-0.000
865.46	-0.000
865.63	-0.000
865.80	-0.000
865.97	-0.000
866.14	-0.000
866.31	-0.000
866.48	-0.000
866.65	-0.000
866.82	-0.000
866.99	-0.000
867.16	-0.000
867.34	-0.000
867.51	-0.000
867.68	-0.000
867.85	-0.000
868.02	-0.000
868.19	-0.000
868.36	-0.000
868.53	-0.000
868.70	-0.000
868.87	-0.000
869.04	-0.000
869.21	-0.000
869.38	-0.000
869.55	-0.000
869.72	-0.000
869.89	-0.000
870.06	-0.000
870.24	-0.000
870.41	-0.000
870.58	-0.000
870.75	-0.000
870.92	-0.000
871.09	-0.000
871.26	-0.000
871.43	-0.000
871.60	-0.000
871.77	-0.000
871.94	-0.000
872.11	-0.000
872.28	-0.000
872.45	-0.000
872.62	-0.000
872.79	-0.000
872.96	-0.000
873.13	-0.000
873.30	-0.000
873.47	-0.000
873.64	-0.000
873.81	-0.000
873.98	-0.000
874.15	-0.000
874.32	-0.000
874.49	-0.000
874.66	-0.000
874.83	-0.000
875.00	-0.000
875.17	-0.000
875.34	-0.000
875.51	-0.000
875.68	-0.000
875.85	-0.000
876.02	-0.000
876.19	-0.000
876.36	-0.000
876.53	-0.000
876.70	-0.000
876.87	-0.000
877.04	-0.000
877.21	-0.000
877.38	-0.000
877.55	-0.000
877.72	-0.000
877.89	-0.000
878.06	-0.000
878.23	-0.000
878.39	-0.000
878.56	-0.000
878.73	-0.000
878.90	-0.000
879.07	-0.000
879.24	-0.000
879.41	-0.000
879.58	-0.000
879.75	-0.000
879.92	-0.000
880.09	-0.000
880.26	-0.000
880.43	-0.000
880.60	-0.000
880.77	-0.000
880.94	-0.000
881.11	-0.000
881.27	-0.000
881.44	-0.000
881.61	-0.000
881.78	-0.000
881.95	-0.000
882.12	-0.000
882.29	-0.000
882.46	-0.000
882.63	-0.000
882.80	-0.000
882.97	-0.000
883.14	-0.000
883.30	-0.000
883.47	-0.000
883.64	-0.000
883.81	-0.000
883.98	-0.000
884.15	-0.000
884.32	-0.000
884.49	-0.000
884.66	-0.000
884.82	-0.000
884.99	-0.000
885.16	-0.000
885.33	-0.000
885.50	-0.000
885.67	-0.000
885.84	-0.000
886.01	-0.000
886.17	-0.000
886.34	-0.000
886.51	-0.000
886.68	-0.000
886.85	-0.000
887.02	-0.000
887.19	-0.000
887.36	-0.000
887.52	-0.000
887.69	-0.000
887.86	-0.000
888.03	-0.000
888.20	-0.000
888.37	-0.000
888.54	-0.000
888.70	-0.000
888.87	-0.000
889.04	-0.000
889.21	-0.000
889.38	-0.000
889.55	-0.000
889.71	-0.000
889.88	-0.000
890.05	-0.000
890.22	-0.000
890.39	-0.000
>>>>>End Processed Spectral Data<<<<<
