SpectraSuite Data File
++++++++++++++++++++++++++++++++++++
Date: Fri Jun 19 15:21:10 CEST 2015
User: introlabs
Dark Spectrum Present: Yes
Reference Spectrum Present: Yes
Number of Sampled Component Spectra: 1
Spectrometers: USB4H08886
Integration Time (usec): 745692 (USB4H08886)
Spectra Averaged: 5 (USB4H08886)
Boxcar Smoothing: 5 (USB4H08886)
Correct for Electrical Dark: Yes (USB4H08886)
Strobe/Lamp Enabled: No (USB4H08886)
Correct for Detector Non-linearity: Yes (USB4H08886)
Correct for Stray Light: Yes (USB4H08886)
Number of Pixels in Processed Spectrum: 3648
>>>>>Begin Processed Spectral Data<<<<<
178.14	-0.000
178.36	-0.000
178.57	-0.000
178.79	-0.000
179.01	-0.000
179.22	-0.000
179.44	-0.000
179.65	-0.000
179.87	-0.000
180.08	-0.000
180.30	-0.000
180.52	-0.000
180.73	-0.000
180.95	-0.000
181.16	-0.000
181.38	-0.000
181.59	-0.000
181.81	-0.000
182.03	-0.000
182.24	-0.000
182.46	-0.000
182.67	-0.000
182.89	-0.000
183.10	-0.000
183.32	-0.000
183.54	-0.000
183.75	-0.000
183.97	-0.000
184.18	-0.000
184.40	-0.000
184.61	-0.000
184.83	-0.000
185.04	-0.000
185.26	-0.000
185.48	-0.000
185.69	-0.000
185.91	-0.000
186.12	-0.000
186.34	-0.000
186.55	-0.000
186.77	-0.000
186.98	-0.000
187.20	-0.000
187.42	-0.000
187.63	-0.000
187.85	-0.000
188.06	-0.000
188.28	-0.000
188.49	-0.000
188.71	-0.000
188.92	-0.000
189.14	-0.000
189.36	-0.000
189.57	-0.000
189.79	-0.000
190.00	-0.000
190.22	-0.000
190.43	-0.000
190.65	-0.000
190.86	-0.000
191.08	-0.000
191.29	-0.000
191.51	-0.000
191.72	-0.000
191.94	-0.000
192.16	-0.000
192.37	-0.000
192.59	-0.000
192.80	-0.000
193.02	-0.000
193.23	-0.000
193.45	-0.000
193.66	-0.000
193.88	-0.000
194.09	-0.000
194.31	-0.000
194.52	-0.000
194.74	-0.000
194.95	-0.000
195.17	-0.000
195.38	-0.000
195.60	-0.000
195.81	-0.000
196.03	-0.000
196.25	-0.000
196.46	-0.000
196.68	-0.000
196.89	-0.000
197.11	-0.000
197.32	-0.000
197.54	-0.000
197.75	-0.000
197.97	-0.000
198.18	-0.000
198.40	-0.000
198.61	-0.000
198.83	-0.000
199.04	-0.000
199.26	-0.000
199.47	-0.000
199.69	-0.000
199.90	-0.000
200.12	-0.000
200.33	-0.000
200.55	-0.000
200.76	-0.000
200.98	-0.000
201.19	-0.000
201.41	-0.000
201.62	-0.000
201.84	-0.000
202.05	-0.000
202.27	-0.000
202.48	-0.000
202.70	-0.000
202.91	-0.000
203.13	-0.000
203.34	-0.000
203.56	-0.000
203.77	-0.000
203.99	-0.000
204.20	-0.000
204.42	-0.000
204.63	-0.000
204.85	-0.000
205.06	-0.000
205.28	-0.000
205.49	-0.000
205.71	-0.000
205.92	-0.000
206.14	-0.000
206.35	-0.000
206.56	-0.000
206.78	-0.000
206.99	-0.000
207.21	-0.000
207.42	-0.000
207.64	-0.000
207.85	-0.000
208.07	-0.000
208.28	-0.000
208.50	-0.000
208.71	-0.000
208.93	-0.000
209.14	-0.000
209.36	-0.000
209.57	-0.000
209.79	-0.000
210.00	-0.000
210.22	-0.000
210.43	-0.000
210.64	-0.000
210.86	-0.000
211.07	-0.000
211.29	-0.000
211.50	-0.000
211.72	-0.000
211.93	-0.000
212.15	-0.000
212.36	-0.000
212.58	-0.000
212.79	-0.000
213.01	-0.000
213.22	-0.000
213.43	-0.000
213.65	-0.000
213.86	-0.000
214.08	-0.000
214.29	-0.000
214.51	-0.000
214.72	-0.000
214.94	-0.000
215.15	-0.000
215.36	-0.000
215.58	-0.000
215.79	-0.000
216.01	-0.000
216.22	-0.000
216.44	-0.000
216.65	-0.000
216.87	-0.000
217.08	-0.000
217.29	-0.000
217.51	-0.000
217.72	-0.000
217.94	-0.000
218.15	-0.000
218.37	-0.000
218.58	-0.000
218.80	-0.000
219.01	-0.000
219.22	-0.000
219.44	-0.000
219.65	-0.000
219.87	-0.000
220.08	-0.000
220.30	-0.000
220.51	-0.000
220.72	-0.000
220.94	-0.000
221.15	-0.000
221.37	-0.000
221.58	-0.000
221.79	-0.000
222.01	-0.000
222.22	-0.000
222.44	-0.000
222.65	-0.000
222.87	-0.000
223.08	-0.000
223.29	-0.000
223.51	-0.000
223.72	-0.000
223.94	-0.000
224.15	-0.000
224.36	-0.000
224.58	-0.000
224.79	-0.000
225.01	-0.000
225.22	-0.000
225.44	-0.000
225.65	-0.000
225.86	-0.000
226.08	-0.000
226.29	-0.000
226.51	-0.000
226.72	-0.000
226.93	-0.000
227.15	-0.000
227.36	-0.000
227.58	-0.000
227.79	-0.000
228.00	-0.000
228.22	-0.000
228.43	-0.000
228.65	-0.000
228.86	-0.000
229.07	-0.000
229.29	-0.000
229.50	-0.000
229.72	-0.000
229.93	-0.000
230.14	-0.000
230.36	-0.000
230.57	-0.000
230.78	-0.000
231.00	-0.000
231.21	-0.000
231.43	-0.000
231.64	-0.000
231.85	-0.000
232.07	-0.000
232.28	-0.000
232.50	-0.000
232.71	-0.000
232.92	-0.000
233.14	-0.000
233.35	-0.000
233.56	-0.000
233.78	-0.000
233.99	-0.000
234.21	-0.000
234.42	-0.000
234.63	-0.000
234.85	-0.000
235.06	-0.000
235.27	-0.000
235.49	-0.000
235.70	-0.000
235.91	-0.000
236.13	-0.000
236.34	-0.000
236.56	-0.000
236.77	-0.000
236.98	-0.000
237.20	-0.000
237.41	-0.000
237.62	-0.000
237.84	-0.000
238.05	-0.000
238.26	-0.000
238.48	-0.000
238.69	-0.000
238.91	-0.000
239.12	-0.000
239.33	-0.000
239.55	-0.000
239.76	-0.000
239.97	-0.000
240.19	-0.000
240.40	-0.000
240.61	-0.000
240.83	-0.000
241.04	-0.000
241.25	-0.000
241.47	-0.000
241.68	-0.000
241.89	-0.000
242.11	-0.000
242.32	-0.000
242.53	-0.000
242.75	-0.000
242.96	-0.000
243.17	-0.000
243.39	-0.000
243.60	-0.000
243.81	-0.000
244.03	-0.000
244.24	-0.000
244.45	-0.000
244.67	-0.000
244.88	-0.000
245.09	-0.000
245.31	-0.000
245.52	-0.000
245.73	-0.000
245.95	-0.000
246.16	-0.000
246.37	-0.000
246.59	-0.000
246.80	-0.000
247.01	-0.000
247.23	-0.000
247.44	-0.000
247.65	-0.000
247.87	-0.000
248.08	-0.000
248.29	-0.000
248.51	-0.000
248.72	-0.000
248.93	-0.000
249.15	-0.000
249.36	-0.000
249.57	-0.000
249.78	-0.000
250.00	-0.000
250.21	-0.000
250.42	-0.000
250.64	-0.000
250.85	-0.000
251.06	-0.000
251.28	-0.000
251.49	-0.000
251.70	-0.000
251.92	-0.000
252.13	-0.000
252.34	-0.000
252.55	-0.000
252.77	-0.000
252.98	-0.000
253.19	-0.000
253.41	-0.000
253.62	-0.000
253.83	-0.000
254.05	-0.000
254.26	-0.000
254.47	-0.000
254.68	-0.000
254.90	-0.000
255.11	-0.000
255.32	-0.000
255.54	-0.000
255.75	-0.000
255.96	-0.000
256.17	-0.000
256.39	-0.000
256.60	-0.000
256.81	-0.000
257.03	-0.000
257.24	-0.000
257.45	-0.000
257.66	-0.000
257.88	-0.000
258.09	-0.000
258.30	-0.000
258.51	-0.000
258.73	-0.000
258.94	-0.000
259.15	-0.000
259.37	-0.000
259.58	-0.000
259.79	-0.000
260.00	-0.000
260.22	-0.000
260.43	-0.000
260.64	-0.000
260.85	-0.000
261.07	-0.000
261.28	-0.000
261.49	-0.000
261.71	-0.000
261.92	-0.000
262.13	-0.000
262.34	-0.000
262.56	-0.000
262.77	-0.000
262.98	-0.000
263.19	-0.000
263.41	-0.000
263.62	-0.000
263.83	-0.000
264.04	-0.000
264.26	-0.000
264.47	-0.000
264.68	-0.000
264.89	-0.000
265.11	-0.000
265.32	-0.000
265.53	-0.000
265.74	-0.000
265.96	-0.000
266.17	-0.000
266.38	-0.000
266.59	-0.000
266.81	-0.000
267.02	-0.000
267.23	-0.000
267.44	-0.000
267.65	-0.000
267.87	-0.000
268.08	-0.000
268.29	-0.000
268.50	-0.000
268.72	-0.000
268.93	-0.000
269.14	-0.000
269.35	-0.000
269.57	-0.000
269.78	-0.000
269.99	-0.000
270.20	-0.000
270.41	-0.000
270.63	-0.000
270.84	-0.000
271.05	-0.000
271.26	-0.000
271.48	-0.000
271.69	-0.000
271.90	-0.000
272.11	-0.000
272.32	-0.000
272.54	-0.000
272.75	-0.000
272.96	-0.000
273.17	-0.000
273.39	-0.000
273.60	-0.000
273.81	-0.000
274.02	-0.000
274.23	-0.000
274.45	-0.000
274.66	-0.000
274.87	-0.000
275.08	-0.000
275.29	-0.000
275.51	-0.000
275.72	-0.000
275.93	-0.000
276.14	-0.000
276.35	-0.000
276.57	-0.000
276.78	-0.000
276.99	-0.000
277.20	-0.000
277.41	-0.000
277.63	-0.000
277.84	-0.000
278.05	-0.000
278.26	-0.000
278.47	-0.000
278.69	-0.000
278.90	-0.000
279.11	-0.000
279.32	-0.000
279.53	-0.000
279.74	-0.000
279.96	-0.000
280.17	-0.000
280.38	-0.000
280.59	-0.000
280.80	-0.000
281.02	-0.000
281.23	-0.000
281.44	-0.000
281.65	-0.000
281.86	-0.000
282.07	-0.000
282.29	-0.000
282.50	-0.000
282.71	-0.000
282.92	-0.000
283.13	-0.000
283.35	-0.000
283.56	-0.000
283.77	-0.000
283.98	-0.000
284.19	-0.000
284.40	-0.000
284.62	-0.000
284.83	-0.000
285.04	-0.000
285.25	-0.000
285.46	-0.000
285.67	-0.000
285.88	-0.000
286.10	-0.000
286.31	-0.000
286.52	-0.000
286.73	-0.000
286.94	-0.000
287.15	-0.000
287.37	-0.000
287.58	-0.000
287.79	-0.000
288.00	-0.000
288.21	-0.000
288.42	-0.000
288.63	-0.000
288.85	-0.000
289.06	-0.000
289.27	-0.000
289.48	-0.000
289.69	-0.000
289.90	-0.000
290.11	-0.000
290.33	-0.000
290.54	-0.000
290.75	-0.000
290.96	-0.000
291.17	-0.000
291.38	-0.000
291.59	-0.000
291.81	-0.000
292.02	-0.000
292.23	-0.000
292.44	-0.000
292.65	-0.000
292.86	-0.000
293.07	-0.000
293.28	-0.000
293.50	-0.000
293.71	-0.000
293.92	-0.000
294.13	-0.000
294.34	-0.000
294.55	-0.000
294.76	-0.000
294.97	-0.000
295.19	-0.000
295.40	-0.000
295.61	-0.000
295.82	-0.000
296.03	-0.000
296.24	-0.000
296.45	2.132
296.66	1.786
296.87	1.800
297.09	1.857
297.30	2.071
297.51	1.714
297.72	1.676
297.93	1.747
298.14	1.725
298.35	1.686
298.56	1.674
298.77	1.777
298.99	1.747
299.20	1.733
299.41	1.715
299.62	1.658
299.83	1.647
300.04	1.599
300.25	1.596
300.46	1.621
300.67	1.598
300.88	1.542
301.10	1.553
301.31	1.621
301.52	1.556
301.73	1.503
301.94	1.507
302.15	1.513
302.36	1.466
302.57	1.412
302.78	1.418
302.99	1.454
303.20	1.473
303.41	1.388
303.63	1.371
303.84	1.376
304.05	1.373
304.26	1.320
304.47	1.329
304.68	1.328
304.89	1.315
305.10	1.278
305.31	1.264
305.52	1.309
305.73	1.302
305.94	1.267
306.15	1.260
306.37	1.281
306.58	1.288
306.79	1.260
307.00	1.283
307.21	1.324
307.42	1.319
307.63	1.286
307.84	1.251
308.05	1.283
308.26	1.283
308.47	1.261
308.68	1.253
308.89	1.250
309.10	1.247
309.31	1.209
309.52	1.201
309.73	1.215
309.95	1.210
310.16	1.182
310.37	1.173
310.58	1.187
310.79	1.185
311.00	1.186
311.21	1.189
311.42	1.189
311.63	1.187
311.84	1.168
312.05	1.165
312.26	1.185
312.47	1.196
312.68	1.177
312.89	1.161
313.10	1.166
313.31	1.139
313.52	1.141
313.73	1.140
313.94	1.140
314.15	1.125
314.36	1.107
314.57	1.099
314.78	1.086
314.99	1.080
315.21	1.069
315.42	1.075
315.63	1.085
315.84	1.064
316.05	1.052
316.26	1.060
316.47	1.075
316.68	1.069
316.89	1.053
317.10	1.072
317.31	1.075
317.52	1.078
317.73	1.057
317.94	1.056
318.15	1.096
318.36	1.097
318.57	1.079
318.78	1.068
318.99	1.099
319.20	1.097
319.41	1.065
319.62	1.068
319.83	1.080
320.04	1.074
320.25	1.063
320.46	1.031
320.67	1.033
320.88	1.030
321.09	1.017
321.30	1.004
321.51	1.018
321.72	1.017
321.93	1.001
322.14	0.994
322.35	1.020
322.56	1.022
322.77	1.011
322.98	1.021
323.19	1.029
323.40	1.037
323.61	1.019
323.82	1.013
324.03	1.017
324.24	1.015
324.45	1.003
324.66	0.986
324.87	0.982
325.08	0.983
325.29	0.963
325.50	0.956
325.71	0.958
325.92	0.964
326.13	0.953
326.34	0.954
326.55	0.962
326.76	0.961
326.97	0.951
327.18	0.946
327.39	0.969
327.60	0.970
327.80	0.970
328.01	0.970
328.22	0.969
328.43	0.972
328.64	0.960
328.85	0.963
329.06	0.964
329.27	0.964
329.48	0.959
329.69	0.940
329.90	0.951
330.11	0.944
330.32	0.939
330.53	0.933
330.74	0.930
330.95	0.929
331.16	0.916
331.37	0.923
331.58	0.923
331.79	0.924
332.00	0.916
332.21	0.909
332.42	0.913
332.63	0.903
332.83	0.901
333.04	0.904
333.25	0.916
333.46	0.914
333.67	0.901
333.88	0.902
334.09	0.911
334.30	0.908
334.51	0.900
334.72	0.895
334.93	0.897
335.14	0.895
335.35	0.889
335.56	0.885
335.77	0.893
335.98	0.892
336.18	0.886
336.39	0.878
336.60	0.881
336.81	0.880
337.02	0.881
337.23	0.886
337.44	0.888
337.65	0.889
337.86	0.879
338.07	0.875
338.28	0.879
338.49	0.876
338.70	0.871
338.91	0.877
339.11	0.883
339.32	0.880
339.53	0.868
339.74	0.865
339.95	0.862
340.16	0.860
340.37	0.852
340.58	0.850
340.79	0.853
341.00	0.854
341.21	0.843
341.41	0.843
341.62	0.843
341.83	0.845
342.04	0.841
342.25	0.851
342.46	0.855
342.67	0.854
342.88	0.848
343.09	0.848
343.30	0.854
343.50	0.857
343.71	0.849
343.92	0.848
344.13	0.851
344.34	0.851
344.55	0.835
344.76	0.834
344.97	0.838
345.18	0.836
345.38	0.833
345.59	0.827
345.80	0.827
346.01	0.825
346.22	0.821
346.43	0.815
346.64	0.823
346.85	0.822
347.06	0.816
347.26	0.817
347.47	0.820
347.68	0.816
347.89	0.813
348.10	0.807
348.31	0.813
348.52	0.812
348.73	0.811
348.93	0.808
349.14	0.809
349.35	0.807
349.56	0.801
349.77	0.796
349.98	0.801
350.19	0.798
350.39	0.794
350.60	0.791
350.81	0.806
351.02	0.804
351.23	0.800
351.44	0.804
351.65	0.807
351.86	0.805
352.06	0.804
352.27	0.804
352.48	0.805
352.69	0.805
352.90	0.800
353.11	0.787
353.31	0.794
353.52	0.789
353.73	0.781
353.94	0.783
354.15	0.788
354.36	0.789
354.57	0.780
354.77	0.783
354.98	0.782
355.19	0.781
355.40	0.781
355.61	0.786
355.82	0.790
356.02	0.789
356.23	0.782
356.44	0.784
356.65	0.786
356.86	0.787
357.07	0.780
357.27	0.783
357.48	0.785
357.69	0.782
357.90	0.767
358.11	0.763
358.32	0.766
358.52	0.769
358.73	0.759
358.94	0.762
359.15	0.766
359.36	0.766
359.56	0.762
359.77	0.759
359.98	0.765
360.19	0.765
360.40	0.763
360.61	0.764
360.81	0.763
361.02	0.763
361.23	0.755
361.44	0.753
361.65	0.754
361.85	0.754
362.06	0.753
362.27	0.754
362.48	0.754
362.69	0.756
362.89	0.750
363.10	0.751
363.31	0.755
363.52	0.759
363.73	0.754
363.93	0.754
364.14	0.756
364.35	0.757
364.56	0.747
364.77	0.750
364.97	0.752
365.18	0.752
365.39	0.747
365.60	0.745
365.81	0.745
366.01	0.746
366.22	0.743
366.43	0.742
366.64	0.744
366.84	0.749
367.05	0.746
367.26	0.745
367.47	0.747
367.68	0.746
367.88	0.744
368.09	0.742
368.30	0.743
368.51	0.742
368.71	0.741
368.92	0.745
369.13	0.743
369.34	0.743
369.55	0.742
369.75	0.742
369.96	0.748
370.17	0.748
370.38	0.744
370.58	0.744
370.79	0.749
371.00	0.748
371.21	0.739
371.41	0.745
371.62	0.748
371.83	0.744
372.04	0.741
372.24	0.735
372.45	0.736
372.66	0.737
372.87	0.734
373.07	0.731
373.28	0.730
373.49	0.734
373.70	0.725
373.90	0.724
374.11	0.732
374.32	0.732
374.53	0.732
374.73	0.732
374.94	0.735
375.15	0.734
375.36	0.732
375.56	0.741
375.77	0.740
375.98	0.740
376.19	0.738
376.39	0.733
376.60	0.736
376.81	0.736
377.02	0.734
377.22	0.733
377.43	0.733
377.64	0.733
377.84	0.725
378.05	0.730
378.26	0.736
378.47	0.736
378.67	0.733
378.88	0.729
379.09	0.730
379.30	0.730
379.50	0.728
379.71	0.729
379.92	0.732
380.12	0.732
380.33	0.724
380.54	0.721
380.75	0.727
380.95	0.727
381.16	0.726
381.37	0.727
381.57	0.728
381.78	0.728
381.99	0.729
382.20	0.727
382.40	0.729
382.61	0.730
382.82	0.727
383.02	0.720
383.23	0.724
383.44	0.723
383.64	0.722
383.85	0.724
384.06	0.727
384.27	0.725
384.47	0.724
384.68	0.724
384.89	0.729
385.09	0.729
385.30	0.729
385.51	0.728
385.71	0.731
385.92	0.732
386.13	0.731
386.33	0.733
386.54	0.734
386.75	0.733
386.95	0.730
387.16	0.725
387.37	0.728
387.58	0.727
387.78	0.726
387.99	0.724
388.20	0.725
388.40	0.722
388.61	0.718
388.82	0.721
389.02	0.723
389.23	0.723
389.44	0.722
389.64	0.722
389.85	0.733
390.06	0.733
390.26	0.734
390.47	0.734
390.68	0.736
390.88	0.734
391.09	0.729
391.30	0.729
391.50	0.729
391.71	0.728
391.92	0.725
392.12	0.717
392.33	0.718
392.53	0.717
392.74	0.718
392.95	0.717
393.15	0.720
393.36	0.722
393.57	0.720
393.77	0.722
393.98	0.724
394.19	0.725
394.39	0.725
394.60	0.726
394.81	0.728
395.01	0.726
395.22	0.726
395.43	0.727
395.63	0.732
395.84	0.733
396.04	0.730
396.25	0.732
396.46	0.734
396.66	0.732
396.87	0.730
397.08	0.727
397.28	0.728
397.49	0.729
397.69	0.726
397.90	0.720
398.11	0.722
398.31	0.722
398.52	0.719
398.73	0.720
398.93	0.719
399.14	0.719
399.34	0.718
399.55	0.719
399.76	0.719
399.96	0.720
400.17	0.719
400.37	0.717
400.58	0.724
400.79	0.726
400.99	0.723
401.20	0.728
401.41	0.731
401.61	0.732
401.82	0.737
402.02	0.737
402.23	0.739
402.44	0.739
402.64	0.739
402.85	0.733
403.05	0.731
403.26	0.731
403.47	0.725
403.67	0.725
403.88	0.725
404.08	0.720
404.29	0.718
404.50	0.717
404.70	0.718
404.91	0.716
405.11	0.714
405.32	0.714
405.52	0.714
405.73	0.714
405.94	0.711
406.14	0.713
406.35	0.715
406.55	0.715
406.76	0.714
406.97	0.715
407.17	0.717
407.38	0.717
407.58	0.716
407.79	0.719
407.99	0.720
408.20	0.721
408.41	0.718
408.61	0.715
408.82	0.716
409.02	0.715
409.23	0.713
409.43	0.712
409.64	0.714
409.84	0.713
410.05	0.709
410.26	0.708
410.46	0.707
410.67	0.706
410.87	0.708
411.08	0.710
411.28	0.712
411.49	0.713
411.69	0.711
411.90	0.713
412.11	0.715
412.31	0.716
412.52	0.715
412.72	0.716
412.93	0.717
413.13	0.715
413.34	0.712
413.54	0.713
413.75	0.715
413.95	0.715
414.16	0.712
414.37	0.714
414.57	0.715
414.78	0.717
414.98	0.715
415.19	0.716
415.39	0.713
415.60	0.715
415.80	0.715
416.01	0.712
416.21	0.714
416.42	0.713
416.62	0.708
416.83	0.709
417.03	0.708
417.24	0.708
417.44	0.705
417.65	0.705
417.86	0.705
418.06	0.703
418.27	0.702
418.47	0.704
418.68	0.704
418.88	0.704
419.09	0.702
419.29	0.703
419.50	0.704
419.70	0.704
419.91	0.703
420.11	0.701
420.32	0.703
420.52	0.702
420.73	0.701
420.93	0.702
421.14	0.703
421.34	0.702
421.55	0.699
421.75	0.699
421.96	0.699
422.16	0.699
422.37	0.698
422.57	0.696
422.78	0.697
422.98	0.694
423.19	0.692
423.39	0.690
423.60	0.694
423.80	0.695
424.01	0.694
424.21	0.696
424.42	0.697
424.62	0.697
424.83	0.696
425.03	0.696
425.23	0.698
425.44	0.698
425.64	0.699
425.85	0.697
426.05	0.697
426.26	0.698
426.46	0.694
426.67	0.693
426.87	0.698
427.08	0.699
427.28	0.697
427.49	0.699
427.69	0.699
427.90	0.698
428.10	0.696
428.31	0.696
428.51	0.697
428.71	0.696
428.92	0.697
429.12	0.694
429.33	0.694
429.53	0.698
429.74	0.703
429.94	0.703
430.15	0.702
430.35	0.702
430.56	0.699
430.76	0.699
430.96	0.699
431.17	0.696
431.37	0.693
431.58	0.691
431.78	0.688
431.99	0.680
432.19	0.682
432.40	0.684
432.60	0.685
432.80	0.687
433.01	0.685
433.21	0.686
433.42	0.688
433.62	0.689
433.83	0.689
434.03	0.691
434.23	0.694
434.44	0.692
434.64	0.690
434.85	0.695
435.05	0.696
435.26	0.696
435.46	0.695
435.66	0.695
435.87	0.694
436.07	0.693
436.28	0.690
436.48	0.687
436.69	0.687
436.89	0.686
437.09	0.680
437.30	0.678
437.50	0.678
437.71	0.690
437.91	0.689
438.11	0.690
438.32	0.694
438.52	0.694
438.73	0.693
438.93	0.691
439.13	0.691
439.34	0.695
439.54	0.693
439.75	0.693
439.95	0.683
440.15	0.688
440.36	0.686
440.56	0.683
440.77	0.685
440.97	0.684
441.17	0.683
441.38	0.684
441.58	0.681
441.79	0.680
441.99	0.679
442.19	0.678
442.40	0.675
442.60	0.675
442.81	0.673
443.01	0.673
443.21	0.673
443.42	0.673
443.62	0.671
443.82	0.671
444.03	0.673
444.23	0.673
444.44	0.673
444.64	0.671
444.84	0.673
445.05	0.673
445.25	0.671
445.45	0.671
445.66	0.673
445.86	0.672
446.06	0.673
446.27	0.672
446.47	0.675
446.68	0.674
446.88	0.673
447.08	0.672
447.29	0.674
447.49	0.674
447.69	0.674
447.90	0.672
448.10	0.676
448.30	0.673
448.51	0.675
448.71	0.672
448.91	0.674
449.12	0.673
449.32	0.674
449.52	0.672
449.73	0.676
449.93	0.675
450.14	0.676
450.34	0.675
450.54	0.677
450.75	0.674
450.95	0.674
451.15	0.673
451.36	0.675
451.56	0.673
451.76	0.672
451.97	0.670
452.17	0.670
452.37	0.669
452.58	0.665
452.78	0.664
452.98	0.666
453.19	0.665
453.39	0.666
453.59	0.665
453.79	0.665
454.00	0.665
454.20	0.664
454.40	0.664
454.61	0.666
454.81	0.667
455.01	0.665
455.22	0.666
455.42	0.668
455.62	0.666
455.83	0.665
456.03	0.668
456.23	0.669
456.44	0.670
456.64	0.669
456.84	0.669
457.04	0.670
457.25	0.669
457.45	0.666
457.65	0.665
457.86	0.666
458.06	0.665
458.26	0.661
458.47	0.660
458.67	0.660
458.87	0.660
459.07	0.657
459.28	0.659
459.48	0.661
459.68	0.661
459.89	0.660
460.09	0.659
460.29	0.661
460.49	0.662
460.70	0.661
460.90	0.661
461.10	0.662
461.31	0.662
461.51	0.659
461.71	0.661
461.91	0.662
462.12	0.662
462.32	0.661
462.52	0.661
462.72	0.663
462.93	0.664
463.13	0.663
463.33	0.664
463.53	0.665
463.74	0.665
463.94	0.661
464.14	0.662
464.35	0.663
464.55	0.663
464.75	0.661
464.95	0.659
465.16	0.661
465.36	0.660
465.56	0.658
465.76	0.658
465.97	0.657
466.17	0.657
466.37	0.656
466.57	0.656
466.78	0.656
466.98	0.656
467.18	0.655
467.38	0.653
467.59	0.655
467.79	0.657
467.99	0.655
468.19	0.657
468.39	0.659
468.60	0.659
468.80	0.658
469.00	0.660
469.20	0.660
469.41	0.660
469.61	0.659
469.81	0.659
470.01	0.659
470.22	0.659
470.42	0.657
470.62	0.656
470.82	0.657
471.02	0.656
471.23	0.655
471.43	0.656
471.63	0.657
471.83	0.657
472.04	0.656
472.24	0.655
472.44	0.660
472.64	0.661
472.84	0.658
473.05	0.658
473.25	0.661
473.45	0.660
473.65	0.658
473.85	0.658
474.06	0.659
474.26	0.659
474.46	0.660
474.66	0.656
474.86	0.657
475.07	0.658
475.27	0.656
475.47	0.654
475.67	0.654
475.87	0.656
476.08	0.652
476.28	0.654
476.48	0.655
476.68	0.653
476.88	0.651
477.09	0.653
477.29	0.654
477.49	0.654
477.69	0.653
477.89	0.653
478.09	0.652
478.30	0.654
478.50	0.652
478.70	0.651
478.90	0.652
479.10	0.654
479.31	0.655
479.51	0.653
479.71	0.655
479.91	0.655
480.11	0.654
480.31	0.654
480.52	0.653
480.72	0.653
480.92	0.653
481.12	0.652
481.32	0.649
481.52	0.647
481.72	0.647
481.93	0.650
482.13	0.651
482.33	0.650
482.53	0.649
482.73	0.650
482.93	0.651
483.14	0.650
483.34	0.649
483.54	0.650
483.74	0.649
483.94	0.648
484.14	0.644
484.34	0.644
484.55	0.645
484.75	0.644
484.95	0.642
485.15	0.641
485.35	0.641
485.55	0.641
485.75	0.639
485.96	0.640
486.16	0.641
486.36	0.640
486.56	0.639
486.76	0.638
486.96	0.639
487.16	0.638
487.36	0.636
487.57	0.636
487.77	0.636
487.97	0.637
488.17	0.635
488.37	0.634
488.57	0.634
488.77	0.634
488.97	0.633
489.18	0.632
489.38	0.635
489.58	0.635
489.78	0.635
489.98	0.635
490.18	0.635
490.38	0.635
490.58	0.634
490.78	0.635
490.98	0.636
491.19	0.637
491.39	0.637
491.59	0.636
491.79	0.639
491.99	0.640
492.19	0.640
492.39	0.643
492.59	0.643
492.79	0.645
492.99	0.646
493.20	0.646
493.40	0.645
493.60	0.646
493.80	0.645
494.00	0.642
494.20	0.642
494.40	0.642
494.60	0.639
494.80	0.643
495.00	0.642
495.20	0.640
495.40	0.638
495.61	0.640
495.81	0.640
496.01	0.644
496.21	0.645
496.41	0.644
496.61	0.645
496.81	0.644
497.01	0.639
497.21	0.638
497.41	0.639
497.61	0.638
497.81	0.636
498.01	0.636
498.21	0.634
498.41	0.632
498.61	0.632
498.82	0.633
499.02	0.636
499.22	0.636
499.42	0.636
499.62	0.637
499.82	0.638
500.02	0.639
500.22	0.638
500.42	0.640
500.62	0.641
500.82	0.641
501.02	0.639
501.22	0.639
501.42	0.639
501.62	0.641
501.82	0.641
502.02	0.641
502.22	0.641
502.42	0.642
502.62	0.640
502.82	0.640
503.02	0.641
503.22	0.640
503.42	0.638
503.63	0.638
503.83	0.636
504.03	0.634
504.23	0.633
504.43	0.633
504.63	0.634
504.83	0.634
505.03	0.633
505.23	0.635
505.43	0.637
505.63	0.638
505.83	0.637
506.03	0.639
506.23	0.641
506.43	0.641
506.63	0.639
506.83	0.638
507.03	0.640
507.23	0.640
507.43	0.637
507.63	0.637
507.83	0.638
508.03	0.638
508.23	0.638
508.43	0.637
508.63	0.638
508.83	0.639
509.03	0.640
509.23	0.639
509.43	0.640
509.63	0.640
509.83	0.639
510.03	0.641
510.23	0.643
510.43	0.643
510.63	0.643
510.83	0.643
511.03	0.644
511.23	0.642
511.43	0.642
511.63	0.643
511.83	0.646
512.03	0.646
512.22	0.643
512.42	0.642
512.62	0.643
512.82	0.642
513.02	0.641
513.22	0.641
513.42	0.643
513.62	0.646
513.82	0.643
514.02	0.643
514.22	0.644
514.42	0.645
514.62	0.645
514.82	0.645
515.02	0.648
515.22	0.650
515.42	0.649
515.62	0.652
515.82	0.650
516.02	0.652
516.22	0.652
516.42	0.653
516.62	0.654
516.82	0.656
517.01	0.654
517.21	0.653
517.41	0.657
517.61	0.657
517.81	0.653
518.01	0.652
518.21	0.652
518.41	0.651
518.61	0.650
518.81	0.651
519.01	0.651
519.21	0.651
519.41	0.650
519.61	0.645
519.81	0.647
520.00	0.648
520.20	0.649
520.40	0.652
520.60	0.652
520.80	0.651
521.00	0.652
521.20	0.652
521.40	0.658
521.60	0.658
521.80	0.658
522.00	0.658
522.20	0.660
522.39	0.659
522.59	0.656
522.79	0.658
522.99	0.660
523.19	0.658
523.39	0.656
523.59	0.653
523.79	0.656
523.99	0.658
524.19	0.658
524.38	0.656
524.58	0.657
524.78	0.658
524.98	0.656
525.18	0.658
525.38	0.659
525.58	0.659
525.78	0.657
525.98	0.655
526.18	0.655
526.37	0.654
526.57	0.657
526.77	0.657
526.97	0.658
527.17	0.658
527.37	0.654
527.57	0.656
527.77	0.658
527.96	0.658
528.16	0.658
528.36	0.659
528.56	0.661
528.76	0.659
528.96	0.658
529.16	0.659
529.36	0.662
529.55	0.662
529.75	0.659
529.95	0.659
530.15	0.661
530.35	0.662
530.55	0.659
530.75	0.659
530.94	0.661
531.14	0.661
531.34	0.659
531.54	0.657
531.74	0.660
531.94	0.663
532.13	0.662
532.33	0.664
532.53	0.663
532.73	0.662
532.93	0.661
533.13	0.662
533.33	0.663
533.52	0.663
533.72	0.666
533.92	0.665
534.12	0.663
534.32	0.663
534.52	0.661
534.71	0.663
534.91	0.666
535.11	0.668
535.31	0.666
535.51	0.667
535.71	0.669
535.90	0.667
536.10	0.668
536.30	0.670
536.50	0.671
536.70	0.671
536.89	0.668
537.09	0.668
537.29	0.669
537.49	0.669
537.69	0.668
537.89	0.668
538.08	0.668
538.28	0.666
538.48	0.666
538.68	0.667
538.88	0.668
539.07	0.668
539.27	0.666
539.47	0.665
539.67	0.666
539.87	0.667
540.06	0.664
540.26	0.665
540.46	0.667
540.66	0.665
540.86	0.662
541.05	0.663
541.25	0.665
541.45	0.665
541.65	0.664
541.84	0.665
542.04	0.665
542.24	0.666
542.44	0.666
542.64	0.667
542.83	0.670
543.03	0.670
543.23	0.668
543.43	0.668
543.62	0.669
543.82	0.670
544.02	0.669
544.22	0.669
544.42	0.672
544.61	0.672
544.81	0.669
545.01	0.669
545.21	0.671
545.40	0.671
545.60	0.669
545.80	0.672
546.00	0.672
546.19	0.671
546.39	0.670
546.59	0.668
546.79	0.669
546.98	0.669
547.18	0.669
547.38	0.670
547.58	0.672
547.77	0.672
547.97	0.669
548.17	0.670
548.37	0.670
548.56	0.671
548.76	0.671
548.96	0.672
549.16	0.675
549.35	0.674
549.55	0.672
549.75	0.672
549.95	0.675
550.14	0.675
550.34	0.674
550.54	0.679
550.73	0.682
550.93	0.682
551.13	0.680
551.33	0.677
551.52	0.678
551.72	0.680
551.92	0.679
552.12	0.679
552.31	0.680
552.51	0.680
552.71	0.675
552.90	0.675
553.10	0.676
553.30	0.675
553.50	0.676
553.69	0.677
553.89	0.677
554.09	0.676
554.28	0.673
554.48	0.674
554.68	0.676
554.87	0.676
555.07	0.673
555.27	0.673
555.47	0.675
555.66	0.675
555.86	0.674
556.06	0.676
556.25	0.677
556.45	0.684
556.65	0.683
556.84	0.687
557.04	0.690
557.24	0.692
557.43	0.692
557.63	0.695
557.83	0.696
558.02	0.696
558.22	0.700
558.42	0.701
558.61	0.694
558.81	0.695
559.01	0.690
559.21	0.689
559.40	0.690
559.60	0.690
559.80	0.686
559.99	0.688
560.19	0.690
560.39	0.684
560.58	0.682
560.78	0.682
560.97	0.685
561.17	0.684
561.37	0.683
561.56	0.684
561.76	0.685
561.96	0.684
562.15	0.682
562.35	0.684
562.55	0.686
562.74	0.685
562.94	0.684
563.14	0.682
563.33	0.683
563.53	0.683
563.73	0.681
563.92	0.682
564.12	0.685
564.31	0.686
564.51	0.685
564.71	0.687
564.90	0.690
565.10	0.691
565.30	0.693
565.49	0.694
565.69	0.696
565.89	0.697
566.08	0.695
566.28	0.697
566.47	0.699
566.67	0.697
566.87	0.694
567.06	0.696
567.26	0.702
567.46	0.698
567.65	0.697
567.85	0.698
568.04	0.701
568.24	0.699
568.44	0.696
568.63	0.694
568.83	0.695
569.02	0.694
569.22	0.690
569.42	0.686
569.61	0.688
569.81	0.687
570.00	0.685
570.20	0.686
570.40	0.687
570.59	0.687
570.79	0.685
570.98	0.684
571.18	0.685
571.38	0.685
571.57	0.682
571.77	0.680
571.96	0.683
572.16	0.681
572.35	0.676
572.55	0.677
572.75	0.674
572.94	0.674
573.14	0.673
573.33	0.672
573.53	0.673
573.73	0.672
573.92	0.671
574.12	0.669
574.31	0.671
574.51	0.671
574.70	0.669
574.90	0.671
575.09	0.672
575.29	0.673
575.49	0.670
575.68	0.671
575.88	0.671
576.07	0.673
576.27	0.671
576.46	0.669
576.66	0.669
576.86	0.668
577.05	0.666
577.25	0.665
577.44	0.666
577.64	0.666
577.83	0.665
578.03	0.666
578.22	0.666
578.42	0.665
578.61	0.664
578.81	0.664
579.00	0.664
579.20	0.664
579.40	0.663
579.59	0.662
579.79	0.662
579.98	0.661
580.18	0.661
580.37	0.660
580.57	0.662
580.76	0.667
580.96	0.666
581.15	0.667
581.35	0.668
581.54	0.668
581.74	0.667
581.93	0.669
582.13	0.670
582.32	0.667
582.52	0.665
582.71	0.665
582.91	0.660
583.10	0.661
583.30	0.659
583.49	0.658
583.69	0.662
583.88	0.663
584.08	0.661
584.27	0.664
584.47	0.667
584.66	0.668
584.86	0.668
585.05	0.670
585.25	0.672
585.44	0.671
585.64	0.671
585.83	0.668
586.03	0.668
586.22	0.666
586.42	0.663
586.61	0.664
586.81	0.666
587.00	0.665
587.20	0.663
587.39	0.663
587.59	0.665
587.78	0.666
587.98	0.667
588.17	0.668
588.37	0.670
588.56	0.672
588.76	0.668
588.95	0.668
589.15	0.673
589.34	0.675
589.54	0.674
589.73	0.675
589.92	0.678
590.12	0.678
590.31	0.675
590.51	0.680
590.70	0.682
590.90	0.682
591.09	0.681
591.29	0.679
591.48	0.679
591.68	0.680
591.87	0.678
592.06	0.677
592.26	0.679
592.45	0.679
592.65	0.673
592.84	0.672
593.04	0.674
593.23	0.676
593.43	0.674
593.62	0.674
593.81	0.673
594.01	0.672
594.20	0.670
594.40	0.669
594.59	0.671
594.79	0.672
594.98	0.671
595.17	0.670
595.37	0.671
595.56	0.673
595.76	0.672
595.95	0.674
596.14	0.677
596.34	0.678
596.53	0.677
596.73	0.679
596.92	0.680
597.12	0.683
597.31	0.683
597.50	0.683
597.70	0.685
597.89	0.685
598.09	0.682
598.28	0.683
598.47	0.685
598.67	0.684
598.86	0.680
599.06	0.682
599.25	0.682
599.44	0.680
599.64	0.676
599.83	0.674
600.03	0.676
600.22	0.676
600.41	0.676
600.61	0.674
600.80	0.676
601.00	0.676
601.19	0.672
601.38	0.670
601.58	0.672
601.77	0.674
601.96	0.676
602.16	0.676
602.35	0.684
602.55	0.681
602.74	0.683
602.93	0.684
603.13	0.689
603.32	0.691
603.51	0.691
603.71	0.694
603.90	0.696
604.09	0.697
604.29	0.694
604.48	0.689
604.68	0.690
604.87	0.688
605.06	0.686
605.26	0.682
605.45	0.682
605.64	0.682
605.84	0.677
606.03	0.676
606.22	0.675
606.42	0.674
606.61	0.672
606.80	0.671
607.00	0.672
607.19	0.672
607.38	0.671
607.58	0.673
607.77	0.675
607.96	0.675
608.16	0.674
608.35	0.678
608.54	0.681
608.74	0.683
608.93	0.689
609.12	0.692
609.32	0.694
609.51	0.698
609.70	0.696
609.90	0.698
610.09	0.702
610.28	0.708
610.48	0.701
610.67	0.703
610.86	0.704
611.06	0.697
611.25	0.696
611.44	0.697
611.64	0.697
611.83	0.699
612.02	0.696
612.21	0.695
612.41	0.693
612.60	0.693
612.79	0.689
612.99	0.689
613.18	0.692
613.37	0.689
613.57	0.687
613.76	0.688
613.95	0.685
614.14	0.685
614.34	0.682
614.53	0.683
614.72	0.685
614.92	0.685
615.11	0.682
615.30	0.679
615.49	0.679
615.69	0.681
615.88	0.678
616.07	0.680
616.26	0.681
616.46	0.682
616.65	0.680
616.84	0.679
617.04	0.680
617.23	0.683
617.42	0.684
617.61	0.687
617.81	0.688
618.00	0.690
618.19	0.689
618.38	0.693
618.58	0.695
618.77	0.697
618.96	0.696
619.15	0.698
619.35	0.699
619.54	0.700
619.73	0.696
619.92	0.697
620.12	0.701
620.31	0.702
620.50	0.697
620.69	0.697
620.89	0.700
621.08	0.700
621.27	0.702
621.46	0.701
621.66	0.705
621.85	0.705
622.04	0.702
622.23	0.703
622.43	0.704
622.62	0.703
622.81	0.703
623.00	0.703
623.19	0.707
623.39	0.704
623.58	0.701
623.77	0.700
623.96	0.702
624.16	0.701
624.35	0.696
624.54	0.699
624.73	0.702
624.92	0.700
625.12	0.697
625.31	0.698
625.50	0.701
625.69	0.702
625.88	0.700
626.08	0.699
626.27	0.701
626.46	0.701
626.65	0.698
626.84	0.698
627.04	0.702
627.23	0.703
627.42	0.699
627.61	0.700
627.80	0.702
628.00	0.702
628.19	0.702
628.38	0.706
628.57	0.707
628.76	0.707
628.96	0.704
629.15	0.706
629.34	0.708
629.53	0.708
629.72	0.703
629.91	0.703
630.11	0.708
630.30	0.707
630.49	0.710
630.68	0.710
630.87	0.713
631.06	0.716
631.26	0.712
631.45	0.713
631.64	0.720
631.83	0.722
632.02	0.720
632.21	0.718
632.41	0.725
632.60	0.719
632.79	0.718
632.98	0.719
633.17	0.718
633.36	0.720
633.55	0.718
633.75	0.714
633.94	0.716
634.13	0.716
634.32	0.714
634.51	0.708
634.70	0.709
634.89	0.709
635.09	0.705
635.28	0.705
635.47	0.706
635.66	0.708
635.85	0.704
636.04	0.704
636.23	0.708
636.43	0.710
636.62	0.709
636.81	0.708
637.00	0.709
637.19	0.713
637.38	0.711
637.57	0.710
637.76	0.711
637.95	0.712
638.15	0.709
638.34	0.706
638.53	0.709
638.72	0.711
638.91	0.709
639.10	0.709
639.29	0.709
639.48	0.710
639.67	0.711
639.87	0.711
640.06	0.716
640.25	0.716
640.44	0.718
640.63	0.718
640.82	0.720
641.01	0.719
641.20	0.719
641.39	0.719
641.58	0.720
641.78	0.719
641.97	0.716
642.16	0.729
642.35	0.730
642.54	0.727
642.73	0.721
642.92	0.719
643.11	0.723
643.30	0.723
643.49	0.719
643.68	0.721
643.87	0.722
644.06	0.722
644.25	0.702
644.45	0.705
644.64	0.706
644.83	0.708
645.02	0.705
645.21	0.704
645.40	0.705
645.59	0.704
645.78	0.699
645.97	0.702
646.16	0.703
646.35	0.703
646.54	0.701
646.73	0.703
646.92	0.704
647.11	0.704
647.30	0.701
647.49	0.703
647.68	0.702
647.88	0.700
648.07	0.694
648.26	0.699
648.45	0.700
648.64	0.696
648.83	0.694
649.02	0.695
649.21	0.706
649.40	0.705
649.59	0.700
649.78	0.701
649.97	0.714
650.16	0.713
650.35	0.706
650.54	0.709
650.73	0.717
650.92	0.713
651.11	0.707
651.30	0.704
651.49	0.707
651.68	0.708
651.87	0.705
652.06	0.695
652.25	0.698
652.44	0.702
652.63	0.700
652.82	0.702
653.01	0.703
653.20	0.702
653.39	0.691
653.58	0.689
653.77	0.689
653.96	0.684
654.15	0.677
654.34	0.675
654.53	0.670
654.72	0.663
654.91	0.653
655.10	0.648
655.29	0.646
655.48	0.644
655.67	0.638
655.86	0.636
656.05	0.634
656.24	0.633
656.43	0.629
656.62	0.627
656.81	0.627
657.00	0.624
657.19	0.621
657.38	0.620
657.57	0.618
657.76	0.620
657.95	0.617
658.14	0.620
658.33	0.622
658.51	0.626
658.70	0.626
658.89	0.628
659.08	0.638
659.27	0.646
659.46	0.647
659.65	0.654
659.84	0.657
660.03	0.661
660.22	0.662
660.41	0.666
660.60	0.666
660.79	0.667
660.98	0.673
661.17	0.672
661.36	0.671
661.55	0.672
661.74	0.670
661.92	0.672
662.11	0.674
662.30	0.673
662.49	0.667
662.68	0.667
662.87	0.670
663.06	0.664
663.25	0.666
663.44	0.666
663.63	0.666
663.82	0.665
664.01	0.660
664.20	0.659
664.38	0.660
664.57	0.661
664.76	0.661
664.95	0.661
665.14	0.665
665.33	0.660
665.52	0.667
665.71	0.672
665.90	0.671
666.09	0.673
666.28	0.671
666.46	0.670
666.65	0.670
666.84	0.669
667.03	0.663
667.22	0.662
667.41	0.664
667.60	0.654
667.79	0.647
667.98	0.649
668.16	0.649
668.35	0.649
668.54	0.646
668.73	0.647
668.92	0.647
669.11	0.646
669.30	0.640
669.49	0.637
669.67	0.639
669.86	0.640
670.05	0.638
670.24	0.635
670.43	0.633
670.62	0.632
670.81	0.627
671.00	0.628
671.18	0.628
671.37	0.627
671.56	0.625
671.75	0.624
671.94	0.620
672.13	0.619
672.32	0.615
672.50	0.614
672.69	0.614
672.88	0.614
673.07	0.610
673.26	0.612
673.45	0.613
673.63	0.612
673.82	0.609
674.01	0.612
674.20	0.612
674.39	0.611
674.58	0.611
674.76	0.611
674.95	0.610
675.14	0.609
675.33	0.605
675.52	0.604
675.71	0.603
675.89	0.603
676.08	0.598
676.27	0.598
676.46	0.598
676.65	0.597
676.84	0.597
677.02	0.598
677.21	0.600
677.40	0.599
677.59	0.596
677.78	0.597
677.96	0.599
678.15	0.599
678.34	0.597
678.53	0.598
678.72	0.598
678.90	0.595
679.09	0.591
679.28	0.588
679.47	0.588
679.66	0.588
679.84	0.586
680.03	0.583
680.22	0.581
680.41	0.582
680.60	0.579
680.78	0.579
680.97	0.581
681.16	0.581
681.35	0.580
681.53	0.578
681.72	0.579
681.91	0.580
682.10	0.579
682.29	0.582
682.47	0.579
682.66	0.578
682.85	0.576
683.04	0.574
683.22	0.574
683.41	0.576
683.60	0.575
683.79	0.576
683.97	0.575
684.16	0.574
684.35	0.570
684.54	0.572
684.72	0.573
684.91	0.573
685.10	0.572
685.29	0.573
685.47	0.569
685.66	0.569
685.85	0.565
686.04	0.564
686.22	0.566
686.41	0.569
686.60	0.565
686.79	0.569
686.97	0.570
687.16	0.571
687.35	0.568
687.54	0.572
687.72	0.576
687.91	0.576
688.10	0.578
688.29	0.577
688.47	0.575
688.66	0.575
688.85	0.571
689.03	0.569
689.22	0.573
689.41	0.574
689.60	0.570
689.78	0.567
689.97	0.567
690.16	0.565
690.34	0.562
690.53	0.562
690.72	0.562
690.91	0.560
691.09	0.558
691.28	0.552
691.47	0.550
691.65	0.549
691.84	0.546
692.03	0.545
692.21	0.543
692.40	0.543
692.59	0.540
692.77	0.540
692.96	0.541
693.15	0.542
693.34	0.539
693.52	0.540
693.71	0.540
693.90	0.541
694.08	0.541
694.27	0.542
694.46	0.551
694.64	0.552
694.83	0.551
695.02	0.550
695.20	0.550
695.39	0.550
695.58	0.550
695.76	0.551
695.95	0.550
696.14	0.549
696.32	0.546
696.51	0.537
696.70	0.537
696.88	0.538
697.07	0.537
697.26	0.538
697.44	0.539
697.63	0.538
697.81	0.535
698.00	0.535
698.19	0.534
698.37	0.534
698.56	0.534
698.75	0.533
698.93	0.533
699.12	0.532
699.31	0.531
699.49	0.531
699.68	0.532
699.87	0.534
700.05	0.535
700.24	0.535
700.42	0.536
700.61	0.536
700.80	0.534
700.98	0.534
701.17	0.536
701.36	0.535
701.54	0.535
701.73	0.535
701.91	0.533
702.10	0.532
702.29	0.530
702.47	0.529
702.66	0.530
702.84	0.531
703.03	0.530
703.22	0.531
703.40	0.530
703.59	0.531
703.77	0.531
703.96	0.530
704.15	0.531
704.33	0.531
704.52	0.531
704.70	0.530
704.89	0.529
705.08	0.528
705.26	0.525
705.45	0.525
705.63	0.525
705.82	0.522
706.00	0.521
706.19	0.520
706.38	0.520
706.56	0.520
706.75	0.518
706.93	0.517
707.12	0.518
707.30	0.518
707.49	0.516
707.68	0.514
707.86	0.513
708.05	0.514
708.23	0.511
708.42	0.511
708.60	0.512
708.79	0.513
708.98	0.511
709.16	0.511
709.35	0.513
709.53	0.517
709.72	0.515
709.90	0.518
710.09	0.519
710.27	0.521
710.46	0.525
710.64	0.524
710.83	0.525
711.02	0.526
711.20	0.526
711.39	0.524
711.57	0.522
711.76	0.522
711.94	0.520
712.13	0.521
712.31	0.521
712.50	0.516
712.68	0.515
712.87	0.515
713.05	0.516
713.24	0.516
713.42	0.516
713.61	0.516
713.79	0.516
713.98	0.517
714.16	0.517
714.35	0.517
714.54	0.517
714.72	0.517
714.91	0.515
715.09	0.521
715.28	0.524
715.46	0.523
715.65	0.521
715.83	0.521
716.02	0.523
716.20	0.520
716.39	0.520
716.57	0.521
716.76	0.522
716.94	0.523
717.12	0.516
717.31	0.517
717.49	0.520
717.68	0.522
717.86	0.522
718.05	0.524
718.23	0.527
718.42	0.529
718.60	0.531
718.79	0.539
718.97	0.541
719.16	0.541
719.34	0.538
719.53	0.537
719.71	0.537
719.90	0.538
720.08	0.536
720.27	0.536
720.45	0.536
720.63	0.535
720.82	0.528
721.00	0.531
721.19	0.534
721.37	0.534
721.56	0.534
721.74	0.537
721.93	0.545
722.11	0.550
722.30	0.549
722.48	0.553
722.66	0.554
722.85	0.554
723.03	0.555
723.22	0.554
723.40	0.557
723.59	0.558
723.77	0.563
723.95	0.557
724.14	0.560
724.32	0.561
724.51	0.560
724.69	0.562
724.88	0.562
725.06	0.559
725.24	0.560
725.43	0.561
725.61	0.563
725.80	0.557
725.98	0.555
726.16	0.551
726.35	0.557
726.53	0.556
726.72	0.554
726.90	0.564
727.09	0.565
727.27	0.570
727.45	0.568
727.64	0.577
727.82	0.584
728.01	0.588
728.19	0.587
728.37	0.590
728.56	0.593
728.74	0.600
728.92	0.589
729.11	0.592
729.29	0.590
729.48	0.592
729.66	0.581
729.84	0.581
730.03	0.583
730.21	0.585
730.40	0.577
730.58	0.578
730.76	0.577
730.95	0.579
731.13	0.578
731.31	0.591
731.50	0.600
731.68	0.604
731.86	0.601
732.05	0.614
732.23	0.615
732.42	0.619
732.60	0.623
732.78	0.628
732.97	0.645
733.15	0.651
733.33	0.639
733.52	0.644
733.70	0.655
733.88	0.666
734.07	0.653
734.25	0.678
734.43	0.685
734.62	0.690
734.80	0.685
734.98	0.677
735.17	0.684
735.35	0.689
735.53	0.678
735.72	0.681
735.90	0.699
736.08	0.719
736.27	0.699
736.45	0.708
736.63	0.718
736.82	0.730
737.00	0.730
737.18	0.738
737.37	0.767
737.55	0.791
737.73	0.784
737.92	0.785
738.10	0.782
738.28	0.800
738.46	0.789
738.65	0.797
738.83	0.812
739.01	0.864
739.20	0.857
739.38	0.843
739.56	0.832
739.75	0.837
739.93	0.806
740.11	0.830
740.29	0.828
740.48	0.835
740.66	0.818
740.84	0.816
741.03	0.776
741.21	0.788
741.39	0.771
741.57	0.784
741.76	0.801
741.94	0.807
742.12	0.772
742.31	0.777
742.49	0.797
742.67	0.816
742.85	0.829
743.04	0.840
743.22	0.847
743.40	0.898
743.58	0.884
743.77	0.898
743.95	0.928
744.13	0.977
744.31	0.961
744.50	0.951
744.68	0.954
744.86	0.929
745.04	0.933
745.23	0.996
745.41	0.971
745.59	0.975
745.77	0.942
745.96	0.933
746.14	0.936
746.32	0.937
746.50	0.930
746.69	0.910
746.87	0.918
747.05	0.910
747.23	0.842
747.42	0.828
747.60	0.851
747.78	0.855
747.96	0.884
748.14	0.848
748.33	0.874
748.51	0.868
748.69	0.863
748.87	0.887
749.06	0.881
749.24	0.882
749.42	0.876
749.60	0.856
749.78	0.867
749.97	0.822
750.15	0.816
750.33	0.814
750.51	0.837
750.69	0.846
750.88	0.852
751.06	0.859
751.24	0.880
751.42	0.869
751.60	0.862
751.79	0.924
751.97	0.964
752.15	0.963
752.33	0.932
752.51	0.985
752.69	0.994
752.88	0.965
753.06	1.013
753.24	0.989
753.42	1.015
753.60	1.164
753.78	1.042
753.97	1.060
754.15	1.064
754.33	1.096
754.51	0.992
754.69	0.980
754.87	1.000
755.06	0.933
755.24	0.937
755.42	0.949
755.60	0.855
755.78	0.862
755.96	0.814
756.15	0.818
756.33	0.821
756.51	0.839
756.69	0.826
756.87	0.800
757.05	0.817
757.23	0.804
757.42	0.774
757.60	0.773
757.78	0.762
757.96	0.763
758.14	0.747
758.32	0.729
758.50	0.739
758.69	0.736
758.87	0.725
759.05	0.730
759.23	0.736
759.41	0.735
759.59	0.732
759.77	0.753
759.95	0.775
760.13	0.820
760.32	0.824
760.50	0.822
760.68	0.844
760.86	0.848
761.04	0.824
761.22	0.827
761.40	0.869
761.58	0.868
761.76	0.842
761.95	0.824
762.13	0.782
762.31	0.782
762.49	0.754
762.67	0.771
762.85	0.782
763.03	0.777
763.21	0.762
763.39	0.745
763.57	0.746
763.75	0.740
763.94	0.730
764.12	0.730
764.30	0.752
764.48	0.756
764.66	0.722
764.84	0.719
765.02	0.752
765.20	0.759
765.38	0.743
765.56	0.748
765.74	0.785
765.92	0.785
766.10	0.793
766.28	0.787
766.46	0.813
766.65	0.815
766.83	0.805
767.01	0.792
767.19	0.796
767.37	0.796
767.55	0.784
767.73	0.766
767.91	0.768
768.09	0.758
768.27	0.748
768.45	0.738
768.63	0.742
768.81	0.744
768.99	0.719
769.17	0.740
769.35	0.752
769.53	0.751
769.71	0.733
769.89	0.740
770.07	0.747
770.25	0.729
770.43	0.711
770.61	0.731
770.79	0.736
770.97	0.746
771.15	0.717
771.33	0.719
771.51	0.719
771.69	0.729
771.87	0.739
772.05	0.741
772.24	0.747
772.42	0.753
772.60	0.736
772.78	0.790
772.96	0.811
773.14	0.811
773.32	0.796
773.49	0.804
773.67	0.799
773.85	0.782
774.03	0.776
774.21	0.804
774.39	0.813
774.57	0.833
774.75	0.766
774.93	0.764
775.11	0.781
775.29	0.785
775.47	0.786
775.65	0.795
775.83	0.805
776.01	0.823
776.19	0.783
776.37	0.786
776.55	0.784
776.73	0.784
776.91	0.779
777.09	0.765
777.27	0.763
777.45	0.754
777.63	0.732
777.81	0.731
777.99	0.716
778.17	0.718
778.35	0.700
778.53	0.690
778.71	0.691
778.89	0.681
779.07	0.671
779.24	0.675
779.42	0.676
779.60	0.695
779.78	0.691
779.96	0.695
780.14	0.699
780.32	0.714
780.50	0.700
780.68	0.699
780.86	0.690
781.04	0.706
781.22	0.710
781.40	0.719
781.58	0.710
781.75	0.705
781.93	0.693
782.11	0.696
782.29	0.684
782.47	0.684
782.65	0.674
782.83	0.699
783.01	0.692
783.19	0.686
783.37	0.673
783.55	0.673
783.72	0.689
783.90	0.699
784.08	0.691
784.26	0.703
784.44	0.721
784.62	0.722
784.80	0.695
784.98	0.701
785.16	0.708
785.33	0.724
785.51	0.714
785.69	0.702
785.87	0.699
786.05	0.709
786.23	0.706
786.41	0.703
786.59	0.710
786.77	0.708
786.94	0.697
787.12	0.700
787.30	0.697
787.48	0.695
787.66	0.686
787.84	0.686
788.02	0.677
788.19	0.675
788.37	0.662
788.55	0.664
788.73	0.664
788.91	0.660
789.09	0.644
789.27	0.635
789.44	0.643
789.62	0.647
789.80	0.656
789.98	0.679
790.16	0.666
790.34	0.664
790.51	0.651
790.69	0.668
790.87	0.673
791.05	0.672
791.23	0.666
791.41	0.666
791.58	0.672
791.76	0.653
791.94	0.624
792.12	0.633
792.30	0.635
792.48	0.634
792.65	0.628
792.83	0.634
793.01	0.641
793.19	0.641
793.37	0.629
793.54	0.625
793.72	0.635
793.90	0.635
794.08	0.625
794.26	0.625
794.43	0.632
794.61	0.618
794.79	0.608
794.97	0.606
795.15	0.609
795.32	0.612
795.50	0.603
795.68	0.599
795.86	0.602
796.04	0.603
796.21	0.600
796.39	0.599
796.57	0.611
796.75	0.618
796.92	0.620
797.10	0.623
797.28	0.626
797.46	0.628
797.64	0.630
797.81	0.636
797.99	0.641
798.17	0.643
798.35	0.638
798.52	0.642
798.70	0.637
798.88	0.643
799.06	0.646
799.23	0.647
799.41	0.653
799.59	0.646
799.77	0.637
799.94	0.645
800.12	0.652
800.30	0.667
800.48	0.666
800.65	0.667
800.83	0.659
801.01	0.650
801.19	0.649
801.36	0.646
801.54	0.648
801.72	0.658
801.90	0.646
802.07	0.643
802.25	0.630
802.43	0.615
802.60	0.611
802.78	0.616
802.96	0.620
803.14	0.615
803.31	0.613
803.49	0.613
803.67	0.608
803.84	0.613
804.02	0.604
804.20	0.608
804.38	0.613
804.55	0.613
804.73	0.601
804.91	0.601
805.08	0.612
805.26	0.610
805.44	0.675
805.61	0.679
805.79	0.677
805.97	0.678
806.15	0.671
806.32	0.664
806.50	0.668
806.68	0.670
806.85	0.662
807.03	0.655
807.21	0.668
807.38	0.602
807.56	0.591
807.74	0.601
807.91	0.607
808.09	0.607
808.27	0.627
808.44	0.651
808.62	0.657
808.80	0.660
808.97	0.657
809.15	0.654
809.33	0.669
809.50	0.676
809.68	0.664
809.86	0.670
810.03	0.699
810.21	0.679
810.39	0.665
810.56	0.670
810.74	0.691
810.91	0.757
811.09	0.745
811.27	0.764
811.44	0.765
811.62	0.764
811.80	0.749
811.97	0.722
812.15	0.720
812.33	0.716
812.50	0.704
812.68	0.693
812.85	0.640
813.03	0.643
813.21	0.613
813.38	0.610
813.56	0.614
813.74	0.624
813.91	0.631
814.09	0.659
814.26	0.650
814.44	0.652
814.62	0.644
814.79	0.646
814.97	0.649
815.14	0.654
815.32	0.658
815.50	0.672
815.67	0.673
815.85	0.664
816.02	0.654
816.20	0.662
816.38	0.678
816.55	0.684
816.73	0.684
816.90	0.694
817.08	0.722
817.26	0.727
817.43	0.709
817.61	0.734
817.78	0.751
817.96	0.735
818.13	0.723
818.31	0.720
818.49	0.730
818.66	0.722
818.84	0.710
819.01	0.689
819.19	0.691
819.36	0.693
819.54	0.667
819.71	0.704
819.89	0.714
820.07	0.727
820.24	0.724
820.42	0.725
820.59	0.742
820.77	0.760
820.94	0.755
821.12	0.774
821.29	0.788
821.47	0.790
821.64	0.732
821.82	0.743
822.00	0.741
822.17	0.738
822.35	0.733
822.52	0.736
822.70	0.727
822.87	0.736
823.05	0.719
823.22	0.728
823.40	0.751
823.57	0.777
823.75	0.761
823.92	0.782
824.10	0.798
824.27	0.834
824.45	0.826
824.62	0.881
824.80	0.893
824.97	0.906
825.15	0.897
825.32	0.909
825.50	0.906
825.67	0.922
825.85	0.902
826.02	0.916
826.20	0.931
826.37	1.044
826.55	0.977
826.72	1.145
826.90	1.208
827.07	1.257
827.25	1.207
827.42	1.352
827.60	1.443
827.77	1.607
827.95	1.604
828.12	1.683
828.30	1.363
828.47	1.459
828.65	1.155
828.82	1.182
829.00	1.217
829.17	1.277
829.34	1.267
829.52	1.320
829.69	-0.000
829.87	-0.000
830.04	-0.000
830.22	-0.000
830.39	-0.000
830.57	-0.000
830.74	-0.000
830.92	-0.000
831.09	-0.000
831.26	-0.000
831.44	-0.000
831.61	-0.000
831.79	-0.000
831.96	-0.000
832.14	-0.000
832.31	-0.000
832.49	-0.000
832.66	-0.000
832.83	-0.000
833.01	-0.000
833.18	-0.000
833.36	-0.000
833.53	-0.000
833.70	-0.000
833.88	-0.000
834.05	-0.000
834.23	-0.000
834.40	-0.000
834.58	-0.000
834.75	-0.000
834.92	-0.000
835.10	-0.000
835.27	-0.000
835.45	-0.000
835.62	-0.000
835.79	-0.000
835.97	-0.000
836.14	-0.000
836.32	-0.000
836.49	-0.000
836.66	-0.000
836.84	-0.000
837.01	-0.000
837.18	-0.000
837.36	-0.000
837.53	-0.000
837.71	-0.000
837.88	-0.000
838.05	-0.000
838.23	-0.000
838.40	-0.000
838.58	-0.000
838.75	-0.000
838.92	-0.000
839.10	-0.000
839.27	-0.000
839.44	-0.000
839.62	-0.000
839.79	-0.000
839.96	-0.000
840.14	-0.000
840.31	-0.000
840.48	-0.000
840.66	-0.000
840.83	-0.000
841.01	-0.000
841.18	-0.000
841.35	-0.000
841.53	-0.000
841.70	-0.000
841.87	-0.000
842.05	-0.000
842.22	-0.000
842.39	-0.000
842.57	-0.000
842.74	-0.000
842.91	-0.000
843.09	-0.000
843.26	-0.000
843.43	-0.000
843.60	-0.000
843.78	-0.000
843.95	-0.000
844.12	-0.000
844.30	-0.000
844.47	-0.000
844.64	-0.000
844.82	-0.000
844.99	-0.000
845.16	-0.000
845.34	-0.000
845.51	-0.000
845.68	-0.000
845.85	-0.000
846.03	-0.000
846.20	-0.000
846.37	-0.000
846.55	-0.000
846.72	-0.000
846.89	-0.000
847.06	-0.000
847.24	-0.000
847.41	-0.000
847.58	-0.000
847.76	-0.000
847.93	-0.000
848.10	-0.000
848.27	-0.000
848.45	-0.000
848.62	-0.000
848.79	-0.000
848.97	-0.000
849.14	-0.000
849.31	-0.000
849.48	-0.000
849.66	-0.000
849.83	-0.000
850.00	-0.000
850.17	-0.000
850.35	-0.000
850.52	-0.000
850.69	-0.000
850.86	-0.000
851.04	-0.000
851.21	-0.000
851.38	-0.000
851.55	-0.000
851.72	-0.000
851.90	-0.000
852.07	-0.000
852.24	-0.000
852.41	-0.000
852.59	-0.000
852.76	-0.000
852.93	-0.000
853.10	-0.000
853.28	-0.000
853.45	-0.000
853.62	-0.000
853.79	-0.000
853.96	-0.000
854.14	-0.000
854.31	-0.000
854.48	-0.000
854.65	-0.000
854.82	-0.000
855.00	-0.000
855.17	-0.000
855.34	-0.000
855.51	-0.000
855.68	-0.000
855.86	-0.000
856.03	-0.000
856.20	-0.000
856.37	-0.000
856.54	-0.000
856.72	-0.000
856.89	-0.000
857.06	-0.000
857.23	-0.000
857.40	-0.000
857.57	-0.000
857.75	-0.000
857.92	-0.000
858.09	-0.000
858.26	-0.000
858.43	-0.000
858.60	-0.000
858.78	-0.000
858.95	-0.000
859.12	-0.000
859.29	-0.000
859.46	-0.000
859.63	-0.000
859.81	-0.000
859.98	-0.000
860.15	-0.000
860.32	-0.000
860.49	-0.000
860.66	-0.000
860.83	-0.000
861.01	-0.000
861.18	-0.000
861.35	-0.000
861.52	-0.000
861.69	-0.000
861.86	-0.000
862.03	-0.000
862.21	-0.000
862.38	-0.000
862.55	-0.000
862.72	-0.000
862.89	-0.000
863.06	-0.000
863.23	-0.000
863.40	-0.000
863.58	-0.000
863.75	-0.000
863.92	-0.000
864.09	-0.000
864.26	-0.000
864.43	-0.000
864.60	-0.000
864.77	-0.000
864.94	-0.000
865.11	-0.000
865.29	-0.000
865.46	-0.000
865.63	-0.000
865.80	-0.000
865.97	-0.000
866.14	-0.000
866.31	-0.000
866.48	-0.000
866.65	-0.000
866.82	-0.000
866.99	-0.000
867.16	-0.000
867.34	-0.000
867.51	-0.000
867.68	-0.000
867.85	-0.000
868.02	-0.000
868.19	-0.000
868.36	-0.000
868.53	-0.000
868.70	-0.000
868.87	-0.000
869.04	-0.000
869.21	-0.000
869.38	-0.000
869.55	-0.000
869.72	-0.000
869.89	-0.000
870.06	-0.000
870.24	-0.000
870.41	-0.000
870.58	-0.000
870.75	-0.000
870.92	-0.000
871.09	-0.000
871.26	-0.000
871.43	-0.000
871.60	-0.000
871.77	-0.000
871.94	-0.000
872.11	-0.000
872.28	-0.000
872.45	-0.000
872.62	-0.000
872.79	-0.000
872.96	-0.000
873.13	-0.000
873.30	-0.000
873.47	-0.000
873.64	-0.000
873.81	-0.000
873.98	-0.000
874.15	-0.000
874.32	-0.000
874.49	-0.000
874.66	-0.000
874.83	-0.000
875.00	-0.000
875.17	-0.000
875.34	-0.000
875.51	-0.000
875.68	-0.000
875.85	-0.000
876.02	-0.000
876.19	-0.000
876.36	-0.000
876.53	-0.000
876.70	-0.000
876.87	-0.000
877.04	-0.000
877.21	-0.000
877.38	-0.000
877.55	-0.000
877.72	-0.000
877.89	-0.000
878.06	-0.000
878.23	-0.000
878.39	-0.000
878.56	-0.000
878.73	-0.000
878.90	-0.000
879.07	-0.000
879.24	-0.000
879.41	-0.000
879.58	-0.000
879.75	-0.000
879.92	-0.000
880.09	-0.000
880.26	-0.000
880.43	-0.000
880.60	-0.000
880.77	-0.000
880.94	-0.000
881.11	-0.000
881.27	-0.000
881.44	-0.000
881.61	-0.000
881.78	-0.000
881.95	-0.000
882.12	-0.000
882.29	-0.000
882.46	-0.000
882.63	-0.000
882.80	-0.000
882.97	-0.000
883.14	-0.000
883.30	-0.000
883.47	-0.000
883.64	-0.000
883.81	-0.000
883.98	-0.000
884.15	-0.000
884.32	-0.000
884.49	-0.000
884.66	-0.000
884.82	-0.000
884.99	-0.000
885.16	-0.000
885.33	-0.000
885.50	-0.000
885.67	-0.000
885.84	-0.000
886.01	-0.000
886.17	-0.000
886.34	-0.000
886.51	-0.000
886.68	-0.000
886.85	-0.000
887.02	-0.000
887.19	-0.000
887.36	-0.000
887.52	-0.000
887.69	-0.000
887.86	-0.000
888.03	-0.000
888.20	-0.000
888.37	-0.000
888.54	-0.000
888.70	-0.000
888.87	-0.000
889.04	-0.000
889.21	-0.000
889.38	-0.000
889.55	-0.000
889.71	-0.000
889.88	-0.000
890.05	-0.000
890.22	-0.000
890.39	-0.000
>>>>>End Processed Spectral Data<<<<<
