SpectraSuite Data File
++++++++++++++++++++++++++++++++++++
Date: Fri Jun 19 11:38:27 CEST 2015
User: introlabs
Dark Spectrum Present: Yes
Reference Spectrum Present: Yes
Number of Sampled Component Spectra: 1
Spectrometers: USB4H08886
Integration Time (usec): 5245692 (USB4H08886)
Spectra Averaged: 5 (USB4H08886)
Boxcar Smoothing: 5 (USB4H08886)
Correct for Electrical Dark: Yes (USB4H08886)
Strobe/Lamp Enabled: No (USB4H08886)
Correct for Detector Non-linearity: Yes (USB4H08886)
Correct for Stray Light: Yes (USB4H08886)
Number of Pixels in Processed Spectrum: 3648
>>>>>Begin Processed Spectral Data<<<<<
178.14	-0.000
178.36	-0.000
178.57	-0.000
178.79	-0.000
179.01	-0.000
179.22	-0.000
179.44	-0.000
179.65	-0.000
179.87	-0.000
180.08	-0.000
180.30	-0.000
180.52	-0.000
180.73	-0.000
180.95	-0.000
181.16	-0.000
181.38	-0.000
181.59	-0.000
181.81	-0.000
182.03	-0.000
182.24	-0.000
182.46	-0.000
182.67	-0.000
182.89	-0.000
183.10	-0.000
183.32	-0.000
183.54	-0.000
183.75	-0.000
183.97	-0.000
184.18	-0.000
184.40	-0.000
184.61	-0.000
184.83	-0.000
185.04	-0.000
185.26	-0.000
185.48	-0.000
185.69	-0.000
185.91	-0.000
186.12	-0.000
186.34	-0.000
186.55	-0.000
186.77	-0.000
186.98	-0.000
187.20	-0.000
187.42	-0.000
187.63	-0.000
187.85	-0.000
188.06	-0.000
188.28	-0.000
188.49	-0.000
188.71	-0.000
188.92	-0.000
189.14	-0.000
189.36	-0.000
189.57	-0.000
189.79	-0.000
190.00	-0.000
190.22	-0.000
190.43	-0.000
190.65	-0.000
190.86	-0.000
191.08	-0.000
191.29	-0.000
191.51	-0.000
191.72	-0.000
191.94	-0.000
192.16	-0.000
192.37	-0.000
192.59	-0.000
192.80	-0.000
193.02	-0.000
193.23	-0.000
193.45	-0.000
193.66	-0.000
193.88	-0.000
194.09	-0.000
194.31	-0.000
194.52	-0.000
194.74	-0.000
194.95	-0.000
195.17	-0.000
195.38	-0.000
195.60	-0.000
195.81	-0.000
196.03	-0.000
196.25	-0.000
196.46	-0.000
196.68	-0.000
196.89	-0.000
197.11	-0.000
197.32	-0.000
197.54	-0.000
197.75	-0.000
197.97	-0.000
198.18	-0.000
198.40	-0.000
198.61	-0.000
198.83	-0.000
199.04	-0.000
199.26	-0.000
199.47	-0.000
199.69	-0.000
199.90	-0.000
200.12	-0.000
200.33	-0.000
200.55	-0.000
200.76	-0.000
200.98	-0.000
201.19	-0.000
201.41	-0.000
201.62	-0.000
201.84	-0.000
202.05	-0.000
202.27	-0.000
202.48	-0.000
202.70	-0.000
202.91	-0.000
203.13	-0.000
203.34	-0.000
203.56	-0.000
203.77	-0.000
203.99	-0.000
204.20	-0.000
204.42	-0.000
204.63	-0.000
204.85	-0.000
205.06	-0.000
205.28	-0.000
205.49	-0.000
205.71	-0.000
205.92	-0.000
206.14	-0.000
206.35	-0.000
206.56	-0.000
206.78	-0.000
206.99	-0.000
207.21	-0.000
207.42	-0.000
207.64	-0.000
207.85	-0.000
208.07	-0.000
208.28	-0.000
208.50	-0.000
208.71	-0.000
208.93	-0.000
209.14	-0.000
209.36	-0.000
209.57	-0.000
209.79	-0.000
210.00	-0.000
210.22	-0.000
210.43	-0.000
210.64	-0.000
210.86	-0.000
211.07	-0.000
211.29	-0.000
211.50	-0.000
211.72	-0.000
211.93	-0.000
212.15	-0.000
212.36	-0.000
212.58	-0.000
212.79	-0.000
213.01	-0.000
213.22	-0.000
213.43	-0.000
213.65	-0.000
213.86	-0.000
214.08	-0.000
214.29	-0.000
214.51	-0.000
214.72	-0.000
214.94	-0.000
215.15	-0.000
215.36	-0.000
215.58	-0.000
215.79	-0.000
216.01	-0.000
216.22	-0.000
216.44	-0.000
216.65	-0.000
216.87	-0.000
217.08	-0.000
217.29	-0.000
217.51	-0.000
217.72	-0.000
217.94	-0.000
218.15	-0.000
218.37	-0.000
218.58	-0.000
218.80	-0.000
219.01	-0.000
219.22	-0.000
219.44	-0.000
219.65	-0.000
219.87	-0.000
220.08	-0.000
220.30	-0.000
220.51	-0.000
220.72	-0.000
220.94	-0.000
221.15	-0.000
221.37	-0.000
221.58	-0.000
221.79	-0.000
222.01	-0.000
222.22	-0.000
222.44	-0.000
222.65	-0.000
222.87	-0.000
223.08	-0.000
223.29	-0.000
223.51	-0.000
223.72	-0.000
223.94	-0.000
224.15	-0.000
224.36	-0.000
224.58	-0.000
224.79	-0.000
225.01	-0.000
225.22	-0.000
225.44	-0.000
225.65	-0.000
225.86	-0.000
226.08	-0.000
226.29	-0.000
226.51	-0.000
226.72	-0.000
226.93	-0.000
227.15	-0.000
227.36	-0.000
227.58	-0.000
227.79	-0.000
228.00	-0.000
228.22	-0.000
228.43	-0.000
228.65	-0.000
228.86	-0.000
229.07	-0.000
229.29	-0.000
229.50	-0.000
229.72	-0.000
229.93	-0.000
230.14	-0.000
230.36	-0.000
230.57	-0.000
230.78	-0.000
231.00	-0.000
231.21	-0.000
231.43	-0.000
231.64	-0.000
231.85	-0.000
232.07	-0.000
232.28	-0.000
232.50	-0.000
232.71	-0.000
232.92	-0.000
233.14	-0.000
233.35	-0.000
233.56	-0.000
233.78	-0.000
233.99	-0.000
234.21	-0.000
234.42	-0.000
234.63	-0.000
234.85	-0.000
235.06	-0.000
235.27	-0.000
235.49	-0.000
235.70	-0.000
235.91	-0.000
236.13	-0.000
236.34	-0.000
236.56	-0.000
236.77	-0.000
236.98	-0.000
237.20	-0.000
237.41	-0.000
237.62	-0.000
237.84	-0.000
238.05	-0.000
238.26	-0.000
238.48	-0.000
238.69	-0.000
238.91	-0.000
239.12	-0.000
239.33	-0.000
239.55	-0.000
239.76	-0.000
239.97	-0.000
240.19	-0.000
240.40	-0.000
240.61	-0.000
240.83	-0.000
241.04	-0.000
241.25	-0.000
241.47	-0.000
241.68	-0.000
241.89	-0.000
242.11	-0.000
242.32	-0.000
242.53	-0.000
242.75	-0.000
242.96	-0.000
243.17	-0.000
243.39	-0.000
243.60	-0.000
243.81	-0.000
244.03	-0.000
244.24	-0.000
244.45	-0.000
244.67	-0.000
244.88	-0.000
245.09	-0.000
245.31	-0.000
245.52	-0.000
245.73	-0.000
245.95	-0.000
246.16	-0.000
246.37	-0.000
246.59	-0.000
246.80	-0.000
247.01	-0.000
247.23	-0.000
247.44	-0.000
247.65	-0.000
247.87	-0.000
248.08	-0.000
248.29	-0.000
248.51	-0.000
248.72	-0.000
248.93	-0.000
249.15	-0.000
249.36	-0.000
249.57	-0.000
249.78	-0.000
250.00	-0.000
250.21	-0.000
250.42	-0.000
250.64	-0.000
250.85	-0.000
251.06	-0.000
251.28	-0.000
251.49	-0.000
251.70	-0.000
251.92	-0.000
252.13	-0.000
252.34	-0.000
252.55	-0.000
252.77	-0.000
252.98	-0.000
253.19	-0.000
253.41	-0.000
253.62	-0.000
253.83	-0.000
254.05	-0.000
254.26	-0.000
254.47	-0.000
254.68	-0.000
254.90	-0.000
255.11	1.976
255.32	2.013
255.54	1.910
255.75	2.557
255.96	1.492
256.17	1.165
256.39	1.172
256.60	1.328
256.81	1.370
257.03	1.450
257.24	1.753
257.45	2.276
257.66	1.749
257.88	1.432
258.09	1.217
258.30	1.173
258.51	1.139
258.73	1.072
258.94	0.937
259.15	0.880
259.37	0.849
259.58	0.793
259.79	0.794
260.00	0.850
260.22	0.923
260.43	0.946
260.64	0.880
260.85	0.915
261.07	0.833
261.28	0.914
261.49	0.917
261.71	0.930
261.92	1.071
262.13	0.957
262.34	0.903
262.56	0.855
262.77	0.824
262.98	0.827
263.19	0.835
263.41	0.949
263.62	0.930
263.83	0.933
264.04	0.920
264.26	0.799
264.47	0.837
264.68	0.851
264.89	0.886
265.11	0.873
265.32	0.908
265.53	0.856
265.74	0.823
265.96	0.819
266.17	0.837
266.38	0.782
266.59	0.854
266.81	0.839
267.02	0.764
267.23	0.712
267.44	0.752
267.65	0.709
267.87	0.718
268.08	0.689
268.29	0.624
268.50	0.604
268.72	0.603
268.93	0.564
269.14	0.550
269.35	0.565
269.57	0.552
269.78	0.528
269.99	0.528
270.20	0.513
270.41	0.509
270.63	0.521
270.84	0.519
271.05	0.508
271.26	0.510
271.48	0.517
271.69	0.524
271.90	0.521
272.11	0.522
272.32	0.540
272.54	0.531
272.75	0.525
272.96	0.526
273.17	0.501
273.39	0.510
273.60	0.506
273.81	0.516
274.02	0.511
274.23	0.521
274.45	0.527
274.66	0.503
274.87	0.504
275.08	0.488
275.29	0.499
275.51	0.509
275.72	0.494
275.93	0.488
276.14	0.455
276.35	0.453
276.57	0.444
276.78	0.450
276.99	0.452
277.20	0.460
277.41	0.456
277.63	0.431
277.84	0.424
278.05	0.430
278.26	0.426
278.47	0.436
278.69	0.414
278.90	0.409
279.11	0.388
279.32	0.379
279.53	0.363
279.74	0.376
279.96	0.375
280.17	0.370
280.38	0.372
280.59	0.375
280.80	0.375
281.02	0.382
281.23	0.383
281.44	0.386
281.65	0.381
281.86	0.390
282.07	0.379
282.29	0.383
282.50	0.386
282.71	0.374
282.92	0.361
283.13	0.354
283.35	0.349
283.56	0.343
283.77	0.345
283.98	0.344
284.19	0.334
284.40	0.333
284.62	0.323
284.83	0.318
285.04	0.313
285.25	0.314
285.46	0.306
285.67	0.299
285.88	0.298
286.10	0.294
286.31	0.297
286.52	0.300
286.73	0.297
286.94	0.296
287.15	0.289
287.37	0.293
287.58	0.291
287.79	0.291
288.00	0.293
288.21	0.291
288.42	0.283
288.63	0.279
288.85	0.270
289.06	0.262
289.27	0.261
289.48	0.260
289.69	0.253
289.90	0.251
290.11	0.250
290.33	0.244
290.54	0.242
290.75	0.244
290.96	0.242
291.17	0.243
291.38	0.244
291.59	0.241
291.81	0.243
292.02	0.243
292.23	0.243
292.44	0.240
292.65	0.241
292.86	0.238
293.07	0.234
293.28	0.234
293.50	0.231
293.71	0.230
293.92	0.231
294.13	0.228
294.34	0.226
294.55	0.224
294.76	0.223
294.97	0.223
295.19	0.222
295.40	0.220
295.61	0.219
295.82	0.221
296.03	0.221
296.24	0.220
296.45	0.221
296.66	0.223
296.87	0.223
297.09	0.223
297.30	0.221
297.51	0.222
297.72	0.221
297.93	0.220
298.14	0.219
298.35	0.217
298.56	0.218
298.77	0.217
298.99	0.216
299.20	0.215
299.41	0.214
299.62	0.215
299.83	0.215
300.04	0.214
300.25	0.214
300.46	0.214
300.67	0.214
300.88	0.212
301.10	0.212
301.31	0.210
301.52	0.211
301.73	0.210
301.94	0.210
302.15	0.209
302.36	0.210
302.57	0.210
302.78	0.210
302.99	0.209
303.20	0.209
303.41	0.209
303.63	0.210
303.84	0.211
304.05	0.210
304.26	0.210
304.47	0.210
304.68	0.209
304.89	0.208
305.10	0.208
305.31	0.208
305.52	0.207
305.73	0.208
305.94	0.206
306.15	0.205
306.37	0.204
306.58	0.203
306.79	0.203
307.00	0.203
307.21	0.202
307.42	0.202
307.63	0.201
307.84	0.203
308.05	0.201
308.26	0.200
308.47	0.200
308.68	0.200
308.89	0.200
309.10	0.200
309.31	0.200
309.52	0.199
309.73	0.198
309.95	0.199
310.16	0.198
310.37	0.198
310.58	0.197
310.79	0.196
311.00	0.196
311.21	0.197
311.42	0.197
311.63	0.197
311.84	0.196
312.05	0.196
312.26	0.194
312.47	0.194
312.68	0.194
312.89	0.195
313.10	0.195
313.31	0.195
313.52	0.193
313.73	0.192
313.94	0.193
314.15	0.193
314.36	0.193
314.57	0.194
314.78	0.194
314.99	0.194
315.21	0.192
315.42	0.192
315.63	0.191
315.84	0.192
316.05	0.192
316.26	0.192
316.47	0.191
316.68	0.192
316.89	0.191
317.10	0.190
317.31	0.190
317.52	0.191
317.73	0.191
317.94	0.191
318.15	0.194
318.36	0.194
318.57	0.194
318.78	0.194
318.99	0.193
319.20	0.193
319.41	0.193
319.62	0.193
319.83	0.193
320.04	0.193
320.25	0.192
320.46	0.188
320.67	0.187
320.88	0.187
321.09	0.186
321.30	0.187
321.51	0.187
321.72	0.187
321.93	0.187
322.14	0.186
322.35	0.185
322.56	0.186
322.77	0.186
322.98	0.185
323.19	0.185
323.40	0.185
323.61	0.184
323.82	0.184
324.03	0.183
324.24	0.183
324.45	0.183
324.66	0.184
324.87	0.184
325.08	0.183
325.29	0.184
325.50	0.184
325.71	0.184
325.92	0.184
326.13	0.183
326.34	0.183
326.55	0.183
326.76	0.183
326.97	0.182
327.18	0.183
327.39	0.182
327.60	0.181
327.80	0.181
328.01	0.180
328.22	0.181
328.43	0.181
328.64	0.180
328.85	0.180
329.06	0.180
329.27	0.180
329.48	0.179
329.69	0.179
329.90	0.179
330.11	0.180
330.32	0.180
330.53	0.179
330.74	0.179
330.95	0.179
331.16	0.179
331.37	0.179
331.58	0.178
331.79	0.179
332.00	0.178
332.21	0.178
332.42	0.177
332.63	0.177
332.83	0.177
333.04	0.178
333.25	0.177
333.46	0.177
333.67	0.176
333.88	0.176
334.09	0.174
334.30	0.175
334.51	0.175
334.72	0.175
334.93	0.175
335.14	0.174
335.35	0.173
335.56	0.174
335.77	0.173
335.98	0.174
336.18	0.173
336.39	0.173
336.60	0.172
336.81	0.172
337.02	0.171
337.23	0.171
337.44	0.171
337.65	0.171
337.86	0.171
338.07	0.171
338.28	0.170
338.49	0.171
338.70	0.170
338.91	0.170
339.11	0.170
339.32	0.170
339.53	0.170
339.74	0.171
339.95	0.170
340.16	0.170
340.37	0.170
340.58	0.170
340.79	0.170
341.00	0.170
341.21	0.170
341.41	0.169
341.62	0.169
341.83	0.168
342.04	0.167
342.25	0.168
342.46	0.167
342.67	0.167
342.88	0.167
343.09	0.166
343.30	0.166
343.50	0.166
343.71	0.166
343.92	0.166
344.13	0.165
344.34	0.165
344.55	0.165
344.76	0.165
344.97	0.165
345.18	0.165
345.38	0.165
345.59	0.165
345.80	0.166
346.01	0.166
346.22	0.166
346.43	0.166
346.64	0.166
346.85	0.166
347.06	0.165
347.26	0.165
347.47	0.165
347.68	0.165
347.89	0.164
348.10	0.164
348.31	0.163
348.52	0.163
348.73	0.163
348.93	0.163
349.14	0.163
349.35	0.164
349.56	0.163
349.77	0.164
349.98	0.164
350.19	0.164
350.39	0.163
350.60	0.164
350.81	0.163
351.02	0.163
351.23	0.163
351.44	0.162
351.65	0.162
351.86	0.162
352.06	0.162
352.27	0.161
352.48	0.160
352.69	0.160
352.90	0.160
353.11	0.160
353.31	0.160
353.52	0.161
353.73	0.161
353.94	0.160
354.15	0.160
354.36	0.160
354.57	0.160
354.77	0.160
354.98	0.160
355.19	0.160
355.40	0.160
355.61	0.159
355.82	0.159
356.02	0.159
356.23	0.159
356.44	0.159
356.65	0.158
356.86	0.158
357.07	0.157
357.27	0.157
357.48	0.156
357.69	0.156
357.90	0.156
358.11	0.156
358.32	0.156
358.52	0.156
358.73	0.155
358.94	0.156
359.15	0.156
359.36	0.156
359.56	0.156
359.77	0.156
359.98	0.156
360.19	0.156
360.40	0.156
360.61	0.157
360.81	0.156
361.02	0.156
361.23	0.156
361.44	0.157
361.65	0.157
361.85	0.157
362.06	0.158
362.27	0.157
362.48	0.157
362.69	0.157
362.89	0.157
363.10	0.157
363.31	0.157
363.52	0.157
363.73	0.156
363.93	0.156
364.14	0.156
364.35	0.156
364.56	0.156
364.77	0.156
364.97	0.156
365.18	0.156
365.39	0.156
365.60	0.156
365.81	0.155
366.01	0.155
366.22	0.155
366.43	0.155
366.64	0.155
366.84	0.154
367.05	0.154
367.26	0.153
367.47	0.153
367.68	0.153
367.88	0.153
368.09	0.153
368.30	0.153
368.51	0.153
368.71	0.153
368.92	0.153
369.13	0.153
369.34	0.153
369.55	0.153
369.75	0.153
369.96	0.153
370.17	0.153
370.38	0.153
370.58	0.153
370.79	0.153
371.00	0.153
371.21	0.153
371.41	0.153
371.62	0.153
371.83	0.153
372.04	0.153
372.24	0.153
372.45	0.153
372.66	0.152
372.87	0.153
373.07	0.152
373.28	0.152
373.49	0.152
373.70	0.152
373.90	0.152
374.11	0.152
374.32	0.152
374.53	0.151
374.73	0.151
374.94	0.151
375.15	0.151
375.36	0.151
375.56	0.151
375.77	0.150
375.98	0.150
376.19	0.150
376.39	0.150
376.60	0.150
376.81	0.150
377.02	0.150
377.22	0.150
377.43	0.150
377.64	0.150
377.84	0.150
378.05	0.151
378.26	0.150
378.47	0.150
378.67	0.150
378.88	0.150
379.09	0.149
379.30	0.149
379.50	0.149
379.71	0.148
379.92	0.148
380.12	0.148
380.33	0.148
380.54	0.148
380.75	0.148
380.95	0.148
381.16	0.148
381.37	0.148
381.57	0.148
381.78	0.148
381.99	0.147
382.20	0.147
382.40	0.147
382.61	0.147
382.82	0.147
383.02	0.147
383.23	0.147
383.44	0.147
383.64	0.147
383.85	0.146
384.06	0.146
384.27	0.146
384.47	0.147
384.68	0.147
384.89	0.147
385.09	0.147
385.30	0.147
385.51	0.147
385.71	0.147
385.92	0.146
386.13	0.146
386.33	0.147
386.54	0.146
386.75	0.146
386.95	0.146
387.16	0.146
387.37	0.146
387.58	0.146
387.78	0.146
387.99	0.146
388.20	0.145
388.40	0.146
388.61	0.145
388.82	0.145
389.02	0.144
389.23	0.144
389.44	0.144
389.64	0.145
389.85	0.144
390.06	0.144
390.26	0.143
390.47	0.143
390.68	0.143
390.88	0.143
391.09	0.143
391.30	0.143
391.50	0.143
391.71	0.142
391.92	0.142
392.12	0.142
392.33	0.142
392.53	0.142
392.74	0.141
392.95	0.141
393.15	0.141
393.36	0.141
393.57	0.141
393.77	0.141
393.98	0.141
394.19	0.141
394.39	0.140
394.60	0.140
394.81	0.140
395.01	0.141
395.22	0.141
395.43	0.141
395.63	0.140
395.84	0.140
396.04	0.140
396.25	0.140
396.46	0.139
396.66	0.139
396.87	0.139
397.08	0.139
397.28	0.139
397.49	0.139
397.69	0.139
397.90	0.139
398.11	0.139
398.31	0.138
398.52	0.139
398.73	0.139
398.93	0.138
399.14	0.138
399.34	0.138
399.55	0.138
399.76	0.138
399.96	0.137
400.17	0.137
400.37	0.137
400.58	0.137
400.79	0.137
400.99	0.137
401.20	0.137
401.41	0.137
401.61	0.137
401.82	0.137
402.02	0.137
402.23	0.136
402.44	0.136
402.64	0.136
402.85	0.136
403.05	0.136
403.26	0.136
403.47	0.136
403.67	0.135
403.88	0.135
404.08	0.135
404.29	0.135
404.50	0.135
404.70	0.135
404.91	0.134
405.11	0.134
405.32	0.135
405.52	0.134
405.73	0.134
405.94	0.134
406.14	0.133
406.35	0.133
406.55	0.133
406.76	0.133
406.97	0.133
407.17	0.133
407.38	0.133
407.58	0.132
407.79	0.132
407.99	0.132
408.20	0.132
408.41	0.132
408.61	0.132
408.82	0.132
409.02	0.131
409.23	0.131
409.43	0.131
409.64	0.131
409.84	0.132
410.05	0.132
410.26	0.132
410.46	0.131
410.67	0.131
410.87	0.131
411.08	0.131
411.28	0.131
411.49	0.131
411.69	0.130
411.90	0.131
412.11	0.130
412.31	0.131
412.52	0.131
412.72	0.131
412.93	0.130
413.13	0.131
413.34	0.131
413.54	0.131
413.75	0.131
413.95	0.131
414.16	0.131
414.37	0.131
414.57	0.131
414.78	0.130
414.98	0.130
415.19	0.131
415.39	0.130
415.60	0.130
415.80	0.130
416.01	0.130
416.21	0.129
416.42	0.129
416.62	0.129
416.83	0.129
417.03	0.129
417.24	0.129
417.44	0.129
417.65	0.129
417.86	0.129
418.06	0.129
418.27	0.129
418.47	0.129
418.68	0.129
418.88	0.129
419.09	0.129
419.29	0.129
419.50	0.129
419.70	0.129
419.91	0.129
420.11	0.129
420.32	0.129
420.52	0.129
420.73	0.129
420.93	0.129
421.14	0.128
421.34	0.128
421.55	0.128
421.75	0.129
421.96	0.128
422.16	0.129
422.37	0.128
422.57	0.128
422.78	0.128
422.98	0.128
423.19	0.128
423.39	0.127
423.60	0.127
423.80	0.127
424.01	0.127
424.21	0.127
424.42	0.126
424.62	0.127
424.83	0.127
425.03	0.127
425.23	0.127
425.44	0.127
425.64	0.127
425.85	0.127
426.05	0.127
426.26	0.127
426.46	0.126
426.67	0.126
426.87	0.126
427.08	0.126
427.28	0.126
427.49	0.126
427.69	0.126
427.90	0.126
428.10	0.126
428.31	0.127
428.51	0.127
428.71	0.127
428.92	0.127
429.12	0.127
429.33	0.127
429.53	0.127
429.74	0.127
429.94	0.127
430.15	0.127
430.35	0.126
430.56	0.126
430.76	0.126
430.96	0.126
431.17	0.126
431.37	0.126
431.58	0.126
431.78	0.126
431.99	0.126
432.19	0.126
432.40	0.126
432.60	0.126
432.80	0.126
433.01	0.126
433.21	0.125
433.42	0.126
433.62	0.126
433.83	0.126
434.03	0.126
434.23	0.126
434.44	0.127
434.64	0.127
434.85	0.127
435.05	0.127
435.26	0.127
435.46	0.127
435.66	0.127
435.87	0.127
436.07	0.127
436.28	0.127
436.48	0.127
436.69	0.127
436.89	0.127
437.09	0.127
437.30	0.128
437.50	0.127
437.71	0.127
437.91	0.127
438.11	0.127
438.32	0.127
438.52	0.127
438.73	0.126
438.93	0.127
439.13	0.126
439.34	0.127
439.54	0.127
439.75	0.127
439.95	0.127
440.15	0.127
440.36	0.126
440.56	0.127
440.77	0.127
440.97	0.127
441.17	0.126
441.38	0.126
441.58	0.126
441.79	0.126
441.99	0.126
442.19	0.126
442.40	0.126
442.60	0.126
442.81	0.126
443.01	0.126
443.21	0.126
443.42	0.126
443.62	0.125
443.82	0.125
444.03	0.126
444.23	0.126
444.44	0.125
444.64	0.125
444.84	0.126
445.05	0.126
445.25	0.126
445.45	0.125
445.66	0.125
445.86	0.126
446.06	0.125
446.27	0.125
446.47	0.125
446.68	0.126
446.88	0.125
447.08	0.125
447.29	0.125
447.49	0.125
447.69	0.125
447.90	0.125
448.10	0.125
448.30	0.125
448.51	0.125
448.71	0.125
448.91	0.125
449.12	0.125
449.32	0.125
449.52	0.125
449.73	0.125
449.93	0.124
450.14	0.124
450.34	0.125
450.54	0.124
450.75	0.124
450.95	0.124
451.15	0.124
451.36	0.124
451.56	0.125
451.76	0.125
451.97	0.125
452.17	0.125
452.37	0.125
452.58	0.125
452.78	0.125
452.98	0.125
453.19	0.125
453.39	0.126
453.59	0.126
453.79	0.125
454.00	0.125
454.20	0.125
454.40	0.125
454.61	0.125
454.81	0.125
455.01	0.125
455.22	0.125
455.42	0.125
455.62	0.125
455.83	0.125
456.03	0.125
456.23	0.125
456.44	0.125
456.64	0.125
456.84	0.125
457.04	0.125
457.25	0.125
457.45	0.125
457.65	0.125
457.86	0.125
458.06	0.125
458.26	0.125
458.47	0.125
458.67	0.125
458.87	0.125
459.07	0.125
459.28	0.125
459.48	0.125
459.68	0.125
459.89	0.124
460.09	0.124
460.29	0.124
460.49	0.124
460.70	0.124
460.90	0.124
461.10	0.124
461.31	0.124
461.51	0.124
461.71	0.124
461.91	0.124
462.12	0.124
462.32	0.125
462.52	0.125
462.72	0.125
462.93	0.125
463.13	0.125
463.33	0.125
463.53	0.125
463.74	0.125
463.94	0.125
464.14	0.125
464.35	0.125
464.55	0.125
464.75	0.126
464.95	0.126
465.16	0.125
465.36	0.125
465.56	0.125
465.76	0.126
465.97	0.126
466.17	0.126
466.37	0.125
466.57	0.125
466.78	0.125
466.98	0.124
467.18	0.124
467.38	0.124
467.59	0.124
467.79	0.124
467.99	0.124
468.19	0.123
468.39	0.123
468.60	0.123
468.80	0.123
469.00	0.123
469.20	0.124
469.41	0.124
469.61	0.124
469.81	0.124
470.01	0.124
470.22	0.124
470.42	0.125
470.62	0.125
470.82	0.125
471.02	0.125
471.23	0.125
471.43	0.125
471.63	0.125
471.83	0.125
472.04	0.125
472.24	0.125
472.44	0.125
472.64	0.125
472.84	0.125
473.05	0.125
473.25	0.125
473.45	0.125
473.65	0.125
473.85	0.124
474.06	0.124
474.26	0.125
474.46	0.124
474.66	0.124
474.86	0.124
475.07	0.125
475.27	0.124
475.47	0.125
475.67	0.125
475.87	0.125
476.08	0.124
476.28	0.125
476.48	0.124
476.68	0.124
476.88	0.124
477.09	0.124
477.29	0.124
477.49	0.124
477.69	0.124
477.89	0.124
478.09	0.124
478.30	0.124
478.50	0.124
478.70	0.124
478.90	0.124
479.10	0.125
479.31	0.125
479.51	0.125
479.71	0.125
479.91	0.125
480.11	0.125
480.31	0.125
480.52	0.125
480.72	0.125
480.92	0.125
481.12	0.125
481.32	0.125
481.52	0.125
481.72	0.125
481.93	0.125
482.13	0.125
482.33	0.125
482.53	0.125
482.73	0.125
482.93	0.125
483.14	0.125
483.34	0.125
483.54	0.125
483.74	0.125
483.94	0.125
484.14	0.125
484.34	0.125
484.55	0.125
484.75	0.125
484.95	0.124
485.15	0.124
485.35	0.124
485.55	0.125
485.75	0.124
485.96	0.124
486.16	0.124
486.36	0.125
486.56	0.125
486.76	0.125
486.96	0.125
487.16	0.125
487.36	0.125
487.57	0.126
487.77	0.126
487.97	0.125
488.17	0.125
488.37	0.125
488.57	0.125
488.77	0.125
488.97	0.125
489.18	0.125
489.38	0.125
489.58	0.124
489.78	0.124
489.98	0.124
490.18	0.124
490.38	0.124
490.58	0.124
490.78	0.124
490.98	0.124
491.19	0.125
491.39	0.125
491.59	0.125
491.79	0.125
491.99	0.125
492.19	0.125
492.39	0.125
492.59	0.125
492.79	0.125
492.99	0.125
493.20	0.125
493.40	0.125
493.60	0.124
493.80	0.124
494.00	0.124
494.20	0.124
494.40	0.123
494.60	0.123
494.80	0.123
495.00	0.123
495.20	0.123
495.40	0.123
495.61	0.123
495.81	0.123
496.01	0.123
496.21	0.123
496.41	0.123
496.61	0.124
496.81	0.124
497.01	0.124
497.21	0.124
497.41	0.124
497.61	0.124
497.81	0.124
498.01	0.124
498.21	0.124
498.41	0.125
498.61	0.124
498.82	0.124
499.02	0.124
499.22	0.124
499.42	0.124
499.62	0.124
499.82	0.124
500.02	0.125
500.22	0.125
500.42	0.125
500.62	0.125
500.82	0.125
501.02	0.125
501.22	0.125
501.42	0.125
501.62	0.125
501.82	0.124
502.02	0.125
502.22	0.124
502.42	0.124
502.62	0.124
502.82	0.124
503.02	0.124
503.22	0.124
503.42	0.124
503.63	0.124
503.83	0.124
504.03	0.124
504.23	0.124
504.43	0.124
504.63	0.124
504.83	0.125
505.03	0.124
505.23	0.124
505.43	0.124
505.63	0.124
505.83	0.124
506.03	0.125
506.23	0.124
506.43	0.124
506.63	0.124
506.83	0.124
507.03	0.124
507.23	0.124
507.43	0.124
507.63	0.124
507.83	0.124
508.03	0.124
508.23	0.125
508.43	0.125
508.63	0.125
508.83	0.125
509.03	0.124
509.23	0.125
509.43	0.125
509.63	0.125
509.83	0.125
510.03	0.125
510.23	0.125
510.43	0.124
510.63	0.124
510.83	0.125
511.03	0.124
511.23	0.125
511.43	0.124
511.63	0.124
511.83	0.124
512.03	0.124
512.22	0.124
512.42	0.125
512.62	0.125
512.82	0.125
513.02	0.125
513.22	0.125
513.42	0.125
513.62	0.125
513.82	0.125
514.02	0.126
514.22	0.125
514.42	0.126
514.62	0.125
514.82	0.125
515.02	0.125
515.22	0.125
515.42	0.125
515.62	0.125
515.82	0.125
516.02	0.125
516.22	0.125
516.42	0.125
516.62	0.125
516.82	0.125
517.01	0.125
517.21	0.125
517.41	0.125
517.61	0.125
517.81	0.125
518.01	0.125
518.21	0.125
518.41	0.125
518.61	0.125
518.81	0.125
519.01	0.126
519.21	0.126
519.41	0.126
519.61	0.126
519.81	0.126
520.00	0.126
520.20	0.126
520.40	0.126
520.60	0.126
520.80	0.127
521.00	0.126
521.20	0.126
521.40	0.126
521.60	0.126
521.80	0.126
522.00	0.126
522.20	0.125
522.39	0.125
522.59	0.125
522.79	0.125
522.99	0.125
523.19	0.126
523.39	0.126
523.59	0.126
523.79	0.126
523.99	0.127
524.19	0.126
524.38	0.127
524.58	0.127
524.78	0.127
524.98	0.127
525.18	0.127
525.38	0.127
525.58	0.127
525.78	0.127
525.98	0.126
526.18	0.126
526.37	0.127
526.57	0.126
526.77	0.127
526.97	0.126
527.17	0.126
527.37	0.126
527.57	0.126
527.77	0.126
527.96	0.126
528.16	0.127
528.36	0.127
528.56	0.126
528.76	0.127
528.96	0.127
529.16	0.127
529.36	0.127
529.55	0.127
529.75	0.128
529.95	0.128
530.15	0.128
530.35	0.128
530.55	0.128
530.75	0.128
530.94	0.128
531.14	0.128
531.34	0.128
531.54	0.128
531.74	0.128
531.94	0.127
532.13	0.128
532.33	0.128
532.53	0.127
532.73	0.128
532.93	0.128
533.13	0.128
533.33	0.128
533.52	0.128
533.72	0.128
533.92	0.128
534.12	0.128
534.32	0.128
534.52	0.128
534.71	0.128
534.91	0.128
535.11	0.128
535.31	0.128
535.51	0.128
535.71	0.127
535.90	0.128
536.10	0.127
536.30	0.127
536.50	0.127
536.70	0.127
536.89	0.127
537.09	0.128
537.29	0.128
537.49	0.128
537.69	0.128
537.89	0.129
538.08	0.129
538.28	0.129
538.48	0.129
538.68	0.129
538.88	0.129
539.07	0.129
539.27	0.128
539.47	0.128
539.67	0.129
539.87	0.129
540.06	0.129
540.26	0.129
540.46	0.128
540.66	0.129
540.86	0.129
541.05	0.129
541.25	0.129
541.45	0.129
541.65	0.129
541.84	0.129
542.04	0.129
542.24	0.129
542.44	0.129
542.64	0.130
542.83	0.130
543.03	0.130
543.23	0.130
543.43	0.131
543.62	0.131
543.82	0.131
544.02	0.131
544.22	0.131
544.42	0.131
544.61	0.131
544.81	0.131
545.01	0.131
545.21	0.131
545.40	0.130
545.60	0.130
545.80	0.130
546.00	0.130
546.19	0.130
546.39	0.130
546.59	0.130
546.79	0.130
546.98	0.130
547.18	0.130
547.38	0.130
547.58	0.130
547.77	0.130
547.97	0.130
548.17	0.130
548.37	0.130
548.56	0.131
548.76	0.130
548.96	0.130
549.16	0.130
549.35	0.131
549.55	0.131
549.75	0.131
549.95	0.131
550.14	0.131
550.34	0.131
550.54	0.131
550.73	0.131
550.93	0.131
551.13	0.132
551.33	0.132
551.52	0.131
551.72	0.132
551.92	0.132
552.12	0.132
552.31	0.132
552.51	0.132
552.71	0.132
552.90	0.132
553.10	0.131
553.30	0.131
553.50	0.131
553.69	0.131
553.89	0.131
554.09	0.131
554.28	0.130
554.48	0.131
554.68	0.130
554.87	0.130
555.07	0.130
555.27	0.131
555.47	0.130
555.66	0.131
555.86	0.131
556.06	0.131
556.25	0.131
556.45	0.132
556.65	0.132
556.84	0.133
557.04	0.133
557.24	0.133
557.43	0.132
557.63	0.133
557.83	0.133
558.02	0.133
558.22	0.133
558.42	0.133
558.61	0.134
558.81	0.134
559.01	0.133
559.21	0.133
559.40	0.134
559.60	0.134
559.80	0.134
559.99	0.134
560.19	0.133
560.39	0.134
560.58	0.133
560.78	0.133
560.97	0.133
561.17	0.133
561.37	0.134
561.56	0.133
561.76	0.134
561.96	0.133
562.15	0.133
562.35	0.133
562.55	0.132
562.74	0.132
562.94	0.132
563.14	0.132
563.33	0.132
563.53	0.132
563.73	0.132
563.92	0.132
564.12	0.132
564.31	0.132
564.51	0.132
564.71	0.132
564.90	0.132
565.10	0.133
565.30	0.133
565.49	0.133
565.69	0.133
565.89	0.133
566.08	0.133
566.28	0.133
566.47	0.133
566.67	0.133
566.87	0.134
567.06	0.134
567.26	0.133
567.46	0.134
567.65	0.134
567.85	0.134
568.04	0.134
568.24	0.134
568.44	0.134
568.63	0.134
568.83	0.134
569.02	0.134
569.22	0.134
569.42	0.134
569.61	0.134
569.81	0.134
570.00	0.133
570.20	0.133
570.40	0.133
570.59	0.133
570.79	0.132
570.98	0.132
571.18	0.132
571.38	0.132
571.57	0.132
571.77	0.132
571.96	0.132
572.16	0.132
572.35	0.132
572.55	0.132
572.75	0.132
572.94	0.132
573.14	0.132
573.33	0.132
573.53	0.131
573.73	0.131
573.92	0.131
574.12	0.132
574.31	0.131
574.51	0.131
574.70	0.131
574.90	0.131
575.09	0.131
575.29	0.131
575.49	0.131
575.68	0.131
575.88	0.131
576.07	0.131
576.27	0.131
576.46	0.131
576.66	0.131
576.86	0.131
577.05	0.131
577.25	0.131
577.44	0.131
577.64	0.132
577.83	0.131
578.03	0.132
578.22	0.132
578.42	0.132
578.61	0.131
578.81	0.131
579.00	0.131
579.20	0.131
579.40	0.130
579.59	0.130
579.79	0.130
579.98	0.130
580.18	0.130
580.37	0.130
580.57	0.130
580.76	0.130
580.96	0.130
581.15	0.130
581.35	0.130
581.54	0.130
581.74	0.130
581.93	0.130
582.13	0.130
582.32	0.130
582.52	0.130
582.71	0.130
582.91	0.130
583.10	0.130
583.30	0.130
583.49	0.130
583.69	0.130
583.88	0.131
584.08	0.131
584.27	0.131
584.47	0.131
584.66	0.131
584.86	0.131
585.05	0.131
585.25	0.131
585.44	0.131
585.64	0.131
585.83	0.131
586.03	0.131
586.22	0.131
586.42	0.130
586.61	0.131
586.81	0.130
587.00	0.130
587.20	0.130
587.39	0.130
587.59	0.130
587.78	0.130
587.98	0.130
588.17	0.130
588.37	0.130
588.56	0.130
588.76	0.130
588.95	0.130
589.15	0.130
589.34	0.130
589.54	0.131
589.73	0.131
589.92	0.131
590.12	0.131
590.31	0.131
590.51	0.131
590.70	0.132
590.90	0.131
591.09	0.132
591.29	0.132
591.48	0.132
591.68	0.132
591.87	0.131
592.06	0.131
592.26	0.131
592.45	0.131
592.65	0.131
592.84	0.131
593.04	0.131
593.23	0.131
593.43	0.131
593.62	0.131
593.81	0.131
594.01	0.131
594.20	0.131
594.40	0.132
594.59	0.132
594.79	0.132
594.98	0.132
595.17	0.132
595.37	0.132
595.56	0.132
595.76	0.132
595.95	0.132
596.14	0.132
596.34	0.132
596.53	0.132
596.73	0.132
596.92	0.132
597.12	0.132
597.31	0.132
597.50	0.132
597.70	0.131
597.89	0.131
598.09	0.131
598.28	0.131
598.47	0.130
598.67	0.131
598.86	0.130
599.06	0.130
599.25	0.130
599.44	0.130
599.64	0.129
599.83	0.129
600.03	0.129
600.22	0.129
600.41	0.129
600.61	0.129
600.80	0.129
601.00	0.129
601.19	0.129
601.38	0.129
601.58	0.129
601.77	0.129
601.96	0.129
602.16	0.129
602.35	0.129
602.55	0.129
602.74	0.130
602.93	0.130
603.13	0.130
603.32	0.131
603.51	0.131
603.71	0.131
603.90	0.131
604.09	0.131
604.29	0.131
604.48	0.132
604.68	0.131
604.87	0.131
605.06	0.131
605.26	0.131
605.45	0.131
605.64	0.131
605.84	0.131
606.03	0.131
606.22	0.131
606.42	0.131
606.61	0.131
606.80	0.131
607.00	0.131
607.19	0.131
607.38	0.130
607.58	0.131
607.77	0.131
607.96	0.131
608.16	0.131
608.35	0.131
608.54	0.130
608.74	0.131
608.93	0.130
609.12	0.130
609.32	0.130
609.51	0.131
609.70	0.130
609.90	0.131
610.09	0.131
610.28	0.131
610.48	0.131
610.67	0.132
610.86	0.132
611.06	0.133
611.25	0.133
611.44	0.133
611.64	0.133
611.83	0.133
612.02	0.133
612.21	0.133
612.41	0.133
612.60	0.133
612.79	0.132
612.99	0.132
613.18	0.132
613.37	0.133
613.57	0.132
613.76	0.132
613.95	0.132
614.14	0.133
614.34	0.132
614.53	0.132
614.72	0.132
614.92	0.132
615.11	0.132
615.30	0.132
615.49	0.132
615.69	0.132
615.88	0.133
616.07	0.133
616.26	0.133
616.46	0.133
616.65	0.133
616.84	0.134
617.04	0.133
617.23	0.133
617.42	0.133
617.61	0.134
617.81	0.133
618.00	0.134
618.19	0.134
618.38	0.134
618.58	0.134
618.77	0.135
618.96	0.135
619.15	0.135
619.35	0.135
619.54	0.136
619.73	0.136
619.92	0.136
620.12	0.136
620.31	0.136
620.50	0.136
620.69	0.136
620.89	0.136
621.08	0.136
621.27	0.135
621.46	0.136
621.66	0.135
621.85	0.135
622.04	0.134
622.23	0.135
622.43	0.134
622.62	0.134
622.81	0.134
623.00	0.134
623.19	0.133
623.39	0.134
623.58	0.134
623.77	0.134
623.96	0.134
624.16	0.134
624.35	0.134
624.54	0.134
624.73	0.134
624.92	0.134
625.12	0.134
625.31	0.134
625.50	0.133
625.69	0.133
625.88	0.133
626.08	0.134
626.27	0.134
626.46	0.134
626.65	0.133
626.84	0.134
627.04	0.133
627.23	0.134
627.42	0.134
627.61	0.135
627.80	0.135
628.00	0.135
628.19	0.134
628.38	0.134
628.57	0.134
628.76	0.134
628.96	0.134
629.15	0.135
629.34	0.134
629.53	0.134
629.72	0.134
629.91	0.135
630.11	0.134
630.30	0.134
630.49	0.134
630.68	0.134
630.87	0.134
631.06	0.135
631.26	0.135
631.45	0.135
631.64	0.135
631.83	0.135
632.02	0.136
632.21	0.136
632.41	0.137
632.60	0.137
632.79	0.137
632.98	0.137
633.17	0.136
633.36	0.137
633.55	0.137
633.75	0.138
633.94	0.138
634.13	0.138
634.32	0.137
634.51	0.137
634.70	0.137
634.89	0.138
635.09	0.138
635.28	0.138
635.47	0.137
635.66	0.137
635.85	0.136
636.04	0.136
636.23	0.136
636.43	0.136
636.62	0.136
636.81	0.136
637.00	0.135
637.19	0.135
637.38	0.135
637.57	0.136
637.76	0.136
637.95	0.135
638.15	0.135
638.34	0.135
638.53	0.135
638.72	0.136
638.91	0.136
639.10	0.136
639.29	0.136
639.48	0.136
639.67	0.136
639.87	0.136
640.06	0.136
640.25	0.137
640.44	0.136
640.63	0.136
640.82	0.136
641.01	0.136
641.20	0.137
641.39	0.137
641.58	0.138
641.78	0.138
641.97	0.137
642.16	0.137
642.35	0.137
642.54	0.137
642.73	0.137
642.92	0.137
643.11	0.137
643.30	0.136
643.49	0.136
643.68	0.135
643.87	0.135
644.06	0.135
644.25	0.136
644.45	0.136
644.64	0.137
644.83	0.137
645.02	0.137
645.21	0.137
645.40	0.137
645.59	0.137
645.78	0.137
645.97	0.137
646.16	0.137
646.35	0.136
646.54	0.135
646.73	0.135
646.92	0.135
647.11	0.135
647.30	0.135
647.49	0.135
647.68	0.134
647.88	0.134
648.07	0.134
648.26	0.134
648.45	0.134
648.64	0.134
648.83	0.134
649.02	0.134
649.21	0.133
649.40	0.132
649.59	0.132
649.78	0.132
649.97	0.132
650.16	0.131
650.35	0.131
650.54	0.131
650.73	0.130
650.92	0.131
651.11	0.131
651.30	0.131
651.49	0.131
651.68	0.131
651.87	0.131
652.06	0.132
652.25	0.132
652.44	0.133
652.63	0.133
652.82	0.134
653.01	0.133
653.20	0.132
653.39	0.132
653.58	0.131
653.77	0.131
653.96	0.130
654.15	0.129
654.34	0.129
654.53	0.128
654.72	0.127
654.91	0.126
655.10	0.126
655.29	0.126
655.48	0.126
655.67	0.125
655.86	0.125
656.05	0.124
656.24	0.124
656.43	0.124
656.62	0.123
656.81	0.123
657.00	0.122
657.19	0.122
657.38	0.122
657.57	0.122
657.76	0.122
657.95	0.122
658.14	0.122
658.33	0.122
658.51	0.123
658.70	0.123
658.89	0.125
659.08	0.125
659.27	0.126
659.46	0.127
659.65	0.128
659.84	0.128
660.03	0.128
660.22	0.128
660.41	0.129
660.60	0.129
660.79	0.129
660.98	0.128
661.17	0.128
661.36	0.128
661.55	0.129
661.74	0.128
661.92	0.128
662.11	0.128
662.30	0.128
662.49	0.128
662.68	0.128
662.87	0.127
663.06	0.128
663.25	0.128
663.44	0.128
663.63	0.127
663.82	0.128
664.01	0.127
664.20	0.128
664.38	0.127
664.57	0.127
664.76	0.126
664.95	0.127
665.14	0.126
665.33	0.126
665.52	0.126
665.71	0.126
665.90	0.126
666.09	0.127
666.28	0.126
666.46	0.126
666.65	0.126
666.84	0.126
667.03	0.126
667.22	0.126
667.41	0.126
667.60	0.127
667.79	0.126
667.98	0.126
668.16	0.125
668.35	0.124
668.54	0.125
668.73	0.125
668.92	0.124
669.11	0.124
669.30	0.124
669.49	0.124
669.67	0.123
669.86	0.123
670.05	0.123
670.24	0.123
670.43	0.123
670.62	0.123
670.81	0.122
671.00	0.122
671.18	0.121
671.37	0.121
671.56	0.121
671.75	0.121
671.94	0.121
672.13	0.121
672.32	0.121
672.50	0.121
672.69	0.120
672.88	0.120
673.07	0.120
673.26	0.120
673.45	0.120
673.63	0.120
673.82	0.120
674.01	0.120
674.20	0.120
674.39	0.119
674.58	0.120
674.76	0.120
674.95	0.120
675.14	0.121
675.33	0.120
675.52	0.120
675.71	0.120
675.89	0.120
676.08	0.120
676.27	0.120
676.46	0.120
676.65	0.120
676.84	0.119
677.02	0.119
677.21	0.118
677.40	0.119
677.59	0.118
677.78	0.119
677.96	0.118
678.15	0.118
678.34	0.118
678.53	0.117
678.72	0.116
678.90	0.117
679.09	0.116
679.28	0.117
679.47	0.117
679.66	0.116
679.84	0.116
680.03	0.116
680.22	0.116
680.41	0.116
680.60	0.116
680.78	0.117
680.97	0.117
681.16	0.117
681.35	0.116
681.53	0.116
681.72	0.116
681.91	0.116
682.10	0.115
682.29	0.115
682.47	0.115
682.66	0.115
682.85	0.115
683.04	0.114
683.22	0.114
683.41	0.114
683.60	0.114
683.79	0.113
683.97	0.113
684.16	0.113
684.35	0.112
684.54	0.112
684.72	0.111
684.91	0.111
685.10	0.111
685.29	0.111
685.47	0.111
685.66	0.111
685.85	0.111
686.04	0.111
686.22	0.110
686.41	0.110
686.60	0.110
686.79	0.110
686.97	0.110
687.16	0.110
687.35	0.109
687.54	0.109
687.72	0.109
687.91	0.109
688.10	0.109
688.29	0.109
688.47	0.109
688.66	0.109
688.85	0.109
689.03	0.109
689.22	0.109
689.41	0.109
689.60	0.109
689.78	0.109
689.97	0.109
690.16	0.109
690.34	0.109
690.53	0.110
690.72	0.109
690.91	0.109
691.09	0.109
691.28	0.110
691.47	0.110
691.65	0.110
691.84	0.109
692.03	0.110
692.21	0.110
692.40	0.109
692.59	0.109
692.77	0.109
692.96	0.109
693.15	0.108
693.34	0.108
693.52	0.108
693.71	0.107
693.90	0.107
694.08	0.106
694.27	0.106
694.46	0.105
694.64	0.105
694.83	0.105
695.02	0.106
695.20	0.106
695.39	0.106
695.58	0.105
695.76	0.106
695.95	0.105
696.14	0.106
696.32	0.105
696.51	0.105
696.70	0.105
696.88	0.105
697.07	0.104
697.26	0.104
697.44	0.103
697.63	0.103
697.81	0.103
698.00	0.104
698.19	0.103
698.37	0.104
698.56	0.104
698.75	0.104
698.93	0.104
699.12	0.105
699.31	0.104
699.49	0.104
699.68	0.104
699.87	0.104
700.05	0.104
700.24	0.104
700.42	0.104
700.61	0.104
700.80	0.104
700.98	0.104
701.17	0.104
701.36	0.104
701.54	0.104
701.73	0.104
701.91	0.104
702.10	0.104
702.29	0.104
702.47	0.104
702.66	0.104
702.84	0.104
703.03	0.104
703.22	0.104
703.40	0.104
703.59	0.104
703.77	0.103
703.96	0.104
704.15	0.103
704.33	0.103
704.52	0.103
704.70	0.103
704.89	0.102
705.08	0.103
705.26	0.103
705.45	0.102
705.63	0.102
705.82	0.103
706.00	0.102
706.19	0.103
706.38	0.102
706.56	0.102
706.75	0.102
706.93	0.102
707.12	0.102
707.30	0.101
707.49	0.101
707.68	0.101
707.86	0.100
708.05	0.100
708.23	0.100
708.42	0.100
708.60	0.100
708.79	0.100
708.98	0.100
709.16	0.100
709.35	0.100
709.53	0.099
709.72	0.099
709.90	0.099
710.09	0.099
710.27	0.099
710.46	0.099
710.64	0.099
710.83	0.099
711.02	0.099
711.20	0.098
711.39	0.099
711.57	0.099
711.76	0.099
711.94	0.099
712.13	0.099
712.31	0.099
712.50	0.100
712.68	0.100
712.87	0.099
713.05	0.099
713.24	0.099
713.42	0.099
713.61	0.098
713.79	0.098
713.98	0.098
714.16	0.098
714.35	0.099
714.54	0.099
714.72	0.099
714.91	0.099
715.09	0.099
715.28	0.099
715.46	0.099
715.65	0.100
715.83	0.100
716.02	0.100
716.20	0.100
716.39	0.100
716.57	0.100
716.76	0.099
716.94	0.099
717.12	0.099
717.31	0.099
717.49	0.099
717.68	0.099
717.86	0.099
718.05	0.099
718.23	0.099
718.42	0.099
718.60	0.098
718.79	0.099
718.97	0.099
719.16	0.099
719.34	0.098
719.53	0.099
719.71	0.099
719.90	0.099
720.08	0.098
720.27	0.098
720.45	0.098
720.63	0.098
720.82	0.098
721.00	0.098
721.19	0.098
721.37	0.098
721.56	0.097
721.74	0.097
721.93	0.097
722.11	0.097
722.30	0.097
722.48	0.097
722.66	0.097
722.85	0.097
723.03	0.096
723.22	0.096
723.40	0.096
723.59	0.097
723.77	0.096
723.95	0.096
724.14	0.096
724.32	0.096
724.51	0.095
724.69	0.096
724.88	0.097
725.06	0.097
725.24	0.096
725.43	0.098
725.61	0.098
725.80	0.099
725.98	0.099
726.16	0.099
726.35	0.099
726.53	0.099
726.72	0.099
726.90	0.098
727.09	0.098
727.27	0.098
727.45	0.097
727.64	0.096
727.82	0.095
728.01	0.095
728.19	0.095
728.37	0.095
728.56	0.095
728.74	0.094
728.92	0.094
729.11	0.095
729.29	0.095
729.48	0.096
729.66	0.097
729.84	0.098
730.03	0.098
730.21	0.097
730.40	0.098
730.58	0.099
730.76	0.099
730.95	0.099
731.13	0.098
731.31	0.098
731.50	0.097
731.68	0.098
731.86	0.098
732.05	0.097
732.23	0.097
732.42	0.099
732.60	0.097
732.78	0.097
732.97	0.096
733.15	0.097
733.33	0.097
733.52	0.096
733.70	0.095
733.88	0.095
734.07	0.095
734.25	0.094
734.43	0.095
734.62	0.096
734.80	0.096
734.98	0.098
735.17	0.098
735.35	0.099
735.53	0.100
735.72	0.100
735.90	0.100
736.08	0.102
736.27	0.103
736.45	0.104
736.63	0.106
736.82	0.106
737.00	0.105
737.18	0.106
737.37	0.104
737.55	0.105
737.73	0.106
737.92	0.107
738.10	0.109
738.28	0.109
738.46	0.108
738.65	0.107
738.83	0.109
739.01	0.110
739.20	0.111
739.38	0.113
739.56	0.116
739.75	0.118
739.93	0.121
740.11	0.118
740.29	0.118
740.48	0.120
740.66	0.123
740.84	0.125
741.03	0.127
741.21	0.128
741.39	0.132
741.57	0.133
741.76	0.133
741.94	0.133
742.12	0.138
742.31	0.140
742.49	0.142
742.67	0.142
742.85	0.139
743.04	0.143
743.22	0.144
743.40	0.140
743.58	0.143
743.77	0.144
743.95	0.147
744.13	0.144
744.31	0.146
744.50	0.143
744.68	0.143
744.86	0.145
745.04	0.141
745.23	0.139
745.41	0.142
745.59	0.140
745.77	0.144
745.96	0.145
746.14	0.145
746.32	0.148
746.50	0.149
746.69	0.153
746.87	0.156
747.05	0.158
747.23	0.166
747.42	0.170
747.60	0.168
747.78	0.167
747.96	0.161
748.14	0.163
748.33	0.162
748.51	0.163
748.69	0.165
748.87	0.163
749.06	0.164
749.24	0.159
749.42	0.154
749.60	0.156
749.78	0.155
749.97	0.159
750.15	0.163
750.33	0.161
750.51	0.160
750.69	0.155
750.88	0.152
751.06	0.151
751.24	0.150
751.42	0.153
751.60	0.151
751.79	0.147
751.97	0.148
752.15	0.145
752.33	0.145
752.51	0.140
752.69	0.144
752.88	0.144
753.06	0.140
753.24	0.141
753.42	0.138
753.60	0.134
753.78	0.138
753.97	0.133
754.15	0.134
754.33	0.132
754.51	0.135
754.69	0.133
754.87	0.131
755.06	0.134
755.24	0.130
755.42	0.131
755.60	0.135
755.78	0.130
755.96	0.130
756.15	0.128
756.33	0.126
756.51	0.122
756.69	0.123
756.87	0.125
757.05	0.124
757.23	0.125
757.42	0.124
757.60	0.123
757.78	0.124
757.96	0.125
758.14	0.124
758.32	0.125
758.50	0.124
758.69	0.123
758.87	0.123
759.05	0.122
759.23	0.122
759.41	0.122
759.59	0.124
759.77	0.124
759.95	0.124
760.13	0.121
760.32	0.121
760.50	0.122
760.68	0.121
760.86	0.122
761.04	0.122
761.22	0.124
761.40	0.120
761.58	0.117
761.76	0.116
761.95	0.114
762.13	0.117
762.31	0.117
762.49	0.118
762.67	0.115
762.85	0.115
763.03	0.115
763.21	0.115
763.39	0.116
763.57	0.117
763.75	0.119
763.94	0.120
764.12	0.118
764.30	0.117
764.48	0.116
764.66	0.119
764.84	0.117
765.02	0.114
765.20	0.112
765.38	0.114
765.56	0.114
765.74	0.110
765.92	0.110
766.10	0.110
766.28	0.111
766.46	0.111
766.65	0.111
766.83	0.111
767.01	0.112
767.19	0.112
767.37	0.112
767.55	0.112
767.73	0.114
767.91	0.116
768.09	0.118
768.27	0.117
768.45	0.118
768.63	0.117
768.81	0.117
768.99	0.118
769.17	0.117
769.35	0.116
769.53	0.115
769.71	0.115
769.89	0.114
770.07	0.115
770.25	0.118
770.43	0.121
770.61	0.121
770.79	0.120
770.97	0.120
771.15	0.121
771.33	0.123
771.51	0.124
771.69	0.124
771.87	0.123
772.05	0.122
772.24	0.120
772.42	0.117
772.60	0.118
772.78	0.118
772.96	0.117
773.14	0.119
773.32	0.121
773.49	0.119
773.67	0.119
773.85	0.120
774.03	0.121
774.21	0.120
774.39	0.122
774.57	0.121
774.75	0.123
774.93	0.123
775.11	0.121
775.29	0.119
775.47	0.117
775.65	0.118
775.83	0.119
776.01	0.119
776.19	0.122
776.37	0.121
776.55	0.123
776.73	0.123
776.91	0.123
777.09	0.125
777.27	0.128
777.45	0.131
777.63	0.132
777.81	0.132
777.99	0.132
778.17	0.132
778.35	0.132
778.53	0.133
778.71	0.134
778.89	0.134
779.07	0.133
779.24	0.132
779.42	0.129
779.60	0.127
779.78	0.123
779.96	0.122
780.14	0.121
780.32	0.118
780.50	0.115
780.68	0.114
780.86	0.114
781.04	0.113
781.22	0.109
781.40	0.108
781.58	0.108
781.75	0.110
781.93	0.110
782.11	0.109
782.29	0.110
782.47	0.111
782.65	0.112
782.83	0.111
783.01	0.112
783.19	0.114
783.37	0.115
783.55	0.114
783.72	0.114
783.90	0.111
784.08	0.111
784.26	0.113
784.44	0.111
784.62	0.111
784.80	0.112
784.98	0.111
785.16	0.111
785.33	0.111
785.51	0.113
785.69	0.114
785.87	0.116
786.05	0.115
786.23	0.111
786.41	0.113
786.59	0.112
786.77	0.111
786.94	0.110
787.12	0.109
787.30	0.107
787.48	0.104
787.66	0.105
787.84	0.103
788.02	0.104
788.19	0.105
788.37	0.104
788.55	0.103
788.73	0.103
788.91	0.103
789.09	0.104
789.27	0.106
789.44	0.108
789.62	0.107
789.80	0.106
789.98	0.106
790.16	0.106
790.34	0.106
790.51	0.108
790.69	0.109
790.87	0.109
791.05	0.110
791.23	0.109
791.41	0.108
791.58	0.106
791.76	0.108
791.94	0.108
792.12	0.107
792.30	0.106
792.48	0.105
792.65	0.103
792.83	0.101
793.01	0.100
793.19	0.101
793.37	0.100
793.54	0.102
793.72	0.099
793.90	0.100
794.08	0.101
794.26	0.102
794.43	0.103
794.61	0.105
794.79	0.105
794.97	0.106
795.15	0.105
795.32	0.106
795.50	0.107
795.68	0.108
795.86	0.108
796.04	0.108
796.21	0.108
796.39	0.108
796.57	0.107
796.75	0.107
796.92	0.106
797.10	0.105
797.28	0.106
797.46	0.106
797.64	0.106
797.81	0.107
797.99	0.105
798.17	0.105
798.35	0.104
798.52	0.103
798.70	0.103
798.88	0.104
799.06	0.103
799.23	0.102
799.41	0.101
799.59	0.101
799.77	0.101
799.94	0.101
800.12	0.101
800.30	0.101
800.48	0.101
800.65	0.102
800.83	0.103
801.01	0.105
801.19	0.104
801.36	0.104
801.54	0.105
801.72	0.105
801.90	0.106
802.07	0.106
802.25	0.107
802.43	0.109
802.60	0.108
802.78	0.107
802.96	0.107
803.14	0.110
803.31	0.111
803.49	0.111
803.67	0.111
803.84	0.111
804.02	0.111
804.20	0.111
804.38	0.110
804.55	0.110
804.73	0.112
804.91	0.111
805.08	0.108
805.26	0.108
805.44	0.105
805.61	0.105
805.79	0.106
805.97	0.107
806.15	0.107
806.32	0.108
806.50	0.108
806.68	0.107
806.85	0.105
807.03	0.107
807.21	0.108
807.38	0.111
807.56	0.110
807.74	0.109
807.91	0.109
808.09	0.109
808.27	0.107
808.44	0.107
808.62	0.107
808.80	0.110
808.97	0.109
809.15	0.107
809.33	0.106
809.50	0.107
809.68	0.108
809.86	0.107
810.03	0.105
810.21	0.107
810.39	0.107
810.56	0.108
810.74	0.105
810.91	0.104
811.09	0.105
811.27	0.105
811.44	0.106
811.62	0.107
811.80	0.107
811.97	0.109
812.15	0.109
812.33	0.110
812.50	0.111
812.68	0.112
812.85	0.115
813.03	0.114
813.21	0.116
813.38	0.117
813.56	0.116
813.74	0.115
813.91	0.114
814.09	0.113
814.26	0.114
814.44	0.113
814.62	0.114
814.79	0.114
814.97	0.114
815.14	0.114
815.32	0.111
815.50	0.110
815.67	0.113
815.85	0.115
816.02	0.114
816.20	0.113
816.38	0.114
816.55	0.115
816.73	0.114
816.90	0.113
817.08	0.112
817.26	0.114
817.43	0.116
817.61	0.114
817.78	0.113
817.96	0.116
818.13	0.116
818.31	0.116
818.49	0.116
818.66	0.120
818.84	0.121
819.01	0.124
819.19	0.125
819.36	0.126
819.54	0.129
819.71	0.130
819.89	0.130
820.07	0.132
820.24	0.131
820.42	0.134
820.59	0.132
820.77	0.132
820.94	0.132
821.12	0.131
821.29	0.130
821.47	0.131
821.64	0.132
821.82	0.133
822.00	0.133
822.17	0.138
822.35	0.138
822.52	0.141
822.70	0.145
822.87	0.148
823.05	0.151
823.22	0.154
823.40	0.157
823.57	0.158
823.75	0.163
823.92	0.166
824.10	0.165
824.27	0.165
824.45	0.169
824.62	0.166
824.80	0.167
824.97	0.169
825.15	0.168
825.32	0.168
825.50	0.171
825.67	0.169
825.85	0.171
826.02	0.175
826.20	0.178
826.37	0.174
826.55	0.184
826.72	0.184
826.90	0.186
827.07	0.189
827.25	0.193
827.42	0.195
827.60	0.198
827.77	0.202
827.95	0.208
828.12	0.216
828.30	0.230
828.47	0.228
828.65	0.240
828.82	0.255
829.00	0.269
829.17	0.283
829.34	0.295
829.52	0.310
829.69	0.313
829.87	0.325
830.04	0.332
830.22	0.336
830.39	0.348
830.57	0.366
830.74	0.364
830.92	0.370
831.09	0.361
831.26	0.382
831.44	0.388
831.61	0.418
831.79	0.415
831.96	0.426
832.14	0.469
832.31	0.473
832.49	0.477
832.66	0.504
832.83	0.559
833.01	0.618
833.18	0.676
833.36	0.686
833.53	0.687
833.70	0.696
833.88	0.758
834.05	0.692
834.23	0.786
834.40	0.810
834.58	0.772
834.75	0.714
834.92	0.689
835.10	0.654
835.27	0.697
835.45	0.732
835.62	0.776
835.79	0.746
835.97	0.785
836.14	0.787
836.32	0.824
836.49	0.979
836.66	0.965
836.84	0.948
837.01	0.922
837.18	0.911
837.36	1.049
837.53	1.043
837.71	1.229
837.88	1.456
838.05	1.155
838.23	1.190
838.40	1.185
838.58	1.368
838.75	1.502
838.92	-0.000
839.10	-0.000
839.27	1.983
839.44	-0.000
839.62	1.873
839.79	1.360
839.96	1.675
840.14	1.435
840.31	1.511
840.48	2.999
840.66	-0.000
840.83	2.428
841.01	-0.000
841.18	-0.000
841.35	-0.000
841.53	-0.000
841.70	-0.000
841.87	-0.000
842.05	-0.000
842.22	-0.000
842.39	-0.000
842.57	-0.000
842.74	-0.000
842.91	-0.000
843.09	-0.000
843.26	-0.000
843.43	-0.000
843.60	-0.000
843.78	-0.000
843.95	-0.000
844.12	-0.000
844.30	-0.000
844.47	-0.000
844.64	-0.000
844.82	-0.000
844.99	-0.000
845.16	-0.000
845.34	-0.000
845.51	-0.000
845.68	-0.000
845.85	-0.000
846.03	-0.000
846.20	-0.000
846.37	-0.000
846.55	-0.000
846.72	-0.000
846.89	-0.000
847.06	-0.000
847.24	-0.000
847.41	-0.000
847.58	-0.000
847.76	-0.000
847.93	-0.000
848.10	-0.000
848.27	-0.000
848.45	-0.000
848.62	-0.000
848.79	-0.000
848.97	-0.000
849.14	-0.000
849.31	-0.000
849.48	-0.000
849.66	-0.000
849.83	-0.000
850.00	-0.000
850.17	-0.000
850.35	-0.000
850.52	-0.000
850.69	-0.000
850.86	-0.000
851.04	-0.000
851.21	-0.000
851.38	-0.000
851.55	-0.000
851.72	-0.000
851.90	-0.000
852.07	-0.000
852.24	-0.000
852.41	-0.000
852.59	-0.000
852.76	-0.000
852.93	-0.000
853.10	-0.000
853.28	-0.000
853.45	-0.000
853.62	-0.000
853.79	-0.000
853.96	-0.000
854.14	-0.000
854.31	-0.000
854.48	-0.000
854.65	-0.000
854.82	-0.000
855.00	-0.000
855.17	-0.000
855.34	-0.000
855.51	-0.000
855.68	-0.000
855.86	-0.000
856.03	-0.000
856.20	-0.000
856.37	-0.000
856.54	-0.000
856.72	-0.000
856.89	-0.000
857.06	-0.000
857.23	-0.000
857.40	-0.000
857.57	-0.000
857.75	-0.000
857.92	-0.000
858.09	-0.000
858.26	-0.000
858.43	-0.000
858.60	-0.000
858.78	-0.000
858.95	-0.000
859.12	-0.000
859.29	-0.000
859.46	-0.000
859.63	-0.000
859.81	-0.000
859.98	-0.000
860.15	-0.000
860.32	-0.000
860.49	-0.000
860.66	-0.000
860.83	-0.000
861.01	-0.000
861.18	-0.000
861.35	-0.000
861.52	-0.000
861.69	-0.000
861.86	-0.000
862.03	-0.000
862.21	-0.000
862.38	-0.000
862.55	-0.000
862.72	-0.000
862.89	-0.000
863.06	-0.000
863.23	-0.000
863.40	-0.000
863.58	-0.000
863.75	-0.000
863.92	-0.000
864.09	-0.000
864.26	-0.000
864.43	-0.000
864.60	-0.000
864.77	-0.000
864.94	-0.000
865.11	-0.000
865.29	-0.000
865.46	-0.000
865.63	-0.000
865.80	-0.000
865.97	-0.000
866.14	-0.000
866.31	-0.000
866.48	-0.000
866.65	-0.000
866.82	-0.000
866.99	-0.000
867.16	-0.000
867.34	-0.000
867.51	-0.000
867.68	-0.000
867.85	-0.000
868.02	-0.000
868.19	-0.000
868.36	-0.000
868.53	-0.000
868.70	-0.000
868.87	-0.000
869.04	-0.000
869.21	-0.000
869.38	-0.000
869.55	-0.000
869.72	-0.000
869.89	-0.000
870.06	-0.000
870.24	-0.000
870.41	-0.000
870.58	-0.000
870.75	-0.000
870.92	-0.000
871.09	-0.000
871.26	-0.000
871.43	-0.000
871.60	-0.000
871.77	-0.000
871.94	-0.000
872.11	-0.000
872.28	-0.000
872.45	-0.000
872.62	-0.000
872.79	-0.000
872.96	-0.000
873.13	-0.000
873.30	-0.000
873.47	-0.000
873.64	-0.000
873.81	-0.000
873.98	-0.000
874.15	-0.000
874.32	-0.000
874.49	-0.000
874.66	-0.000
874.83	-0.000
875.00	-0.000
875.17	-0.000
875.34	-0.000
875.51	-0.000
875.68	-0.000
875.85	-0.000
876.02	-0.000
876.19	-0.000
876.36	-0.000
876.53	-0.000
876.70	-0.000
876.87	-0.000
877.04	-0.000
877.21	-0.000
877.38	-0.000
877.55	-0.000
877.72	-0.000
877.89	-0.000
878.06	-0.000
878.23	-0.000
878.39	-0.000
878.56	-0.000
878.73	-0.000
878.90	-0.000
879.07	-0.000
879.24	-0.000
879.41	-0.000
879.58	-0.000
879.75	-0.000
879.92	-0.000
880.09	-0.000
880.26	-0.000
880.43	-0.000
880.60	-0.000
880.77	-0.000
880.94	-0.000
881.11	-0.000
881.27	-0.000
881.44	-0.000
881.61	-0.000
881.78	-0.000
881.95	-0.000
882.12	-0.000
882.29	-0.000
882.46	-0.000
882.63	-0.000
882.80	-0.000
882.97	-0.000
883.14	-0.000
883.30	-0.000
883.47	-0.000
883.64	-0.000
883.81	-0.000
883.98	-0.000
884.15	-0.000
884.32	-0.000
884.49	-0.000
884.66	-0.000
884.82	-0.000
884.99	-0.000
885.16	-0.000
885.33	-0.000
885.50	-0.000
885.67	-0.000
885.84	-0.000
886.01	-0.000
886.17	-0.000
886.34	-0.000
886.51	-0.000
886.68	-0.000
886.85	-0.000
887.02	-0.000
887.19	-0.000
887.36	-0.000
887.52	-0.000
887.69	-0.000
887.86	-0.000
888.03	-0.000
888.20	-0.000
888.37	-0.000
888.54	-0.000
888.70	-0.000
888.87	-0.000
889.04	-0.000
889.21	-0.000
889.38	-0.000
889.55	-0.000
889.71	-0.000
889.88	-0.000
890.05	-0.000
890.22	-0.000
890.39	-0.000
>>>>>End Processed Spectral Data<<<<<
