SpectraSuite Data File
++++++++++++++++++++++++++++++++++++
Date: Fri Jun 19 14:21:23 CEST 2015
User: introlabs
Dark Spectrum Present: Yes
Reference Spectrum Present: Yes
Number of Sampled Component Spectra: 1
Spectrometers: USB4H08886
Integration Time (usec): 745692 (USB4H08886)
Spectra Averaged: 5 (USB4H08886)
Boxcar Smoothing: 5 (USB4H08886)
Correct for Electrical Dark: Yes (USB4H08886)
Strobe/Lamp Enabled: No (USB4H08886)
Correct for Detector Non-linearity: Yes (USB4H08886)
Correct for Stray Light: Yes (USB4H08886)
Number of Pixels in Processed Spectrum: 3648
>>>>>Begin Processed Spectral Data<<<<<
178.14	-0.000
178.36	-0.000
178.57	-0.000
178.79	-0.000
179.01	-0.000
179.22	-0.000
179.44	-0.000
179.65	-0.000
179.87	-0.000
180.08	-0.000
180.30	-0.000
180.52	-0.000
180.73	-0.000
180.95	-0.000
181.16	-0.000
181.38	-0.000
181.59	-0.000
181.81	-0.000
182.03	-0.000
182.24	-0.000
182.46	-0.000
182.67	-0.000
182.89	-0.000
183.10	-0.000
183.32	-0.000
183.54	-0.000
183.75	-0.000
183.97	-0.000
184.18	-0.000
184.40	-0.000
184.61	-0.000
184.83	-0.000
185.04	-0.000
185.26	-0.000
185.48	-0.000
185.69	-0.000
185.91	-0.000
186.12	-0.000
186.34	-0.000
186.55	-0.000
186.77	-0.000
186.98	-0.000
187.20	-0.000
187.42	-0.000
187.63	-0.000
187.85	-0.000
188.06	-0.000
188.28	-0.000
188.49	-0.000
188.71	-0.000
188.92	-0.000
189.14	-0.000
189.36	-0.000
189.57	-0.000
189.79	-0.000
190.00	-0.000
190.22	-0.000
190.43	-0.000
190.65	-0.000
190.86	-0.000
191.08	-0.000
191.29	-0.000
191.51	-0.000
191.72	-0.000
191.94	-0.000
192.16	-0.000
192.37	-0.000
192.59	-0.000
192.80	-0.000
193.02	-0.000
193.23	-0.000
193.45	-0.000
193.66	-0.000
193.88	-0.000
194.09	-0.000
194.31	-0.000
194.52	-0.000
194.74	-0.000
194.95	-0.000
195.17	-0.000
195.38	-0.000
195.60	-0.000
195.81	-0.000
196.03	-0.000
196.25	-0.000
196.46	-0.000
196.68	-0.000
196.89	-0.000
197.11	-0.000
197.32	-0.000
197.54	-0.000
197.75	-0.000
197.97	-0.000
198.18	-0.000
198.40	-0.000
198.61	-0.000
198.83	-0.000
199.04	-0.000
199.26	-0.000
199.47	-0.000
199.69	-0.000
199.90	-0.000
200.12	-0.000
200.33	-0.000
200.55	-0.000
200.76	-0.000
200.98	-0.000
201.19	-0.000
201.41	-0.000
201.62	-0.000
201.84	-0.000
202.05	-0.000
202.27	-0.000
202.48	-0.000
202.70	-0.000
202.91	-0.000
203.13	-0.000
203.34	-0.000
203.56	-0.000
203.77	-0.000
203.99	-0.000
204.20	-0.000
204.42	-0.000
204.63	-0.000
204.85	-0.000
205.06	-0.000
205.28	-0.000
205.49	-0.000
205.71	-0.000
205.92	-0.000
206.14	-0.000
206.35	-0.000
206.56	-0.000
206.78	-0.000
206.99	-0.000
207.21	-0.000
207.42	-0.000
207.64	-0.000
207.85	-0.000
208.07	-0.000
208.28	-0.000
208.50	-0.000
208.71	-0.000
208.93	-0.000
209.14	-0.000
209.36	-0.000
209.57	-0.000
209.79	-0.000
210.00	-0.000
210.22	-0.000
210.43	-0.000
210.64	-0.000
210.86	-0.000
211.07	-0.000
211.29	-0.000
211.50	-0.000
211.72	-0.000
211.93	-0.000
212.15	-0.000
212.36	-0.000
212.58	-0.000
212.79	-0.000
213.01	-0.000
213.22	-0.000
213.43	-0.000
213.65	-0.000
213.86	-0.000
214.08	-0.000
214.29	-0.000
214.51	-0.000
214.72	-0.000
214.94	-0.000
215.15	-0.000
215.36	-0.000
215.58	-0.000
215.79	-0.000
216.01	-0.000
216.22	-0.000
216.44	-0.000
216.65	-0.000
216.87	-0.000
217.08	-0.000
217.29	-0.000
217.51	-0.000
217.72	-0.000
217.94	-0.000
218.15	-0.000
218.37	-0.000
218.58	-0.000
218.80	-0.000
219.01	-0.000
219.22	-0.000
219.44	-0.000
219.65	-0.000
219.87	-0.000
220.08	-0.000
220.30	-0.000
220.51	-0.000
220.72	-0.000
220.94	-0.000
221.15	-0.000
221.37	-0.000
221.58	-0.000
221.79	-0.000
222.01	-0.000
222.22	-0.000
222.44	-0.000
222.65	-0.000
222.87	-0.000
223.08	-0.000
223.29	-0.000
223.51	-0.000
223.72	-0.000
223.94	-0.000
224.15	-0.000
224.36	-0.000
224.58	-0.000
224.79	-0.000
225.01	-0.000
225.22	-0.000
225.44	-0.000
225.65	-0.000
225.86	-0.000
226.08	-0.000
226.29	-0.000
226.51	-0.000
226.72	-0.000
226.93	-0.000
227.15	-0.000
227.36	-0.000
227.58	-0.000
227.79	-0.000
228.00	-0.000
228.22	-0.000
228.43	-0.000
228.65	-0.000
228.86	-0.000
229.07	-0.000
229.29	-0.000
229.50	-0.000
229.72	-0.000
229.93	-0.000
230.14	-0.000
230.36	-0.000
230.57	-0.000
230.78	-0.000
231.00	-0.000
231.21	-0.000
231.43	-0.000
231.64	-0.000
231.85	-0.000
232.07	-0.000
232.28	-0.000
232.50	-0.000
232.71	-0.000
232.92	-0.000
233.14	-0.000
233.35	-0.000
233.56	-0.000
233.78	-0.000
233.99	-0.000
234.21	-0.000
234.42	-0.000
234.63	-0.000
234.85	-0.000
235.06	-0.000
235.27	-0.000
235.49	-0.000
235.70	-0.000
235.91	-0.000
236.13	-0.000
236.34	-0.000
236.56	-0.000
236.77	-0.000
236.98	-0.000
237.20	-0.000
237.41	-0.000
237.62	-0.000
237.84	-0.000
238.05	-0.000
238.26	-0.000
238.48	-0.000
238.69	-0.000
238.91	-0.000
239.12	-0.000
239.33	-0.000
239.55	-0.000
239.76	-0.000
239.97	-0.000
240.19	-0.000
240.40	-0.000
240.61	-0.000
240.83	-0.000
241.04	-0.000
241.25	-0.000
241.47	-0.000
241.68	-0.000
241.89	-0.000
242.11	-0.000
242.32	-0.000
242.53	-0.000
242.75	-0.000
242.96	-0.000
243.17	-0.000
243.39	-0.000
243.60	-0.000
243.81	-0.000
244.03	-0.000
244.24	-0.000
244.45	-0.000
244.67	-0.000
244.88	-0.000
245.09	-0.000
245.31	-0.000
245.52	-0.000
245.73	-0.000
245.95	-0.000
246.16	-0.000
246.37	-0.000
246.59	-0.000
246.80	-0.000
247.01	-0.000
247.23	-0.000
247.44	-0.000
247.65	-0.000
247.87	-0.000
248.08	-0.000
248.29	-0.000
248.51	-0.000
248.72	-0.000
248.93	-0.000
249.15	-0.000
249.36	-0.000
249.57	-0.000
249.78	-0.000
250.00	-0.000
250.21	-0.000
250.42	-0.000
250.64	-0.000
250.85	-0.000
251.06	-0.000
251.28	-0.000
251.49	-0.000
251.70	-0.000
251.92	-0.000
252.13	-0.000
252.34	-0.000
252.55	-0.000
252.77	-0.000
252.98	-0.000
253.19	-0.000
253.41	-0.000
253.62	-0.000
253.83	-0.000
254.05	-0.000
254.26	-0.000
254.47	-0.000
254.68	-0.000
254.90	-0.000
255.11	-0.000
255.32	-0.000
255.54	-0.000
255.75	-0.000
255.96	-0.000
256.17	-0.000
256.39	-0.000
256.60	-0.000
256.81	-0.000
257.03	-0.000
257.24	-0.000
257.45	-0.000
257.66	-0.000
257.88	-0.000
258.09	-0.000
258.30	-0.000
258.51	-0.000
258.73	-0.000
258.94	-0.000
259.15	-0.000
259.37	-0.000
259.58	-0.000
259.79	-0.000
260.00	-0.000
260.22	-0.000
260.43	-0.000
260.64	-0.000
260.85	-0.000
261.07	-0.000
261.28	-0.000
261.49	-0.000
261.71	-0.000
261.92	-0.000
262.13	-0.000
262.34	-0.000
262.56	-0.000
262.77	-0.000
262.98	-0.000
263.19	-0.000
263.41	-0.000
263.62	-0.000
263.83	-0.000
264.04	-0.000
264.26	-0.000
264.47	-0.000
264.68	-0.000
264.89	-0.000
265.11	-0.000
265.32	-0.000
265.53	-0.000
265.74	-0.000
265.96	-0.000
266.17	-0.000
266.38	-0.000
266.59	-0.000
266.81	-0.000
267.02	-0.000
267.23	-0.000
267.44	-0.000
267.65	-0.000
267.87	-0.000
268.08	-0.000
268.29	-0.000
268.50	-0.000
268.72	-0.000
268.93	-0.000
269.14	-0.000
269.35	-0.000
269.57	-0.000
269.78	-0.000
269.99	-0.000
270.20	-0.000
270.41	-0.000
270.63	-0.000
270.84	-0.000
271.05	-0.000
271.26	-0.000
271.48	-0.000
271.69	-0.000
271.90	-0.000
272.11	-0.000
272.32	-0.000
272.54	-0.000
272.75	-0.000
272.96	-0.000
273.17	-0.000
273.39	-0.000
273.60	-0.000
273.81	-0.000
274.02	-0.000
274.23	-0.000
274.45	-0.000
274.66	-0.000
274.87	-0.000
275.08	-0.000
275.29	-0.000
275.51	-0.000
275.72	-0.000
275.93	-0.000
276.14	-0.000
276.35	-0.000
276.57	-0.000
276.78	-0.000
276.99	-0.000
277.20	-0.000
277.41	-0.000
277.63	-0.000
277.84	-0.000
278.05	-0.000
278.26	-0.000
278.47	-0.000
278.69	-0.000
278.90	-0.000
279.11	-0.000
279.32	-0.000
279.53	-0.000
279.74	-0.000
279.96	-0.000
280.17	-0.000
280.38	-0.000
280.59	-0.000
280.80	-0.000
281.02	-0.000
281.23	-0.000
281.44	-0.000
281.65	-0.000
281.86	-0.000
282.07	-0.000
282.29	-0.000
282.50	-0.000
282.71	-0.000
282.92	-0.000
283.13	-0.000
283.35	-0.000
283.56	-0.000
283.77	-0.000
283.98	-0.000
284.19	-0.000
284.40	-0.000
284.62	-0.000
284.83	-0.000
285.04	-0.000
285.25	-0.000
285.46	-0.000
285.67	-0.000
285.88	-0.000
286.10	-0.000
286.31	-0.000
286.52	-0.000
286.73	-0.000
286.94	-0.000
287.15	-0.000
287.37	-0.000
287.58	-0.000
287.79	-0.000
288.00	-0.000
288.21	-0.000
288.42	-0.000
288.63	-0.000
288.85	-0.000
289.06	-0.000
289.27	-0.000
289.48	-0.000
289.69	-0.000
289.90	-0.000
290.11	-0.000
290.33	-0.000
290.54	-0.000
290.75	-0.000
290.96	-0.000
291.17	-0.000
291.38	-0.000
291.59	-0.000
291.81	-0.000
292.02	-0.000
292.23	-0.000
292.44	-0.000
292.65	-0.000
292.86	-0.000
293.07	-0.000
293.28	-0.000
293.50	-0.000
293.71	-0.000
293.92	-0.000
294.13	-0.000
294.34	-0.000
294.55	-0.000
294.76	-0.000
294.97	-0.000
295.19	-0.000
295.40	-0.000
295.61	-0.000
295.82	-0.000
296.03	3.572
296.24	-0.000
296.45	2.047
296.66	1.729
296.87	1.751
297.09	1.842
297.30	2.004
297.51	1.668
297.72	1.631
297.93	1.712
298.14	1.679
298.35	1.637
298.56	1.610
298.77	1.720
298.99	1.704
299.20	1.679
299.41	1.658
299.62	1.631
299.83	1.617
300.04	1.544
300.25	1.539
300.46	1.586
300.67	1.562
300.88	1.509
301.10	1.509
301.31	1.578
301.52	1.521
301.73	1.464
301.94	1.461
302.15	1.481
302.36	1.438
302.57	1.378
302.78	1.384
302.99	1.424
303.20	1.444
303.41	1.360
303.63	1.343
303.84	1.347
304.05	1.344
304.26	1.289
304.47	1.292
304.68	1.300
304.89	1.295
305.10	1.253
305.31	1.241
305.52	1.280
305.73	1.274
305.94	1.236
306.15	1.231
306.37	1.255
306.58	1.265
306.79	1.235
307.00	1.257
307.21	1.296
307.42	1.292
307.63	1.257
307.84	1.226
308.05	1.261
308.26	1.260
308.47	1.236
308.68	1.232
308.89	1.231
309.10	1.229
309.31	1.187
309.52	1.178
309.73	1.190
309.95	1.185
310.16	1.157
310.37	1.147
310.58	1.166
310.79	1.168
311.00	1.162
311.21	1.164
311.42	1.167
311.63	1.162
311.84	1.142
312.05	1.142
312.26	1.166
312.47	1.178
312.68	1.156
312.89	1.139
313.10	1.145
313.31	1.120
313.52	1.121
313.73	1.123
313.94	1.125
314.15	1.110
314.36	1.089
314.57	1.080
314.78	1.067
314.99	1.061
315.21	1.049
315.42	1.051
315.63	1.064
315.84	1.041
316.05	1.027
316.26	1.036
316.47	1.053
316.68	1.051
316.89	1.030
317.10	1.051
317.31	1.057
317.52	1.058
317.73	1.039
317.94	1.037
318.15	1.079
318.36	1.079
318.57	1.062
318.78	1.049
318.99	1.080
319.20	1.079
319.41	1.046
319.62	1.048
319.83	1.063
320.04	1.059
320.25	1.046
320.46	1.015
320.67	1.018
320.88	1.015
321.09	1.004
321.30	0.992
321.51	1.009
321.72	1.008
321.93	0.989
322.14	0.981
322.35	1.008
322.56	1.011
322.77	0.998
322.98	1.009
323.19	1.017
323.40	1.022
323.61	1.000
323.82	0.995
324.03	0.998
324.24	0.996
324.45	0.984
324.66	0.965
324.87	0.961
325.08	0.961
325.29	0.942
325.50	0.935
325.71	0.941
325.92	0.947
326.13	0.934
326.34	0.936
326.55	0.945
326.76	0.943
326.97	0.931
327.18	0.927
327.39	0.952
327.60	0.951
327.80	0.951
328.01	0.948
328.22	0.951
328.43	0.955
328.64	0.943
328.85	0.948
329.06	0.950
329.27	0.951
329.48	0.946
329.69	0.926
329.90	0.938
330.11	0.932
330.32	0.925
330.53	0.916
330.74	0.916
330.95	0.915
331.16	0.900
331.37	0.908
331.58	0.908
331.79	0.907
332.00	0.897
332.21	0.890
332.42	0.894
332.63	0.886
332.83	0.882
333.04	0.884
333.25	0.896
333.46	0.895
333.67	0.880
333.88	0.882
334.09	0.892
334.30	0.890
334.51	0.882
334.72	0.878
334.93	0.881
335.14	0.879
335.35	0.872
335.56	0.867
335.77	0.876
335.98	0.876
336.18	0.870
336.39	0.861
336.60	0.866
336.81	0.864
337.02	0.862
337.23	0.866
337.44	0.870
337.65	0.871
337.86	0.862
338.07	0.857
338.28	0.862
338.49	0.861
338.70	0.855
338.91	0.861
339.11	0.867
339.32	0.864
339.53	0.853
339.74	0.851
339.95	0.849
340.16	0.847
340.37	0.838
340.58	0.836
340.79	0.840
341.00	0.841
341.21	0.830
341.41	0.831
341.62	0.833
341.83	0.833
342.04	0.827
342.25	0.837
342.46	0.843
342.67	0.842
342.88	0.835
343.09	0.834
343.30	0.840
343.50	0.843
343.71	0.833
343.92	0.832
344.13	0.838
344.34	0.837
344.55	0.820
344.76	0.817
344.97	0.822
345.18	0.820
345.38	0.817
345.59	0.812
345.80	0.811
346.01	0.810
346.22	0.806
346.43	0.800
346.64	0.810
346.85	0.809
347.06	0.803
347.26	0.802
347.47	0.807
347.68	0.802
347.89	0.800
348.10	0.795
348.31	0.802
348.52	0.800
348.73	0.796
348.93	0.792
349.14	0.795
349.35	0.795
349.56	0.790
349.77	0.785
349.98	0.790
350.19	0.787
350.39	0.781
350.60	0.777
350.81	0.794
351.02	0.794
351.23	0.789
351.44	0.790
351.65	0.793
351.86	0.790
352.06	0.789
352.27	0.790
352.48	0.791
352.69	0.792
352.90	0.787
353.11	0.772
353.31	0.779
353.52	0.774
353.73	0.767
353.94	0.768
354.15	0.774
354.36	0.773
354.57	0.764
354.77	0.766
354.98	0.766
355.19	0.766
355.40	0.765
355.61	0.770
355.82	0.775
356.02	0.775
356.23	0.768
356.44	0.769
356.65	0.773
356.86	0.773
357.07	0.767
357.27	0.769
357.48	0.771
357.69	0.767
357.90	0.752
358.11	0.749
358.32	0.753
358.52	0.756
358.73	0.748
358.94	0.750
359.15	0.755
359.36	0.756
359.56	0.752
359.77	0.749
359.98	0.756
360.19	0.757
360.40	0.753
360.61	0.753
360.81	0.752
361.02	0.752
361.23	0.743
361.44	0.742
361.65	0.743
361.85	0.743
362.06	0.740
362.27	0.742
362.48	0.742
362.69	0.744
362.89	0.737
363.10	0.739
363.31	0.744
363.52	0.747
363.73	0.743
363.93	0.742
364.14	0.745
364.35	0.747
364.56	0.737
364.77	0.739
364.97	0.742
365.18	0.743
365.39	0.738
365.60	0.734
365.81	0.736
366.01	0.735
366.22	0.732
366.43	0.731
366.64	0.734
366.84	0.739
367.05	0.735
367.26	0.735
367.47	0.736
367.68	0.736
367.88	0.733
368.09	0.731
368.30	0.734
368.51	0.734
368.71	0.733
368.92	0.737
369.13	0.734
369.34	0.734
369.55	0.733
369.75	0.733
369.96	0.740
370.17	0.741
370.38	0.737
370.58	0.736
370.79	0.741
371.00	0.738
371.21	0.730
371.41	0.736
371.62	0.740
371.83	0.735
372.04	0.732
372.24	0.725
372.45	0.726
372.66	0.726
372.87	0.723
373.07	0.721
373.28	0.723
373.49	0.726
373.70	0.716
373.90	0.715
374.11	0.725
374.32	0.725
374.53	0.725
374.73	0.726
374.94	0.729
375.15	0.728
375.36	0.725
375.56	0.734
375.77	0.734
375.98	0.735
376.19	0.732
376.39	0.725
376.60	0.728
376.81	0.728
377.02	0.725
377.22	0.723
377.43	0.723
377.64	0.724
377.84	0.715
378.05	0.719
378.26	0.725
378.47	0.725
378.67	0.722
378.88	0.719
379.09	0.719
379.30	0.719
379.50	0.718
379.71	0.721
379.92	0.724
380.12	0.723
380.33	0.715
380.54	0.711
380.75	0.719
380.95	0.719
381.16	0.717
381.37	0.717
381.57	0.719
381.78	0.720
381.99	0.719
382.20	0.718
382.40	0.721
382.61	0.721
382.82	0.718
383.02	0.711
383.23	0.714
383.44	0.715
383.64	0.713
383.85	0.715
384.06	0.718
384.27	0.716
384.47	0.713
384.68	0.713
384.89	0.719
385.09	0.719
385.30	0.718
385.51	0.717
385.71	0.720
385.92	0.721
386.13	0.719
386.33	0.721
386.54	0.723
386.75	0.721
386.95	0.717
387.16	0.712
387.37	0.715
387.58	0.715
387.78	0.713
387.99	0.711
388.20	0.714
388.40	0.711
388.61	0.707
388.82	0.710
389.02	0.713
389.23	0.713
389.44	0.713
389.64	0.713
389.85	0.724
390.06	0.724
390.26	0.724
390.47	0.724
390.68	0.725
390.88	0.724
391.09	0.719
391.30	0.718
391.50	0.718
391.71	0.717
391.92	0.714
392.12	0.705
392.33	0.706
392.53	0.706
392.74	0.706
392.95	0.705
393.15	0.708
393.36	0.709
393.57	0.707
393.77	0.711
393.98	0.713
394.19	0.713
394.39	0.713
394.60	0.715
394.81	0.717
395.01	0.715
395.22	0.713
395.43	0.714
395.63	0.719
395.84	0.720
396.04	0.716
396.25	0.718
396.46	0.720
396.66	0.719
396.87	0.715
397.08	0.712
397.28	0.714
397.49	0.715
397.69	0.711
397.90	0.706
398.11	0.708
398.31	0.708
398.52	0.704
398.73	0.705
398.93	0.704
399.14	0.704
399.34	0.703
399.55	0.704
399.76	0.705
399.96	0.706
400.17	0.704
400.37	0.703
400.58	0.710
400.79	0.711
400.99	0.709
401.20	0.714
401.41	0.716
401.61	0.717
401.82	0.722
402.02	0.722
402.23	0.723
402.44	0.723
402.64	0.723
402.85	0.718
403.05	0.717
403.26	0.716
403.47	0.710
403.67	0.709
403.88	0.710
404.08	0.704
404.29	0.702
404.50	0.702
404.70	0.702
404.91	0.701
405.11	0.697
405.32	0.698
405.52	0.698
405.73	0.698
405.94	0.696
406.14	0.698
406.35	0.701
406.55	0.700
406.76	0.697
406.97	0.699
407.17	0.701
407.38	0.701
407.58	0.699
407.79	0.703
407.99	0.705
408.20	0.706
408.41	0.701
408.61	0.699
408.82	0.701
409.02	0.702
409.23	0.700
409.43	0.699
409.64	0.700
409.84	0.699
410.05	0.696
410.26	0.695
410.46	0.694
410.67	0.694
410.87	0.695
411.08	0.696
411.28	0.697
411.49	0.698
411.69	0.696
411.90	0.697
412.11	0.699
412.31	0.699
412.52	0.697
412.72	0.698
412.93	0.700
413.13	0.698
413.34	0.695
413.54	0.696
413.75	0.697
413.95	0.697
414.16	0.694
414.37	0.697
414.57	0.698
414.78	0.700
414.98	0.698
415.19	0.699
415.39	0.697
415.60	0.699
415.80	0.699
416.01	0.697
416.21	0.700
416.42	0.699
416.62	0.694
416.83	0.694
417.03	0.694
417.24	0.693
417.44	0.691
417.65	0.690
417.86	0.690
418.06	0.688
418.27	0.686
418.47	0.687
418.68	0.688
418.88	0.688
419.09	0.686
419.29	0.687
419.50	0.688
419.70	0.687
419.91	0.686
420.11	0.684
420.32	0.687
420.52	0.686
420.73	0.685
420.93	0.686
421.14	0.688
421.34	0.687
421.55	0.683
421.75	0.683
421.96	0.684
422.16	0.685
422.37	0.683
422.57	0.681
422.78	0.683
422.98	0.680
423.19	0.677
423.39	0.676
423.60	0.679
423.80	0.680
424.01	0.679
424.21	0.681
424.42	0.682
424.62	0.682
424.83	0.681
425.03	0.681
425.23	0.684
425.44	0.684
425.64	0.684
425.85	0.682
426.05	0.684
426.26	0.684
426.46	0.681
426.67	0.680
426.87	0.684
427.08	0.685
427.28	0.684
427.49	0.684
427.69	0.686
427.90	0.684
428.10	0.681
428.31	0.681
428.51	0.683
428.71	0.682
428.92	0.683
429.12	0.680
429.33	0.681
429.53	0.684
429.74	0.688
429.94	0.689
430.15	0.689
430.35	0.689
430.56	0.686
430.76	0.685
430.96	0.686
431.17	0.683
431.37	0.680
431.58	0.678
431.78	0.674
431.99	0.668
432.19	0.670
432.40	0.672
432.60	0.672
432.80	0.675
433.01	0.674
433.21	0.673
433.42	0.675
433.62	0.676
433.83	0.676
434.03	0.679
434.23	0.681
434.44	0.680
434.64	0.677
434.85	0.682
435.05	0.683
435.26	0.683
435.46	0.682
435.66	0.681
435.87	0.681
436.07	0.681
436.28	0.677
436.48	0.673
436.69	0.673
436.89	0.673
437.09	0.667
437.30	0.665
437.50	0.666
437.71	0.678
437.91	0.678
438.11	0.679
438.32	0.683
438.52	0.684
438.73	0.683
438.93	0.681
439.13	0.681
439.34	0.685
439.54	0.683
439.75	0.683
439.95	0.673
440.15	0.676
440.36	0.675
440.56	0.673
440.77	0.673
440.97	0.674
441.17	0.673
441.38	0.674
441.58	0.671
441.79	0.670
441.99	0.669
442.19	0.668
442.40	0.665
442.60	0.665
442.81	0.663
443.01	0.664
443.21	0.664
443.42	0.663
443.62	0.662
443.82	0.661
444.03	0.663
444.23	0.662
444.44	0.662
444.64	0.661
444.84	0.662
445.05	0.662
445.25	0.659
445.45	0.660
445.66	0.662
445.86	0.661
446.06	0.663
446.27	0.662
446.47	0.666
446.68	0.664
446.88	0.662
447.08	0.662
447.29	0.665
447.49	0.665
447.69	0.664
447.90	0.663
448.10	0.666
448.30	0.664
448.51	0.664
448.71	0.662
448.91	0.665
449.12	0.663
449.32	0.665
449.52	0.663
449.73	0.667
449.93	0.666
450.14	0.666
450.34	0.666
450.54	0.668
450.75	0.666
450.95	0.665
451.15	0.664
451.36	0.667
451.56	0.664
451.76	0.662
451.97	0.659
452.17	0.660
452.37	0.658
452.58	0.654
452.78	0.654
452.98	0.656
453.19	0.656
453.39	0.656
453.59	0.655
453.79	0.656
454.00	0.657
454.20	0.656
454.40	0.657
454.61	0.659
454.81	0.659
455.01	0.658
455.22	0.659
455.42	0.661
455.62	0.658
455.83	0.658
456.03	0.662
456.23	0.662
456.44	0.663
456.64	0.662
456.84	0.662
457.04	0.663
457.25	0.662
457.45	0.659
457.65	0.658
457.86	0.659
458.06	0.657
458.26	0.653
458.47	0.652
458.67	0.654
458.87	0.654
459.07	0.651
459.28	0.653
459.48	0.655
459.68	0.655
459.89	0.654
460.09	0.653
460.29	0.655
460.49	0.656
460.70	0.654
460.90	0.654
461.10	0.655
461.31	0.654
461.51	0.651
461.71	0.653
461.91	0.654
462.12	0.654
462.32	0.653
462.52	0.654
462.72	0.657
462.93	0.657
463.13	0.656
463.33	0.657
463.53	0.658
463.74	0.658
463.94	0.654
464.14	0.654
464.35	0.656
464.55	0.655
464.75	0.653
464.95	0.651
465.16	0.654
465.36	0.653
465.56	0.652
465.76	0.651
465.97	0.652
466.17	0.652
466.37	0.649
466.57	0.650
466.78	0.651
466.98	0.651
467.18	0.649
467.38	0.647
467.59	0.649
467.79	0.650
467.99	0.649
468.19	0.650
468.39	0.653
468.60	0.653
468.80	0.651
469.00	0.652
469.20	0.654
469.41	0.654
469.61	0.654
469.81	0.654
470.01	0.654
470.22	0.654
470.42	0.652
470.62	0.650
470.82	0.652
471.02	0.652
471.23	0.650
471.43	0.650
471.63	0.652
471.83	0.652
472.04	0.650
472.24	0.649
472.44	0.654
472.64	0.654
472.84	0.652
473.05	0.652
473.25	0.655
473.45	0.654
473.65	0.653
473.85	0.653
474.06	0.654
474.26	0.654
474.46	0.655
474.66	0.651
474.86	0.652
475.07	0.652
475.27	0.650
475.47	0.647
475.67	0.648
475.87	0.650
476.08	0.647
476.28	0.648
476.48	0.649
476.68	0.648
476.88	0.645
477.09	0.646
477.29	0.648
477.49	0.648
477.69	0.647
477.89	0.647
478.09	0.646
478.30	0.649
478.50	0.646
478.70	0.646
478.90	0.646
479.10	0.649
479.31	0.650
479.51	0.649
479.71	0.650
479.91	0.650
480.11	0.648
480.31	0.649
480.52	0.648
480.72	0.648
480.92	0.646
481.12	0.645
481.32	0.643
481.52	0.641
481.72	0.640
481.93	0.644
482.13	0.644
482.33	0.644
482.53	0.642
482.73	0.642
482.93	0.644
483.14	0.643
483.34	0.643
483.54	0.644
483.74	0.644
483.94	0.643
484.14	0.638
484.34	0.638
484.55	0.639
484.75	0.639
484.95	0.637
485.15	0.636
485.35	0.637
485.55	0.636
485.75	0.633
485.96	0.634
486.16	0.635
486.36	0.635
486.56	0.633
486.76	0.633
486.96	0.633
487.16	0.633
487.36	0.631
487.57	0.631
487.77	0.632
487.97	0.632
488.17	0.631
488.37	0.630
488.57	0.630
488.77	0.630
488.97	0.629
489.18	0.628
489.38	0.631
489.58	0.631
489.78	0.631
489.98	0.630
490.18	0.630
490.38	0.630
490.58	0.629
490.78	0.630
490.98	0.632
491.19	0.633
491.39	0.632
491.59	0.631
491.79	0.634
491.99	0.635
492.19	0.634
492.39	0.638
492.59	0.638
492.79	0.640
492.99	0.640
493.20	0.640
493.40	0.640
493.60	0.641
493.80	0.639
494.00	0.637
494.20	0.638
494.40	0.637
494.60	0.634
494.80	0.638
495.00	0.637
495.20	0.636
495.40	0.635
495.61	0.636
495.81	0.636
496.01	0.640
496.21	0.641
496.41	0.640
496.61	0.641
496.81	0.639
497.01	0.634
497.21	0.634
497.41	0.635
497.61	0.635
497.81	0.632
498.01	0.632
498.21	0.630
498.41	0.628
498.61	0.628
498.82	0.630
499.02	0.632
499.22	0.632
499.42	0.631
499.62	0.632
499.82	0.633
500.02	0.634
500.22	0.633
500.42	0.635
500.62	0.635
500.82	0.636
501.02	0.633
501.22	0.634
501.42	0.634
501.62	0.636
501.82	0.635
502.02	0.635
502.22	0.635
502.42	0.636
502.62	0.634
502.82	0.634
503.02	0.635
503.22	0.635
503.42	0.633
503.63	0.633
503.83	0.631
504.03	0.630
504.23	0.629
504.43	0.630
504.63	0.632
504.83	0.631
505.03	0.630
505.23	0.632
505.43	0.634
505.63	0.634
505.83	0.634
506.03	0.635
506.23	0.637
506.43	0.637
506.63	0.636
506.83	0.634
507.03	0.637
507.23	0.637
507.43	0.634
507.63	0.635
507.83	0.635
508.03	0.636
508.23	0.635
508.43	0.634
508.63	0.636
508.83	0.637
509.03	0.638
509.23	0.637
509.43	0.638
509.63	0.639
509.83	0.637
510.03	0.640
510.23	0.641
510.43	0.642
510.63	0.642
510.83	0.642
511.03	0.644
511.23	0.641
511.43	0.640
511.63	0.642
511.83	0.644
512.03	0.644
512.22	0.640
512.42	0.640
512.62	0.640
512.82	0.640
513.02	0.639
513.22	0.639
513.42	0.641
513.62	0.644
513.82	0.641
514.02	0.640
514.22	0.642
514.42	0.642
514.62	0.642
514.82	0.642
515.02	0.644
515.22	0.647
515.42	0.646
515.62	0.648
515.82	0.647
516.02	0.648
516.22	0.648
516.42	0.649
516.62	0.651
516.82	0.652
517.01	0.651
517.21	0.650
517.41	0.653
517.61	0.653
517.81	0.649
518.01	0.649
518.21	0.649
518.41	0.647
518.61	0.646
518.81	0.647
519.01	0.648
519.21	0.648
519.41	0.647
519.61	0.641
519.81	0.644
520.00	0.645
520.20	0.645
520.40	0.648
520.60	0.649
520.80	0.648
521.00	0.648
521.20	0.649
521.40	0.654
521.60	0.655
521.80	0.653
522.00	0.654
522.20	0.656
522.39	0.656
522.59	0.652
522.79	0.654
522.99	0.656
523.19	0.654
523.39	0.652
523.59	0.650
523.79	0.653
523.99	0.656
524.19	0.654
524.38	0.653
524.58	0.654
524.78	0.655
524.98	0.652
525.18	0.655
525.38	0.656
525.58	0.657
525.78	0.654
525.98	0.652
526.18	0.653
526.37	0.652
526.57	0.654
526.77	0.654
526.97	0.655
527.17	0.655
527.37	0.651
527.57	0.654
527.77	0.656
527.96	0.656
528.16	0.655
528.36	0.656
528.56	0.658
528.76	0.656
528.96	0.654
529.16	0.656
529.36	0.659
529.55	0.659
529.75	0.655
529.95	0.655
530.15	0.657
530.35	0.659
530.55	0.657
530.75	0.657
530.94	0.660
531.14	0.660
531.34	0.659
531.54	0.656
531.74	0.660
531.94	0.664
532.13	0.662
532.33	0.663
532.53	0.662
532.73	0.662
532.93	0.660
533.13	0.660
533.33	0.660
533.52	0.661
533.72	0.664
533.92	0.662
534.12	0.660
534.32	0.660
534.52	0.659
534.71	0.660
534.91	0.662
535.11	0.664
535.31	0.662
535.51	0.664
535.71	0.666
535.90	0.663
536.10	0.663
536.30	0.665
536.50	0.666
536.70	0.666
536.89	0.664
537.09	0.664
537.29	0.665
537.49	0.666
537.69	0.663
537.89	0.664
538.08	0.663
538.28	0.661
538.48	0.661
538.68	0.663
538.88	0.665
539.07	0.665
539.27	0.663
539.47	0.663
539.67	0.663
539.87	0.664
540.06	0.662
540.26	0.663
540.46	0.665
540.66	0.663
540.86	0.660
541.05	0.660
541.25	0.662
541.45	0.662
541.65	0.660
541.84	0.663
542.04	0.663
542.24	0.665
542.44	0.663
542.64	0.664
542.83	0.666
543.03	0.666
543.23	0.664
543.43	0.664
543.62	0.666
543.82	0.667
544.02	0.665
544.22	0.665
544.42	0.668
544.61	0.669
544.81	0.666
545.01	0.664
545.21	0.667
545.40	0.668
545.60	0.666
545.80	0.669
546.00	0.669
546.19	0.669
546.39	0.668
546.59	0.665
546.79	0.667
546.98	0.667
547.18	0.667
547.38	0.668
547.58	0.670
547.77	0.671
547.97	0.666
548.17	0.668
548.37	0.668
548.56	0.668
548.76	0.668
548.96	0.669
549.16	0.672
549.35	0.671
549.55	0.669
549.75	0.669
549.95	0.673
550.14	0.673
550.34	0.671
550.54	0.676
550.73	0.680
550.93	0.680
551.13	0.677
551.33	0.676
551.52	0.677
551.72	0.677
551.92	0.674
552.12	0.674
552.31	0.675
552.51	0.676
552.71	0.671
552.90	0.671
553.10	0.673
553.30	0.673
553.50	0.672
553.69	0.674
553.89	0.675
554.09	0.676
554.28	0.674
554.48	0.675
554.68	0.676
554.87	0.677
555.07	0.674
555.27	0.673
555.47	0.675
555.66	0.675
555.86	0.673
556.06	0.675
556.25	0.677
556.45	0.684
556.65	0.682
556.84	0.685
557.04	0.688
557.24	0.689
557.43	0.688
557.63	0.691
557.83	0.692
558.02	0.693
558.22	0.697
558.42	0.697
558.61	0.690
558.81	0.690
559.01	0.686
559.21	0.687
559.40	0.688
559.60	0.689
559.80	0.685
559.99	0.686
560.19	0.688
560.39	0.683
560.58	0.681
560.78	0.681
560.97	0.685
561.17	0.684
561.37	0.681
561.56	0.682
561.76	0.683
561.96	0.683
562.15	0.680
562.35	0.683
562.55	0.684
562.74	0.683
562.94	0.682
563.14	0.680
563.33	0.682
563.53	0.681
563.73	0.679
563.92	0.681
564.12	0.684
564.31	0.686
564.51	0.684
564.71	0.685
564.90	0.688
565.10	0.690
565.30	0.691
565.49	0.692
565.69	0.694
565.89	0.695
566.08	0.692
566.28	0.694
566.47	0.695
566.67	0.693
566.87	0.691
567.06	0.692
567.26	0.698
567.46	0.694
567.65	0.693
567.85	0.693
568.04	0.697
568.24	0.696
568.44	0.693
568.63	0.691
568.83	0.693
569.02	0.692
569.22	0.687
569.42	0.683
569.61	0.685
569.81	0.683
570.00	0.682
570.20	0.683
570.40	0.684
570.59	0.684
570.79	0.682
570.98	0.680
571.18	0.681
571.38	0.682
571.57	0.678
571.77	0.677
571.96	0.681
572.16	0.678
572.35	0.672
572.55	0.673
572.75	0.672
572.94	0.672
573.14	0.670
573.33	0.670
573.53	0.670
573.73	0.669
573.92	0.667
574.12	0.665
574.31	0.668
574.51	0.669
574.70	0.666
574.90	0.668
575.09	0.670
575.29	0.670
575.49	0.667
575.68	0.668
575.88	0.670
576.07	0.671
576.27	0.669
576.46	0.668
576.66	0.667
576.86	0.666
577.05	0.664
577.25	0.662
577.44	0.664
577.64	0.664
577.83	0.662
578.03	0.663
578.22	0.662
578.42	0.662
578.61	0.660
578.81	0.661
579.00	0.662
579.20	0.661
579.40	0.660
579.59	0.658
579.79	0.659
579.98	0.659
580.18	0.658
580.37	0.658
580.57	0.660
580.76	0.665
580.96	0.663
581.15	0.664
581.35	0.666
581.54	0.666
581.74	0.666
581.93	0.667
582.13	0.668
582.32	0.666
582.52	0.664
582.71	0.663
582.91	0.660
583.10	0.659
583.30	0.657
583.49	0.656
583.69	0.660
583.88	0.661
584.08	0.660
584.27	0.662
584.47	0.665
584.66	0.666
584.86	0.665
585.05	0.667
585.25	0.670
585.44	0.669
585.64	0.668
585.83	0.665
586.03	0.666
586.22	0.664
586.42	0.660
586.61	0.662
586.81	0.665
587.00	0.665
587.20	0.662
587.39	0.663
587.59	0.665
587.78	0.667
587.98	0.666
588.17	0.667
588.37	0.670
588.56	0.672
588.76	0.667
588.95	0.667
589.15	0.671
589.34	0.673
589.54	0.671
589.73	0.673
589.92	0.675
590.12	0.675
590.31	0.673
590.51	0.678
590.70	0.680
590.90	0.681
591.09	0.678
591.29	0.677
591.48	0.677
591.68	0.678
591.87	0.675
592.06	0.675
592.26	0.678
592.45	0.678
592.65	0.672
592.84	0.672
593.04	0.674
593.23	0.677
593.43	0.674
593.62	0.674
593.81	0.674
594.01	0.674
594.20	0.671
594.40	0.670
594.59	0.672
594.79	0.673
594.98	0.670
595.17	0.670
595.37	0.670
595.56	0.672
595.76	0.671
595.95	0.673
596.14	0.675
596.34	0.677
596.53	0.675
596.73	0.676
596.92	0.678
597.12	0.680
597.31	0.680
597.50	0.679
597.70	0.682
597.89	0.682
598.09	0.678
598.28	0.679
598.47	0.682
598.67	0.680
598.86	0.677
599.06	0.678
599.25	0.678
599.44	0.677
599.64	0.674
599.83	0.672
600.03	0.675
600.22	0.676
600.41	0.676
600.61	0.673
600.80	0.676
601.00	0.676
601.19	0.672
601.38	0.671
601.58	0.673
601.77	0.674
601.96	0.675
602.16	0.675
602.35	0.684
602.55	0.682
602.74	0.682
602.93	0.683
603.13	0.689
603.32	0.691
603.51	0.690
603.71	0.694
603.90	0.696
604.09	0.697
604.29	0.694
604.48	0.688
604.68	0.689
604.87	0.688
605.06	0.684
605.26	0.681
605.45	0.682
605.64	0.681
605.84	0.676
606.03	0.676
606.22	0.675
606.42	0.674
606.61	0.671
606.80	0.671
607.00	0.673
607.19	0.673
607.38	0.671
607.58	0.673
607.77	0.675
607.96	0.675
608.16	0.673
608.35	0.677
608.54	0.681
608.74	0.683
608.93	0.688
609.12	0.690
609.32	0.693
609.51	0.696
609.70	0.695
609.90	0.697
610.09	0.701
610.28	0.707
610.48	0.700
610.67	0.701
610.86	0.702
611.06	0.696
611.25	0.695
611.44	0.696
611.64	0.696
611.83	0.699
612.02	0.695
612.21	0.694
612.41	0.692
612.60	0.692
612.79	0.687
612.99	0.687
613.18	0.689
613.37	0.686
613.57	0.683
613.76	0.685
613.95	0.683
614.14	0.683
614.34	0.680
614.53	0.681
614.72	0.684
614.92	0.685
615.11	0.682
615.30	0.679
615.49	0.681
615.69	0.684
615.88	0.679
616.07	0.679
616.26	0.682
616.46	0.683
616.65	0.679
616.84	0.678
617.04	0.679
617.23	0.682
617.42	0.683
617.61	0.686
617.81	0.687
618.00	0.689
618.19	0.688
618.38	0.692
618.58	0.695
618.77	0.697
618.96	0.696
619.15	0.698
619.35	0.701
619.54	0.701
619.73	0.697
619.92	0.699
620.12	0.703
620.31	0.704
620.50	0.698
620.69	0.699
620.89	0.703
621.08	0.702
621.27	0.702
621.46	0.700
621.66	0.704
621.85	0.703
622.04	0.699
622.23	0.700
622.43	0.701
622.62	0.701
622.81	0.700
623.00	0.699
623.19	0.704
623.39	0.703
623.58	0.700
623.77	0.698
623.96	0.702
624.16	0.702
624.35	0.697
624.54	0.700
624.73	0.703
624.92	0.701
625.12	0.698
625.31	0.698
625.50	0.701
625.69	0.702
625.88	0.698
626.08	0.698
626.27	0.700
626.46	0.699
626.65	0.695
626.84	0.695
627.04	0.701
627.23	0.701
627.42	0.697
627.61	0.698
627.80	0.701
628.00	0.702
628.19	0.699
628.38	0.703
628.57	0.707
628.76	0.707
628.96	0.704
629.15	0.704
629.34	0.708
629.53	0.708
629.72	0.703
629.91	0.703
630.11	0.708
630.30	0.708
630.49	0.710
630.68	0.711
630.87	0.714
631.06	0.716
631.26	0.711
631.45	0.712
631.64	0.719
631.83	0.723
632.02	0.720
632.21	0.720
632.41	0.726
632.60	0.721
632.79	0.719
632.98	0.719
633.17	0.720
633.36	0.723
633.55	0.719
633.75	0.716
633.94	0.717
634.13	0.718
634.32	0.715
634.51	0.709
634.70	0.712
634.89	0.712
635.09	0.708
635.28	0.709
635.47	0.710
635.66	0.713
635.85	0.708
636.04	0.710
636.23	0.715
636.43	0.716
636.62	0.715
636.81	0.713
637.00	0.715
637.19	0.719
637.38	0.715
637.57	0.715
637.76	0.716
637.95	0.717
638.15	0.712
638.34	0.708
638.53	0.712
638.72	0.713
638.91	0.710
639.10	0.707
639.29	0.708
639.48	0.709
639.67	0.709
639.87	0.708
640.06	0.713
640.25	0.713
640.44	0.715
640.63	0.715
640.82	0.718
641.01	0.719
641.20	0.719
641.39	0.720
641.58	0.722
641.78	0.721
641.97	0.717
642.16	0.730
642.35	0.732
642.54	0.730
642.73	0.725
642.92	0.722
643.11	0.727
643.30	0.726
643.49	0.722
643.68	0.724
643.87	0.727
644.06	0.726
644.25	0.706
644.45	0.709
644.64	0.710
644.83	0.711
645.02	0.708
645.21	0.707
645.40	0.710
645.59	0.709
645.78	0.703
645.97	0.705
646.16	0.706
646.35	0.706
646.54	0.704
646.73	0.706
646.92	0.707
647.11	0.707
647.30	0.702
647.49	0.703
647.68	0.702
647.88	0.701
648.07	0.693
648.26	0.696
648.45	0.699
648.64	0.695
648.83	0.692
649.02	0.695
649.21	0.706
649.40	0.704
649.59	0.700
649.78	0.700
649.97	0.716
650.16	0.716
650.35	0.711
650.54	0.713
650.73	0.722
650.92	0.718
651.11	0.711
651.30	0.707
651.49	0.712
651.68	0.713
651.87	0.710
652.06	0.699
652.25	0.702
652.44	0.704
652.63	0.700
652.82	0.699
653.01	0.700
653.20	0.697
653.39	0.686
653.58	0.684
653.77	0.683
653.96	0.678
654.15	0.670
654.34	0.668
654.53	0.664
654.72	0.659
654.91	0.649
655.10	0.645
655.29	0.643
655.48	0.641
655.67	0.636
655.86	0.633
656.05	0.632
656.24	0.632
656.43	0.626
656.62	0.625
656.81	0.625
657.00	0.624
657.19	0.621
657.38	0.622
657.57	0.621
657.76	0.624
657.95	0.622
658.14	0.625
658.33	0.628
658.51	0.633
658.70	0.634
658.89	0.636
659.08	0.644
659.27	0.652
659.46	0.651
659.65	0.658
659.84	0.661
660.03	0.664
660.22	0.666
660.41	0.670
660.60	0.669
660.79	0.670
660.98	0.676
661.17	0.675
661.36	0.674
661.55	0.676
661.74	0.674
661.92	0.677
662.11	0.679
662.30	0.677
662.49	0.669
662.68	0.668
662.87	0.672
663.06	0.665
663.25	0.666
663.44	0.665
663.63	0.667
663.82	0.664
664.01	0.658
664.20	0.656
664.38	0.659
664.57	0.660
664.76	0.660
664.95	0.660
665.14	0.665
665.33	0.660
665.52	0.668
665.71	0.671
665.90	0.670
666.09	0.672
666.28	0.669
666.46	0.669
666.65	0.669
666.84	0.666
667.03	0.661
667.22	0.658
667.41	0.661
667.60	0.650
667.79	0.644
667.98	0.646
668.16	0.647
668.35	0.647
668.54	0.643
668.73	0.644
668.92	0.646
669.11	0.645
669.30	0.639
669.49	0.636
669.67	0.638
669.86	0.640
670.05	0.637
670.24	0.635
670.43	0.632
670.62	0.631
670.81	0.626
671.00	0.627
671.18	0.627
671.37	0.627
671.56	0.625
671.75	0.624
671.94	0.621
672.13	0.619
672.32	0.614
672.50	0.614
672.69	0.615
672.88	0.616
673.07	0.612
673.26	0.613
673.45	0.615
673.63	0.615
673.82	0.611
674.01	0.612
674.20	0.611
674.39	0.611
674.58	0.610
674.76	0.610
674.95	0.609
675.14	0.608
675.33	0.604
675.52	0.602
675.71	0.602
675.89	0.602
676.08	0.598
676.27	0.598
676.46	0.599
676.65	0.599
676.84	0.598
677.02	0.600
677.21	0.603
677.40	0.602
677.59	0.599
677.78	0.600
677.96	0.602
678.15	0.602
678.34	0.599
678.53	0.600
678.72	0.600
678.90	0.596
679.09	0.592
679.28	0.588
679.47	0.589
679.66	0.588
679.84	0.584
680.03	0.582
680.22	0.580
680.41	0.582
680.60	0.578
680.78	0.578
680.97	0.581
681.16	0.580
681.35	0.579
681.53	0.577
681.72	0.579
681.91	0.581
682.10	0.579
682.29	0.583
682.47	0.581
682.66	0.581
682.85	0.579
683.04	0.576
683.22	0.577
683.41	0.578
683.60	0.578
683.79	0.579
683.97	0.578
684.16	0.576
684.35	0.572
684.54	0.573
684.72	0.574
684.91	0.575
685.10	0.573
685.29	0.574
685.47	0.571
685.66	0.570
685.85	0.566
686.04	0.565
686.22	0.569
686.41	0.571
686.60	0.568
686.79	0.571
686.97	0.572
687.16	0.573
687.35	0.570
687.54	0.574
687.72	0.578
687.91	0.579
688.10	0.580
688.29	0.579
688.47	0.578
688.66	0.577
688.85	0.572
689.03	0.570
689.22	0.575
689.41	0.575
689.60	0.570
689.78	0.567
689.97	0.567
690.16	0.565
690.34	0.561
690.53	0.560
690.72	0.561
690.91	0.559
691.09	0.557
691.28	0.551
691.47	0.550
691.65	0.549
691.84	0.546
692.03	0.545
692.21	0.544
692.40	0.543
692.59	0.540
692.77	0.539
692.96	0.541
693.15	0.542
693.34	0.539
693.52	0.539
693.71	0.540
693.90	0.542
694.08	0.542
694.27	0.542
694.46	0.552
694.64	0.553
694.83	0.553
695.02	0.551
695.20	0.551
695.39	0.551
695.58	0.550
695.76	0.551
695.95	0.550
696.14	0.550
696.32	0.547
696.51	0.538
696.70	0.538
696.88	0.539
697.07	0.538
697.26	0.539
697.44	0.541
697.63	0.540
697.81	0.537
698.00	0.537
698.19	0.537
698.37	0.537
698.56	0.537
698.75	0.537
698.93	0.536
699.12	0.536
699.31	0.534
699.49	0.533
699.68	0.534
699.87	0.536
700.05	0.536
700.24	0.535
700.42	0.537
700.61	0.536
700.80	0.534
700.98	0.534
701.17	0.536
701.36	0.535
701.54	0.534
701.73	0.535
701.91	0.534
702.10	0.533
702.29	0.531
702.47	0.530
702.66	0.531
702.84	0.533
703.03	0.531
703.22	0.532
703.40	0.532
703.59	0.533
703.77	0.532
703.96	0.532
704.15	0.533
704.33	0.533
704.52	0.533
704.70	0.532
704.89	0.532
705.08	0.531
705.26	0.527
705.45	0.527
705.63	0.527
705.82	0.523
706.00	0.522
706.19	0.521
706.38	0.521
706.56	0.521
706.75	0.519
706.93	0.518
707.12	0.519
707.30	0.520
707.49	0.517
707.68	0.516
707.86	0.515
708.05	0.515
708.23	0.512
708.42	0.513
708.60	0.516
708.79	0.515
708.98	0.514
709.16	0.513
709.35	0.515
709.53	0.519
709.72	0.517
709.90	0.519
710.09	0.521
710.27	0.523
710.46	0.527
710.64	0.525
710.83	0.527
711.02	0.529
711.20	0.528
711.39	0.526
711.57	0.523
711.76	0.525
711.94	0.523
712.13	0.523
712.31	0.523
712.50	0.519
712.68	0.516
712.87	0.516
713.05	0.516
713.24	0.517
713.42	0.516
713.61	0.517
713.79	0.517
713.98	0.518
714.16	0.518
714.35	0.518
714.54	0.519
714.72	0.519
714.91	0.517
715.09	0.523
715.28	0.526
715.46	0.525
715.65	0.523
715.83	0.523
716.02	0.525
716.20	0.522
716.39	0.521
716.57	0.521
716.76	0.524
716.94	0.524
717.12	0.516
717.31	0.518
717.49	0.521
717.68	0.522
717.86	0.521
718.05	0.523
718.23	0.526
718.42	0.527
718.60	0.529
718.79	0.536
718.97	0.539
719.16	0.539
719.34	0.536
719.53	0.536
719.71	0.537
719.90	0.539
720.08	0.536
720.27	0.536
720.45	0.537
720.63	0.535
720.82	0.529
721.00	0.532
721.19	0.535
721.37	0.535
721.56	0.535
721.74	0.537
721.93	0.545
722.11	0.552
722.30	0.552
722.48	0.555
722.66	0.556
722.85	0.556
723.03	0.556
723.22	0.555
723.40	0.559
723.59	0.559
723.77	0.562
723.95	0.557
724.14	0.557
724.32	0.558
724.51	0.558
724.69	0.560
724.88	0.561
725.06	0.558
725.24	0.559
725.43	0.560
725.61	0.563
725.80	0.556
725.98	0.554
726.16	0.552
726.35	0.557
726.53	0.557
726.72	0.555
726.90	0.566
727.09	0.566
727.27	0.571
727.45	0.568
727.64	0.577
727.82	0.587
728.01	0.591
728.19	0.586
728.37	0.592
728.56	0.596
728.74	0.603
728.92	0.589
729.11	0.592
729.29	0.591
729.48	0.593
729.66	0.581
729.84	0.581
730.03	0.586
730.21	0.588
730.40	0.577
730.58	0.578
730.76	0.578
730.95	0.581
731.13	0.580
731.31	0.594
731.50	0.604
731.68	0.608
731.86	0.604
732.05	0.618
732.23	0.624
732.42	0.627
732.60	0.630
732.78	0.634
732.97	0.653
733.15	0.659
733.33	0.645
733.52	0.652
733.70	0.661
733.88	0.671
734.07	0.655
734.25	0.678
734.43	0.688
734.62	0.692
734.80	0.685
734.98	0.674
735.17	0.684
735.35	0.690
735.53	0.677
735.72	0.682
735.90	0.703
736.08	0.724
736.27	0.700
736.45	0.707
736.63	0.718
736.82	0.728
737.00	0.730
737.18	0.739
737.37	0.770
737.55	0.792
737.73	0.783
737.92	0.784
738.10	0.781
738.28	0.803
738.46	0.792
738.65	0.806
738.83	0.826
739.01	0.877
739.20	0.865
739.38	0.849
739.56	0.842
739.75	0.845
739.93	0.810
740.11	0.833
740.29	0.835
740.48	0.842
740.66	0.822
740.84	0.817
741.03	0.785
741.21	0.796
741.39	0.774
741.57	0.790
741.76	0.807
741.94	0.814
742.12	0.776
742.31	0.778
742.49	0.797
742.67	0.817
742.85	0.830
743.04	0.829
743.22	0.837
743.40	0.894
743.58	0.871
743.77	0.887
743.95	0.922
744.13	0.973
744.31	0.954
744.50	0.944
744.68	0.944
744.86	0.918
745.04	0.932
745.23	0.990
745.41	0.970
745.59	0.978
745.77	0.942
745.96	0.932
746.14	0.943
746.32	0.942
746.50	0.936
746.69	0.918
746.87	0.929
747.05	0.914
747.23	0.844
747.42	0.830
747.60	0.855
747.78	0.860
747.96	0.885
748.14	0.841
748.33	0.872
748.51	0.863
748.69	0.857
748.87	0.887
749.06	0.882
749.24	0.887
749.42	0.876
749.60	0.856
749.78	0.866
749.97	0.820
750.15	0.817
750.33	0.814
750.51	0.841
750.69	0.845
750.88	0.844
751.06	0.855
751.24	0.877
751.42	0.868
751.60	0.860
751.79	0.932
751.97	0.976
752.15	0.973
752.33	0.942
752.51	1.006
752.69	1.024
752.88	0.995
753.06	1.035
753.24	1.018
753.42	1.053
753.60	1.213
753.78	1.062
753.97	1.085
754.15	1.099
754.33	1.131
754.51	1.002
754.69	0.992
754.87	1.026
755.06	0.958
755.24	0.955
755.42	0.961
755.60	0.871
755.78	0.882
755.96	0.829
756.15	0.829
756.33	0.833
756.51	0.856
756.69	0.838
756.87	0.809
757.05	0.830
757.23	0.812
757.42	0.782
757.60	0.780
757.78	0.770
757.96	0.770
758.14	0.754
758.32	0.742
758.50	0.754
758.69	0.750
758.87	0.738
759.05	0.741
759.23	0.752
759.41	0.753
759.59	0.744
759.77	0.765
759.95	0.789
760.13	0.835
760.32	0.830
760.50	0.825
760.68	0.852
760.86	0.855
761.04	0.826
761.22	0.829
761.40	0.875
761.58	0.881
761.76	0.852
761.95	0.835
762.13	0.796
762.31	0.799
762.49	0.769
762.67	0.785
762.85	0.799
763.03	0.796
763.21	0.778
763.39	0.759
763.57	0.761
763.75	0.757
763.94	0.741
764.12	0.741
764.30	0.761
764.48	0.765
764.66	0.731
764.84	0.728
765.02	0.768
765.20	0.772
765.38	0.752
765.56	0.757
765.74	0.795
765.92	0.796
766.10	0.802
766.28	0.798
766.46	0.825
766.65	0.826
766.83	0.811
767.01	0.792
767.19	0.805
767.37	0.806
767.55	0.792
767.73	0.775
767.91	0.779
768.09	0.768
768.27	0.756
768.45	0.747
768.63	0.751
768.81	0.753
768.99	0.729
769.17	0.749
769.35	0.762
769.53	0.761
769.71	0.740
769.89	0.748
770.07	0.752
770.25	0.736
770.43	0.713
770.61	0.737
770.79	0.743
770.97	0.749
771.15	0.723
771.33	0.726
771.51	0.729
771.69	0.739
771.87	0.746
772.05	0.752
772.24	0.761
772.42	0.772
772.60	0.748
772.78	0.806
772.96	0.834
773.14	0.827
773.32	0.804
773.49	0.811
773.67	0.812
773.85	0.794
774.03	0.783
774.21	0.812
774.39	0.825
774.57	0.848
774.75	0.776
774.93	0.776
775.11	0.798
775.29	0.803
775.47	0.802
775.65	0.811
775.83	0.827
776.01	0.849
776.19	0.803
776.37	0.804
776.55	0.806
776.73	0.804
776.91	0.796
777.09	0.781
777.27	0.782
777.45	0.770
777.63	0.747
777.81	0.742
777.99	0.731
778.17	0.730
778.35	0.710
778.53	0.699
778.71	0.708
778.89	0.697
779.07	0.684
779.24	0.690
779.42	0.694
779.60	0.712
779.78	0.709
779.96	0.712
780.14	0.723
780.32	0.740
780.50	0.723
780.68	0.721
780.86	0.711
781.04	0.729
781.22	0.731
781.40	0.741
781.58	0.733
781.75	0.727
781.93	0.711
782.11	0.709
782.29	0.698
782.47	0.696
782.65	0.683
782.83	0.712
783.01	0.705
783.19	0.699
783.37	0.684
783.55	0.687
783.72	0.706
783.90	0.716
784.08	0.709
784.26	0.720
784.44	0.739
784.62	0.742
784.80	0.708
784.98	0.715
785.16	0.721
785.33	0.737
785.51	0.721
785.69	0.706
785.87	0.705
786.05	0.716
786.23	0.709
786.41	0.707
786.59	0.715
786.77	0.717
786.94	0.704
787.12	0.707
787.30	0.708
787.48	0.708
787.66	0.696
787.84	0.696
788.02	0.688
788.19	0.687
788.37	0.674
788.55	0.674
788.73	0.672
788.91	0.667
789.09	0.650
789.27	0.641
789.44	0.652
789.62	0.656
789.80	0.665
789.98	0.686
790.16	0.674
790.34	0.671
790.51	0.660
790.69	0.679
790.87	0.684
791.05	0.684
791.23	0.676
791.41	0.678
791.58	0.685
791.76	0.665
791.94	0.637
792.12	0.646
792.30	0.649
792.48	0.646
792.65	0.638
792.83	0.644
793.01	0.651
793.19	0.649
793.37	0.634
793.54	0.632
793.72	0.644
793.90	0.642
794.08	0.632
794.26	0.633
794.43	0.640
794.61	0.625
794.79	0.615
794.97	0.612
795.15	0.617
795.32	0.619
795.50	0.608
795.68	0.602
795.86	0.607
796.04	0.608
796.21	0.601
796.39	0.601
796.57	0.615
796.75	0.623
796.92	0.626
797.10	0.631
797.28	0.635
797.46	0.638
797.64	0.638
797.81	0.645
797.99	0.650
798.17	0.655
798.35	0.648
798.52	0.649
798.70	0.645
798.88	0.653
799.06	0.651
799.23	0.655
799.41	0.664
799.59	0.658
799.77	0.645
799.94	0.653
800.12	0.661
800.30	0.678
800.48	0.677
800.65	0.678
800.83	0.666
801.01	0.658
801.19	0.657
801.36	0.655
801.54	0.659
801.72	0.670
801.90	0.658
802.07	0.654
802.25	0.639
802.43	0.626
802.60	0.621
802.78	0.629
802.96	0.634
803.14	0.627
803.31	0.623
803.49	0.625
803.67	0.619
803.84	0.624
804.02	0.616
804.20	0.619
804.38	0.624
804.55	0.623
804.73	0.609
804.91	0.609
805.08	0.623
805.26	0.619
805.44	0.681
805.61	0.686
805.79	0.685
805.97	0.685
806.15	0.678
806.32	0.672
806.50	0.680
806.68	0.680
806.85	0.671
807.03	0.660
807.21	0.675
807.38	0.608
807.56	0.598
807.74	0.608
807.91	0.615
808.09	0.617
808.27	0.635
808.44	0.661
808.62	0.670
808.80	0.674
808.97	0.669
809.15	0.667
809.33	0.685
809.50	0.692
809.68	0.677
809.86	0.684
810.03	0.716
810.21	0.696
810.39	0.677
810.56	0.682
810.74	0.705
810.91	0.776
811.09	0.762
811.27	0.784
811.44	0.789
811.62	0.790
811.80	0.774
811.97	0.744
812.15	0.744
812.33	0.738
812.50	0.722
812.68	0.710
812.85	0.655
813.03	0.658
813.21	0.626
813.38	0.620
813.56	0.625
813.74	0.633
813.91	0.640
814.09	0.670
814.26	0.664
814.44	0.667
814.62	0.655
814.79	0.661
814.97	0.665
815.14	0.670
815.32	0.675
815.50	0.691
815.67	0.695
815.85	0.684
816.02	0.672
816.20	0.682
816.38	0.698
816.55	0.704
816.73	0.703
816.90	0.712
817.08	0.741
817.26	0.743
817.43	0.724
817.61	0.745
817.78	0.769
817.96	0.750
818.13	0.738
818.31	0.737
818.49	0.751
818.66	0.742
818.84	0.727
819.01	0.708
819.19	0.714
819.36	0.713
819.54	0.684
819.71	0.724
819.89	0.739
820.07	0.751
820.24	0.746
820.42	0.743
820.59	0.763
820.77	0.786
820.94	0.777
821.12	0.795
821.29	0.812
821.47	0.814
821.64	0.747
821.82	0.759
822.00	0.756
822.17	0.751
822.35	0.744
822.52	0.745
822.70	0.734
822.87	0.741
823.05	0.719
823.22	0.730
823.40	0.757
823.57	0.781
823.75	0.762
823.92	0.785
824.10	0.805
824.27	0.847
824.45	0.835
824.62	0.896
824.80	0.918
824.97	0.934
825.15	0.922
825.32	0.933
825.50	0.930
825.67	0.941
825.85	0.919
826.02	0.942
826.20	0.958
826.37	1.076
826.55	0.990
826.72	1.168
826.90	1.244
827.07	1.291
827.25	1.224
827.42	1.382
827.60	1.515
827.77	1.667
827.95	1.589
828.12	1.718
828.30	1.385
828.47	1.519
828.65	1.164
828.82	1.218
829.00	1.252
829.17	1.322
829.34	1.313
829.52	1.351
829.69	-0.000
829.87	-0.000
830.04	-0.000
830.22	-0.000
830.39	-0.000
830.57	-0.000
830.74	-0.000
830.92	-0.000
831.09	-0.000
831.26	-0.000
831.44	-0.000
831.61	-0.000
831.79	-0.000
831.96	-0.000
832.14	-0.000
832.31	-0.000
832.49	-0.000
832.66	-0.000
832.83	-0.000
833.01	-0.000
833.18	-0.000
833.36	-0.000
833.53	-0.000
833.70	-0.000
833.88	-0.000
834.05	-0.000
834.23	-0.000
834.40	-0.000
834.58	-0.000
834.75	-0.000
834.92	-0.000
835.10	-0.000
835.27	-0.000
835.45	-0.000
835.62	-0.000
835.79	-0.000
835.97	-0.000
836.14	-0.000
836.32	-0.000
836.49	-0.000
836.66	-0.000
836.84	-0.000
837.01	-0.000
837.18	-0.000
837.36	-0.000
837.53	-0.000
837.71	-0.000
837.88	-0.000
838.05	-0.000
838.23	-0.000
838.40	-0.000
838.58	-0.000
838.75	-0.000
838.92	-0.000
839.10	-0.000
839.27	-0.000
839.44	-0.000
839.62	-0.000
839.79	-0.000
839.96	-0.000
840.14	-0.000
840.31	-0.000
840.48	-0.000
840.66	-0.000
840.83	-0.000
841.01	-0.000
841.18	-0.000
841.35	-0.000
841.53	-0.000
841.70	-0.000
841.87	-0.000
842.05	-0.000
842.22	-0.000
842.39	-0.000
842.57	-0.000
842.74	-0.000
842.91	-0.000
843.09	-0.000
843.26	-0.000
843.43	-0.000
843.60	-0.000
843.78	-0.000
843.95	-0.000
844.12	-0.000
844.30	-0.000
844.47	-0.000
844.64	-0.000
844.82	-0.000
844.99	-0.000
845.16	-0.000
845.34	-0.000
845.51	-0.000
845.68	-0.000
845.85	-0.000
846.03	-0.000
846.20	-0.000
846.37	-0.000
846.55	-0.000
846.72	-0.000
846.89	-0.000
847.06	-0.000
847.24	-0.000
847.41	-0.000
847.58	-0.000
847.76	-0.000
847.93	-0.000
848.10	-0.000
848.27	-0.000
848.45	-0.000
848.62	-0.000
848.79	-0.000
848.97	-0.000
849.14	-0.000
849.31	-0.000
849.48	-0.000
849.66	-0.000
849.83	-0.000
850.00	-0.000
850.17	-0.000
850.35	-0.000
850.52	-0.000
850.69	-0.000
850.86	-0.000
851.04	-0.000
851.21	-0.000
851.38	-0.000
851.55	-0.000
851.72	-0.000
851.90	-0.000
852.07	-0.000
852.24	-0.000
852.41	-0.000
852.59	-0.000
852.76	-0.000
852.93	-0.000
853.10	-0.000
853.28	-0.000
853.45	-0.000
853.62	-0.000
853.79	-0.000
853.96	-0.000
854.14	-0.000
854.31	-0.000
854.48	-0.000
854.65	-0.000
854.82	-0.000
855.00	-0.000
855.17	-0.000
855.34	-0.000
855.51	-0.000
855.68	-0.000
855.86	-0.000
856.03	-0.000
856.20	-0.000
856.37	-0.000
856.54	-0.000
856.72	-0.000
856.89	-0.000
857.06	-0.000
857.23	-0.000
857.40	-0.000
857.57	-0.000
857.75	-0.000
857.92	-0.000
858.09	-0.000
858.26	-0.000
858.43	-0.000
858.60	-0.000
858.78	-0.000
858.95	-0.000
859.12	-0.000
859.29	-0.000
859.46	-0.000
859.63	-0.000
859.81	-0.000
859.98	-0.000
860.15	-0.000
860.32	-0.000
860.49	-0.000
860.66	-0.000
860.83	-0.000
861.01	-0.000
861.18	-0.000
861.35	-0.000
861.52	-0.000
861.69	-0.000
861.86	-0.000
862.03	-0.000
862.21	-0.000
862.38	-0.000
862.55	-0.000
862.72	-0.000
862.89	-0.000
863.06	-0.000
863.23	-0.000
863.40	-0.000
863.58	-0.000
863.75	-0.000
863.92	-0.000
864.09	-0.000
864.26	-0.000
864.43	-0.000
864.60	-0.000
864.77	-0.000
864.94	-0.000
865.11	-0.000
865.29	-0.000
865.46	-0.000
865.63	-0.000
865.80	-0.000
865.97	-0.000
866.14	-0.000
866.31	-0.000
866.48	-0.000
866.65	-0.000
866.82	-0.000
866.99	-0.000
867.16	-0.000
867.34	-0.000
867.51	-0.000
867.68	-0.000
867.85	-0.000
868.02	-0.000
868.19	-0.000
868.36	-0.000
868.53	-0.000
868.70	-0.000
868.87	-0.000
869.04	-0.000
869.21	-0.000
869.38	-0.000
869.55	-0.000
869.72	-0.000
869.89	-0.000
870.06	-0.000
870.24	-0.000
870.41	-0.000
870.58	-0.000
870.75	-0.000
870.92	-0.000
871.09	-0.000
871.26	-0.000
871.43	-0.000
871.60	-0.000
871.77	-0.000
871.94	-0.000
872.11	-0.000
872.28	-0.000
872.45	-0.000
872.62	-0.000
872.79	-0.000
872.96	-0.000
873.13	-0.000
873.30	-0.000
873.47	-0.000
873.64	-0.000
873.81	-0.000
873.98	-0.000
874.15	-0.000
874.32	-0.000
874.49	-0.000
874.66	-0.000
874.83	-0.000
875.00	-0.000
875.17	-0.000
875.34	-0.000
875.51	-0.000
875.68	-0.000
875.85	-0.000
876.02	-0.000
876.19	-0.000
876.36	-0.000
876.53	-0.000
876.70	-0.000
876.87	-0.000
877.04	-0.000
877.21	-0.000
877.38	-0.000
877.55	-0.000
877.72	-0.000
877.89	-0.000
878.06	-0.000
878.23	-0.000
878.39	-0.000
878.56	-0.000
878.73	-0.000
878.90	-0.000
879.07	-0.000
879.24	-0.000
879.41	-0.000
879.58	-0.000
879.75	-0.000
879.92	-0.000
880.09	-0.000
880.26	-0.000
880.43	-0.000
880.60	-0.000
880.77	-0.000
880.94	-0.000
881.11	-0.000
881.27	-0.000
881.44	-0.000
881.61	-0.000
881.78	-0.000
881.95	-0.000
882.12	-0.000
882.29	-0.000
882.46	-0.000
882.63	-0.000
882.80	-0.000
882.97	-0.000
883.14	-0.000
883.30	-0.000
883.47	-0.000
883.64	-0.000
883.81	-0.000
883.98	-0.000
884.15	-0.000
884.32	-0.000
884.49	-0.000
884.66	-0.000
884.82	-0.000
884.99	-0.000
885.16	-0.000
885.33	-0.000
885.50	-0.000
885.67	-0.000
885.84	-0.000
886.01	-0.000
886.17	-0.000
886.34	-0.000
886.51	-0.000
886.68	-0.000
886.85	-0.000
887.02	-0.000
887.19	-0.000
887.36	-0.000
887.52	-0.000
887.69	-0.000
887.86	-0.000
888.03	-0.000
888.20	-0.000
888.37	-0.000
888.54	-0.000
888.70	-0.000
888.87	-0.000
889.04	-0.000
889.21	-0.000
889.38	-0.000
889.55	-0.000
889.71	-0.000
889.88	-0.000
890.05	-0.000
890.22	-0.000
890.39	-0.000
>>>>>End Processed Spectral Data<<<<<
