SpectraSuite Data File
++++++++++++++++++++++++++++++++++++
Date: Fri Jun 19 11:41:05 CEST 2015
User: introlabs
Dark Spectrum Present: Yes
Reference Spectrum Present: Yes
Number of Sampled Component Spectra: 1
Spectrometers: USB4H08886
Integration Time (usec): 5245692 (USB4H08886)
Spectra Averaged: 5 (USB4H08886)
Boxcar Smoothing: 5 (USB4H08886)
Correct for Electrical Dark: Yes (USB4H08886)
Strobe/Lamp Enabled: No (USB4H08886)
Correct for Detector Non-linearity: Yes (USB4H08886)
Correct for Stray Light: Yes (USB4H08886)
Number of Pixels in Processed Spectrum: 3648
>>>>>Begin Processed Spectral Data<<<<<
178.14	-0.000
178.36	-0.000
178.57	-0.000
178.79	-0.000
179.01	-0.000
179.22	-0.000
179.44	-0.000
179.65	-0.000
179.87	-0.000
180.08	-0.000
180.30	-0.000
180.52	-0.000
180.73	-0.000
180.95	-0.000
181.16	-0.000
181.38	-0.000
181.59	-0.000
181.81	-0.000
182.03	-0.000
182.24	-0.000
182.46	-0.000
182.67	-0.000
182.89	-0.000
183.10	-0.000
183.32	-0.000
183.54	-0.000
183.75	-0.000
183.97	-0.000
184.18	-0.000
184.40	-0.000
184.61	-0.000
184.83	-0.000
185.04	-0.000
185.26	-0.000
185.48	-0.000
185.69	-0.000
185.91	-0.000
186.12	-0.000
186.34	-0.000
186.55	-0.000
186.77	-0.000
186.98	-0.000
187.20	-0.000
187.42	-0.000
187.63	-0.000
187.85	-0.000
188.06	-0.000
188.28	-0.000
188.49	-0.000
188.71	-0.000
188.92	-0.000
189.14	-0.000
189.36	-0.000
189.57	-0.000
189.79	-0.000
190.00	-0.000
190.22	-0.000
190.43	-0.000
190.65	-0.000
190.86	-0.000
191.08	-0.000
191.29	-0.000
191.51	-0.000
191.72	-0.000
191.94	-0.000
192.16	-0.000
192.37	-0.000
192.59	-0.000
192.80	-0.000
193.02	-0.000
193.23	-0.000
193.45	-0.000
193.66	-0.000
193.88	-0.000
194.09	-0.000
194.31	-0.000
194.52	-0.000
194.74	-0.000
194.95	-0.000
195.17	-0.000
195.38	-0.000
195.60	-0.000
195.81	-0.000
196.03	-0.000
196.25	-0.000
196.46	-0.000
196.68	-0.000
196.89	-0.000
197.11	-0.000
197.32	-0.000
197.54	-0.000
197.75	-0.000
197.97	-0.000
198.18	-0.000
198.40	-0.000
198.61	-0.000
198.83	-0.000
199.04	-0.000
199.26	-0.000
199.47	-0.000
199.69	-0.000
199.90	-0.000
200.12	-0.000
200.33	-0.000
200.55	-0.000
200.76	-0.000
200.98	-0.000
201.19	-0.000
201.41	-0.000
201.62	-0.000
201.84	-0.000
202.05	-0.000
202.27	-0.000
202.48	-0.000
202.70	-0.000
202.91	-0.000
203.13	-0.000
203.34	-0.000
203.56	-0.000
203.77	-0.000
203.99	-0.000
204.20	-0.000
204.42	-0.000
204.63	-0.000
204.85	-0.000
205.06	-0.000
205.28	-0.000
205.49	-0.000
205.71	-0.000
205.92	-0.000
206.14	-0.000
206.35	-0.000
206.56	-0.000
206.78	-0.000
206.99	-0.000
207.21	-0.000
207.42	-0.000
207.64	-0.000
207.85	-0.000
208.07	-0.000
208.28	-0.000
208.50	-0.000
208.71	-0.000
208.93	-0.000
209.14	-0.000
209.36	-0.000
209.57	-0.000
209.79	-0.000
210.00	-0.000
210.22	-0.000
210.43	-0.000
210.64	-0.000
210.86	-0.000
211.07	-0.000
211.29	-0.000
211.50	-0.000
211.72	-0.000
211.93	-0.000
212.15	-0.000
212.36	-0.000
212.58	-0.000
212.79	-0.000
213.01	-0.000
213.22	-0.000
213.43	-0.000
213.65	-0.000
213.86	-0.000
214.08	-0.000
214.29	-0.000
214.51	-0.000
214.72	-0.000
214.94	-0.000
215.15	-0.000
215.36	-0.000
215.58	-0.000
215.79	-0.000
216.01	-0.000
216.22	-0.000
216.44	-0.000
216.65	-0.000
216.87	-0.000
217.08	-0.000
217.29	-0.000
217.51	-0.000
217.72	-0.000
217.94	-0.000
218.15	-0.000
218.37	-0.000
218.58	-0.000
218.80	-0.000
219.01	-0.000
219.22	-0.000
219.44	-0.000
219.65	-0.000
219.87	-0.000
220.08	-0.000
220.30	-0.000
220.51	-0.000
220.72	-0.000
220.94	-0.000
221.15	-0.000
221.37	-0.000
221.58	-0.000
221.79	-0.000
222.01	-0.000
222.22	-0.000
222.44	-0.000
222.65	-0.000
222.87	-0.000
223.08	-0.000
223.29	-0.000
223.51	-0.000
223.72	-0.000
223.94	-0.000
224.15	-0.000
224.36	-0.000
224.58	-0.000
224.79	-0.000
225.01	-0.000
225.22	-0.000
225.44	-0.000
225.65	-0.000
225.86	-0.000
226.08	-0.000
226.29	-0.000
226.51	-0.000
226.72	-0.000
226.93	-0.000
227.15	-0.000
227.36	-0.000
227.58	-0.000
227.79	-0.000
228.00	-0.000
228.22	-0.000
228.43	-0.000
228.65	-0.000
228.86	-0.000
229.07	-0.000
229.29	-0.000
229.50	-0.000
229.72	-0.000
229.93	-0.000
230.14	-0.000
230.36	-0.000
230.57	-0.000
230.78	-0.000
231.00	-0.000
231.21	-0.000
231.43	-0.000
231.64	-0.000
231.85	-0.000
232.07	-0.000
232.28	-0.000
232.50	-0.000
232.71	-0.000
232.92	-0.000
233.14	-0.000
233.35	-0.000
233.56	-0.000
233.78	-0.000
233.99	-0.000
234.21	-0.000
234.42	-0.000
234.63	-0.000
234.85	-0.000
235.06	-0.000
235.27	-0.000
235.49	-0.000
235.70	-0.000
235.91	-0.000
236.13	-0.000
236.34	-0.000
236.56	-0.000
236.77	-0.000
236.98	-0.000
237.20	-0.000
237.41	-0.000
237.62	-0.000
237.84	-0.000
238.05	-0.000
238.26	-0.000
238.48	-0.000
238.69	-0.000
238.91	-0.000
239.12	-0.000
239.33	-0.000
239.55	-0.000
239.76	-0.000
239.97	-0.000
240.19	-0.000
240.40	-0.000
240.61	-0.000
240.83	-0.000
241.04	-0.000
241.25	-0.000
241.47	-0.000
241.68	-0.000
241.89	-0.000
242.11	-0.000
242.32	-0.000
242.53	-0.000
242.75	-0.000
242.96	-0.000
243.17	-0.000
243.39	-0.000
243.60	-0.000
243.81	-0.000
244.03	-0.000
244.24	-0.000
244.45	-0.000
244.67	-0.000
244.88	-0.000
245.09	-0.000
245.31	-0.000
245.52	-0.000
245.73	-0.000
245.95	-0.000
246.16	-0.000
246.37	-0.000
246.59	-0.000
246.80	-0.000
247.01	-0.000
247.23	-0.000
247.44	-0.000
247.65	-0.000
247.87	-0.000
248.08	-0.000
248.29	-0.000
248.51	-0.000
248.72	-0.000
248.93	-0.000
249.15	-0.000
249.36	-0.000
249.57	-0.000
249.78	-0.000
250.00	-0.000
250.21	-0.000
250.42	-0.000
250.64	-0.000
250.85	-0.000
251.06	-0.000
251.28	-0.000
251.49	-0.000
251.70	-0.000
251.92	-0.000
252.13	-0.000
252.34	-0.000
252.55	-0.000
252.77	-0.000
252.98	-0.000
253.19	-0.000
253.41	-0.000
253.62	-0.000
253.83	-0.000
254.05	-0.000
254.26	-0.000
254.47	-0.000
254.68	-0.000
254.90	-0.000
255.11	-0.000
255.32	-0.000
255.54	-0.000
255.75	-0.000
255.96	-0.000
256.17	-0.000
256.39	-0.000
256.60	-0.000
256.81	-0.000
257.03	-0.000
257.24	-0.000
257.45	-0.000
257.66	-0.000
257.88	-0.000
258.09	-0.000
258.30	-0.000
258.51	-0.000
258.73	-0.000
258.94	-0.000
259.15	-0.000
259.37	-0.000
259.58	-0.000
259.79	-0.000
260.00	-0.000
260.22	-0.000
260.43	-0.000
260.64	-0.000
260.85	-0.000
261.07	-0.000
261.28	-0.000
261.49	-0.000
261.71	-0.000
261.92	-0.000
262.13	-0.000
262.34	-0.000
262.56	-0.000
262.77	-0.000
262.98	-0.000
263.19	-0.000
263.41	-0.000
263.62	-0.000
263.83	-0.000
264.04	-0.000
264.26	-0.000
264.47	-0.000
264.68	-0.000
264.89	-0.000
265.11	-0.000
265.32	-0.000
265.53	-0.000
265.74	-0.000
265.96	-0.000
266.17	-0.000
266.38	-0.000
266.59	-0.000
266.81	-0.000
267.02	-0.000
267.23	-0.000
267.44	-0.000
267.65	-0.000
267.87	-0.000
268.08	-0.000
268.29	-0.000
268.50	-0.000
268.72	-0.000
268.93	-0.000
269.14	-0.000
269.35	-0.000
269.57	-0.000
269.78	-0.000
269.99	-0.000
270.20	-0.000
270.41	-0.000
270.63	-0.000
270.84	-0.000
271.05	-0.000
271.26	-0.000
271.48	-0.000
271.69	-0.000
271.90	-0.000
272.11	-0.000
272.32	-0.000
272.54	-0.000
272.75	-0.000
272.96	-0.000
273.17	-0.000
273.39	-0.000
273.60	-0.000
273.81	-0.000
274.02	-0.000
274.23	-0.000
274.45	-0.000
274.66	-0.000
274.87	-0.000
275.08	-0.000
275.29	-0.000
275.51	-0.000
275.72	-0.000
275.93	-0.000
276.14	-0.000
276.35	-0.000
276.57	-0.000
276.78	-0.000
276.99	-0.000
277.20	-0.000
277.41	-0.000
277.63	-0.000
277.84	-0.000
278.05	-0.000
278.26	-0.000
278.47	-0.000
278.69	-0.000
278.90	-0.000
279.11	-0.000
279.32	-0.000
279.53	-0.000
279.74	-0.000
279.96	-0.000
280.17	-0.000
280.38	-0.000
280.59	-0.000
280.80	-0.000
281.02	-0.000
281.23	-0.000
281.44	-0.000
281.65	-0.000
281.86	-0.000
282.07	-0.000
282.29	-0.000
282.50	-0.000
282.71	-0.000
282.92	-0.000
283.13	-0.000
283.35	-0.000
283.56	-0.000
283.77	-0.000
283.98	-0.000
284.19	-0.000
284.40	-0.000
284.62	-0.000
284.83	-0.000
285.04	2.198
285.25	2.105
285.46	1.775
285.67	1.616
285.88	1.642
286.10	1.575
286.31	1.691
286.52	1.941
286.73	1.829
286.94	1.776
287.15	1.599
287.37	1.742
287.58	1.726
287.79	1.688
288.00	1.778
288.21	1.686
288.42	1.463
288.63	1.367
288.85	1.247
289.06	1.159
289.27	1.156
289.48	1.135
289.69	1.064
289.90	1.043
290.11	1.044
290.33	1.000
290.54	0.984
290.75	1.017
290.96	0.985
291.17	0.995
291.38	1.001
291.59	0.980
291.81	1.000
292.02	0.999
292.23	0.998
292.44	0.984
292.65	0.990
292.86	0.967
293.07	0.939
293.28	0.949
293.50	0.922
293.71	0.920
293.92	0.916
294.13	0.890
294.34	0.883
294.55	0.871
294.76	0.872
294.97	0.872
295.19	0.865
295.40	0.853
295.61	0.846
295.82	0.866
296.03	0.866
296.24	0.860
296.45	0.871
296.66	0.892
296.87	0.894
297.09	0.897
297.30	0.874
297.51	0.883
297.72	0.880
297.93	0.868
298.14	0.853
298.35	0.841
298.56	0.855
298.77	0.843
298.99	0.832
299.20	0.824
299.41	0.816
299.62	0.824
299.83	0.814
300.04	0.809
300.25	0.816
300.46	0.817
300.67	0.817
300.88	0.802
301.10	0.801
301.31	0.788
301.52	0.787
301.73	0.785
301.94	0.782
302.15	0.785
302.36	0.793
302.57	0.789
302.78	0.778
302.99	0.784
303.20	0.776
303.41	0.777
303.63	0.788
303.84	0.798
304.05	0.790
304.26	0.792
304.47	0.781
304.68	0.775
304.89	0.773
305.10	0.784
305.31	0.772
305.52	0.771
305.73	0.774
305.94	0.765
306.15	0.755
306.37	0.752
306.58	0.743
306.79	0.747
307.00	0.746
307.21	0.745
307.42	0.737
307.63	0.738
307.84	0.749
308.05	0.742
308.26	0.735
308.47	0.740
308.68	0.736
308.89	0.737
309.10	0.731
309.31	0.736
309.52	0.727
309.73	0.724
309.95	0.728
310.16	0.716
310.37	0.713
310.58	0.712
310.79	0.703
311.00	0.701
311.21	0.701
311.42	0.710
311.63	0.702
311.84	0.701
312.05	0.696
312.26	0.688
312.47	0.686
312.68	0.685
312.89	0.691
313.10	0.698
313.31	0.701
313.52	0.695
313.73	0.686
313.94	0.689
314.15	0.695
314.36	0.695
314.57	0.699
314.78	0.707
314.99	0.705
315.21	0.698
315.42	0.690
315.63	0.687
315.84	0.691
316.05	0.691
316.26	0.684
316.47	0.678
316.68	0.683
316.89	0.684
317.10	0.676
317.31	0.681
317.52	0.681
317.73	0.686
317.94	0.686
318.15	0.681
318.36	0.684
318.57	0.691
318.78	0.695
318.99	0.686
319.20	0.688
319.41	0.690
319.62	0.687
319.83	0.694
320.04	0.690
320.25	0.688
320.46	0.691
320.67	0.687
320.88	0.684
321.09	0.682
321.30	0.685
321.51	0.680
321.72	0.678
321.93	0.678
322.14	0.668
322.35	0.664
322.56	0.664
322.77	0.662
322.98	0.659
323.19	0.653
323.40	0.648
323.61	0.647
323.82	0.643
324.03	0.644
324.24	0.646
324.45	0.646
324.66	0.650
324.87	0.652
325.08	0.650
325.29	0.657
325.50	0.658
325.71	0.662
325.92	0.659
326.13	0.660
326.34	0.661
326.55	0.662
326.76	0.663
326.97	0.664
327.18	0.666
327.39	0.663
327.60	0.657
327.80	0.654
328.01	0.650
328.22	0.653
328.43	0.652
328.64	0.649
328.85	0.643
329.06	0.641
329.27	0.639
329.48	0.635
329.69	0.639
329.90	0.638
330.11	0.642
330.32	0.641
330.53	0.639
330.74	0.638
330.95	0.638
331.16	0.638
331.37	0.639
331.58	0.637
331.79	0.637
332.00	0.635
332.21	0.637
332.42	0.636
332.63	0.639
332.83	0.643
333.04	0.648
333.25	0.644
333.46	0.647
333.67	0.646
333.88	0.646
334.09	0.644
334.30	0.647
334.51	0.648
334.72	0.646
334.93	0.646
335.14	0.640
335.35	0.634
335.56	0.635
335.77	0.630
335.98	0.632
336.18	0.628
336.39	0.628
336.60	0.627
336.81	0.627
337.02	0.625
337.23	0.622
337.44	0.622
337.65	0.622
337.86	0.622
338.07	0.622
338.28	0.618
338.49	0.621
338.70	0.621
338.91	0.618
339.11	0.616
339.32	0.616
339.53	0.621
339.74	0.624
339.95	0.624
340.16	0.627
340.37	0.628
340.58	0.631
340.79	0.627
341.00	0.626
341.21	0.625
341.41	0.622
341.62	0.623
341.83	0.617
342.04	0.614
342.25	0.614
342.46	0.610
342.67	0.609
342.88	0.609
343.09	0.608
343.30	0.607
343.50	0.607
343.71	0.607
343.92	0.605
344.13	0.606
344.34	0.604
344.55	0.604
344.76	0.606
344.97	0.602
345.18	0.603
345.38	0.602
345.59	0.606
345.80	0.607
346.01	0.611
346.22	0.614
346.43	0.615
346.64	0.614
346.85	0.614
347.06	0.614
347.26	0.614
347.47	0.612
347.68	0.616
347.89	0.611
348.10	0.614
348.31	0.608
348.52	0.607
348.73	0.606
348.93	0.608
349.14	0.608
349.35	0.609
349.56	0.609
349.77	0.610
349.98	0.611
350.19	0.612
350.39	0.611
350.60	0.616
350.81	0.610
351.02	0.612
351.23	0.609
351.44	0.607
351.65	0.607
351.86	0.608
352.06	0.606
352.27	0.601
352.48	0.602
352.69	0.602
352.90	0.599
353.11	0.600
353.31	0.599
353.52	0.603
353.73	0.605
353.94	0.601
354.15	0.600
354.36	0.600
354.57	0.602
354.77	0.602
354.98	0.602
355.19	0.602
355.40	0.602
355.61	0.601
355.82	0.598
356.02	0.597
356.23	0.597
356.44	0.597
356.65	0.596
356.86	0.593
357.07	0.594
357.27	0.591
357.48	0.590
357.69	0.591
357.90	0.592
358.11	0.593
358.32	0.592
358.52	0.591
358.73	0.592
358.94	0.591
359.15	0.594
359.36	0.592
359.56	0.594
359.77	0.594
359.98	0.592
360.19	0.592
360.40	0.593
360.61	0.594
360.81	0.594
361.02	0.592
361.23	0.593
361.44	0.593
361.65	0.594
361.85	0.593
362.06	0.595
362.27	0.596
362.48	0.595
362.69	0.592
362.89	0.593
363.10	0.596
363.31	0.597
363.52	0.596
363.73	0.593
363.93	0.594
364.14	0.594
364.35	0.590
364.56	0.594
364.77	0.593
364.97	0.594
365.18	0.591
365.39	0.591
365.60	0.591
365.81	0.591
366.01	0.592
366.22	0.589
366.43	0.588
366.64	0.589
366.84	0.585
367.05	0.585
367.26	0.583
367.47	0.586
367.68	0.584
367.88	0.585
368.09	0.585
368.30	0.584
368.51	0.585
368.71	0.583
368.92	0.582
369.13	0.585
369.34	0.585
369.55	0.585
369.75	0.583
369.96	0.582
370.17	0.582
370.38	0.584
370.58	0.585
370.79	0.583
371.00	0.584
371.21	0.586
371.41	0.584
371.62	0.583
371.83	0.586
372.04	0.584
372.24	0.586
372.45	0.583
372.66	0.582
372.87	0.584
373.07	0.584
373.28	0.584
373.49	0.582
373.70	0.583
373.90	0.582
374.11	0.580
374.32	0.580
374.53	0.581
374.73	0.583
374.94	0.582
375.15	0.580
375.36	0.580
375.56	0.578
375.77	0.577
375.98	0.576
376.19	0.576
376.39	0.579
376.60	0.579
376.81	0.577
377.02	0.576
377.22	0.579
377.43	0.579
377.64	0.580
377.84	0.580
378.05	0.580
378.26	0.578
378.47	0.580
378.67	0.578
378.88	0.578
379.09	0.578
379.30	0.576
379.50	0.575
379.71	0.573
379.92	0.572
380.12	0.573
380.33	0.575
380.54	0.576
380.75	0.574
380.95	0.574
381.16	0.575
381.37	0.576
381.57	0.578
381.78	0.577
381.99	0.576
382.20	0.578
382.40	0.579
382.61	0.578
382.82	0.579
383.02	0.580
383.23	0.579
383.44	0.579
383.64	0.579
383.85	0.577
384.06	0.576
384.27	0.578
384.47	0.578
384.68	0.576
384.89	0.574
385.09	0.575
385.30	0.576
385.51	0.576
385.71	0.574
385.92	0.573
386.13	0.572
386.33	0.573
386.54	0.572
386.75	0.571
386.95	0.572
387.16	0.573
387.37	0.573
387.58	0.572
387.78	0.570
387.99	0.571
388.20	0.571
388.40	0.574
388.61	0.572
388.82	0.574
389.02	0.572
389.23	0.571
389.44	0.572
389.64	0.573
389.85	0.572
390.06	0.571
390.26	0.569
390.47	0.570
390.68	0.571
390.88	0.573
391.09	0.570
391.30	0.571
391.50	0.572
391.71	0.571
391.92	0.569
392.12	0.570
392.33	0.570
392.53	0.569
392.74	0.568
392.95	0.566
393.15	0.565
393.36	0.565
393.57	0.566
393.77	0.565
393.98	0.565
394.19	0.566
394.39	0.565
394.60	0.564
394.81	0.566
395.01	0.567
395.22	0.568
395.43	0.567
395.63	0.566
395.84	0.564
396.04	0.565
396.25	0.563
396.46	0.561
396.66	0.562
396.87	0.562
397.08	0.562
397.28	0.562
397.49	0.561
397.69	0.562
397.90	0.563
398.11	0.564
398.31	0.562
398.52	0.562
398.73	0.563
398.93	0.563
399.14	0.563
399.34	0.563
399.55	0.563
399.76	0.563
399.96	0.561
400.17	0.561
400.37	0.561
400.58	0.561
400.79	0.561
400.99	0.559
401.20	0.558
401.41	0.558
401.61	0.557
401.82	0.555
402.02	0.557
402.23	0.558
402.44	0.558
402.64	0.556
402.85	0.556
403.05	0.557
403.26	0.558
403.47	0.558
403.67	0.558
403.88	0.558
404.08	0.558
404.29	0.557
404.50	0.558
404.70	0.557
404.91	0.558
405.11	0.558
405.32	0.558
405.52	0.558
405.73	0.557
405.94	0.558
406.14	0.558
406.35	0.558
406.55	0.558
406.76	0.557
406.97	0.556
407.17	0.556
407.38	0.557
407.58	0.557
407.79	0.555
407.99	0.555
408.20	0.554
408.41	0.554
408.61	0.555
408.82	0.553
409.02	0.554
409.23	0.555
409.43	0.554
409.64	0.553
409.84	0.554
410.05	0.554
410.26	0.555
410.46	0.555
410.67	0.555
410.87	0.555
411.08	0.553
411.28	0.552
411.49	0.551
411.69	0.551
411.90	0.552
412.11	0.551
412.31	0.551
412.52	0.550
412.72	0.550
412.93	0.549
413.13	0.549
413.34	0.551
413.54	0.551
413.75	0.553
413.95	0.554
414.16	0.554
414.37	0.553
414.57	0.554
414.78	0.553
414.98	0.553
415.19	0.553
415.39	0.553
415.60	0.552
415.80	0.552
416.01	0.550
416.21	0.549
416.42	0.549
416.62	0.550
416.83	0.549
417.03	0.549
417.24	0.550
417.44	0.549
417.65	0.549
417.86	0.550
418.06	0.551
418.27	0.551
418.47	0.551
418.68	0.550
418.88	0.549
419.09	0.549
419.29	0.550
419.50	0.549
419.70	0.550
419.91	0.550
420.11	0.550
420.32	0.549
420.52	0.549
420.73	0.549
420.93	0.549
421.14	0.551
421.34	0.552
421.55	0.552
421.75	0.551
421.96	0.551
422.16	0.550
422.37	0.549
422.57	0.550
422.78	0.549
422.98	0.550
423.19	0.551
423.39	0.551
423.60	0.550
423.80	0.548
424.01	0.549
424.21	0.548
424.42	0.549
424.62	0.549
424.83	0.548
425.03	0.548
425.23	0.547
425.44	0.545
425.64	0.544
425.85	0.544
426.05	0.544
426.26	0.543
426.46	0.543
426.67	0.543
426.87	0.542
427.08	0.542
427.28	0.542
427.49	0.542
427.69	0.542
427.90	0.543
428.10	0.545
428.31	0.546
428.51	0.547
428.71	0.548
428.92	0.547
429.12	0.549
429.33	0.549
429.53	0.548
429.74	0.548
429.94	0.549
430.15	0.550
430.35	0.548
430.56	0.547
430.76	0.546
430.96	0.547
431.17	0.548
431.37	0.548
431.58	0.549
431.78	0.549
431.99	0.550
432.19	0.548
432.40	0.549
432.60	0.550
432.80	0.549
433.01	0.549
433.21	0.549
433.42	0.548
433.62	0.548
433.83	0.547
434.03	0.548
434.23	0.547
434.44	0.548
434.64	0.547
434.85	0.546
435.05	0.548
435.26	0.548
435.46	0.549
435.66	0.550
435.87	0.550
436.07	0.549
436.28	0.550
436.48	0.552
436.69	0.553
436.89	0.553
437.09	0.553
437.30	0.553
437.50	0.552
437.71	0.550
437.91	0.549
438.11	0.550
438.32	0.549
438.52	0.548
438.73	0.547
438.93	0.548
439.13	0.548
439.34	0.549
439.54	0.547
439.75	0.549
439.95	0.551
440.15	0.551
440.36	0.550
440.56	0.551
440.77	0.552
440.97	0.552
441.17	0.551
441.38	0.551
441.58	0.552
441.79	0.552
441.99	0.552
442.19	0.552
442.40	0.551
442.60	0.551
442.81	0.552
443.01	0.551
443.21	0.551
443.42	0.552
443.62	0.550
443.82	0.550
444.03	0.551
444.23	0.551
444.44	0.550
444.64	0.551
444.84	0.553
445.05	0.553
445.25	0.553
445.45	0.552
445.66	0.551
445.86	0.553
446.06	0.552
446.27	0.550
446.47	0.549
446.68	0.551
446.88	0.550
447.08	0.548
447.29	0.548
447.49	0.548
447.69	0.547
447.90	0.548
448.10	0.546
448.30	0.547
448.51	0.546
448.71	0.546
448.91	0.546
449.12	0.548
449.32	0.546
449.52	0.546
449.73	0.545
449.93	0.546
450.14	0.545
450.34	0.546
450.54	0.544
450.75	0.545
450.95	0.544
451.15	0.545
451.36	0.544
451.56	0.546
451.76	0.546
451.97	0.548
452.17	0.549
452.37	0.549
452.58	0.551
452.78	0.553
452.98	0.554
453.19	0.556
453.39	0.555
453.59	0.555
453.79	0.554
454.00	0.554
454.20	0.553
454.40	0.553
454.61	0.554
454.81	0.552
455.01	0.551
455.22	0.551
455.42	0.550
455.62	0.551
455.83	0.550
456.03	0.549
456.23	0.549
456.44	0.549
456.64	0.549
456.84	0.547
457.04	0.549
457.25	0.551
457.45	0.551
457.65	0.552
457.86	0.553
458.06	0.555
458.26	0.556
458.47	0.556
458.67	0.556
458.87	0.556
459.07	0.555
459.28	0.552
459.48	0.551
459.68	0.550
459.89	0.549
460.09	0.548
460.29	0.547
460.49	0.546
460.70	0.547
460.90	0.547
461.10	0.546
461.31	0.548
461.51	0.550
461.71	0.551
461.91	0.551
462.12	0.553
462.32	0.553
462.52	0.552
462.72	0.553
462.93	0.552
463.13	0.551
463.33	0.552
463.53	0.551
463.74	0.553
463.94	0.552
464.14	0.553
464.35	0.553
464.55	0.553
464.75	0.555
464.95	0.555
465.16	0.554
465.36	0.555
465.56	0.555
465.76	0.556
465.97	0.555
466.17	0.554
466.37	0.553
466.57	0.551
466.78	0.552
466.98	0.551
467.18	0.551
467.38	0.551
467.59	0.550
467.79	0.550
467.99	0.550
468.19	0.548
468.39	0.548
468.60	0.548
468.80	0.548
469.00	0.547
469.20	0.548
469.41	0.548
469.61	0.548
469.81	0.549
470.01	0.550
470.22	0.550
470.42	0.551
470.62	0.552
470.82	0.553
471.02	0.554
471.23	0.554
471.43	0.553
471.63	0.553
471.83	0.555
472.04	0.554
472.24	0.553
472.44	0.552
472.64	0.553
472.84	0.554
473.05	0.553
473.25	0.550
473.45	0.551
473.65	0.551
473.85	0.550
474.06	0.549
474.26	0.549
474.46	0.548
474.66	0.549
474.86	0.549
475.07	0.549
475.27	0.550
475.47	0.551
475.67	0.551
475.87	0.550
476.08	0.551
476.28	0.552
476.48	0.553
476.68	0.554
476.88	0.553
477.09	0.551
477.29	0.551
477.49	0.551
477.69	0.551
477.89	0.551
478.09	0.552
478.30	0.552
478.50	0.552
478.70	0.551
478.90	0.551
479.10	0.550
479.31	0.551
479.51	0.551
479.71	0.550
479.91	0.550
480.11	0.549
480.31	0.549
480.52	0.548
480.72	0.548
480.92	0.548
481.12	0.548
481.32	0.550
481.52	0.550
481.72	0.548
481.93	0.548
482.13	0.549
482.33	0.551
482.53	0.551
482.73	0.553
482.93	0.552
483.14	0.552
483.34	0.551
483.54	0.551
483.74	0.551
483.94	0.552
484.14	0.552
484.34	0.552
484.55	0.550
484.75	0.550
484.95	0.548
485.15	0.549
485.35	0.549
485.55	0.550
485.75	0.549
485.96	0.549
486.16	0.548
486.36	0.549
486.56	0.549
486.76	0.550
486.96	0.551
487.16	0.552
487.36	0.552
487.57	0.552
487.77	0.552
487.97	0.551
488.17	0.552
488.37	0.552
488.57	0.552
488.77	0.553
488.97	0.552
489.18	0.552
489.38	0.551
489.58	0.550
489.78	0.551
489.98	0.550
490.18	0.551
490.38	0.550
490.58	0.550
490.78	0.551
490.98	0.550
491.19	0.551
491.39	0.551
491.59	0.551
491.79	0.551
491.99	0.550
492.19	0.551
492.39	0.550
492.59	0.550
492.79	0.550
492.99	0.549
493.20	0.548
493.40	0.548
493.60	0.547
493.80	0.547
494.00	0.548
494.20	0.548
494.40	0.547
494.60	0.547
494.80	0.546
495.00	0.546
495.20	0.547
495.40	0.548
495.61	0.547
495.81	0.547
496.01	0.546
496.21	0.545
496.41	0.547
496.61	0.547
496.81	0.547
497.01	0.548
497.21	0.548
497.41	0.548
497.61	0.548
497.81	0.549
498.01	0.549
498.21	0.550
498.41	0.551
498.61	0.550
498.82	0.550
499.02	0.550
499.22	0.549
499.42	0.549
499.62	0.550
499.82	0.550
500.02	0.550
500.22	0.549
500.42	0.549
500.62	0.550
500.82	0.550
501.02	0.549
501.22	0.549
501.42	0.550
501.62	0.550
501.82	0.548
502.02	0.549
502.22	0.549
502.42	0.550
502.62	0.549
502.82	0.549
503.02	0.551
503.22	0.551
503.42	0.551
503.63	0.551
503.83	0.551
504.03	0.553
504.23	0.552
504.43	0.554
504.63	0.553
504.83	0.554
505.03	0.554
505.23	0.552
505.43	0.552
505.63	0.552
505.83	0.552
506.03	0.552
506.23	0.551
506.43	0.550
506.63	0.550
506.83	0.551
507.03	0.550
507.23	0.550
507.43	0.551
507.63	0.551
507.83	0.552
508.03	0.552
508.23	0.552
508.43	0.553
508.63	0.553
508.83	0.553
509.03	0.552
509.23	0.553
509.43	0.554
509.63	0.554
509.83	0.554
510.03	0.553
510.23	0.552
510.43	0.552
510.63	0.551
510.83	0.550
511.03	0.550
511.23	0.552
511.43	0.551
511.63	0.550
511.83	0.549
512.03	0.549
512.22	0.551
512.42	0.552
512.62	0.554
512.82	0.554
513.02	0.554
513.22	0.555
513.42	0.555
513.62	0.555
513.82	0.556
514.02	0.556
514.22	0.556
514.42	0.556
514.62	0.554
514.82	0.552
515.02	0.552
515.22	0.552
515.42	0.553
515.62	0.551
515.82	0.553
516.02	0.552
516.22	0.552
516.42	0.554
516.62	0.552
516.82	0.552
517.01	0.554
517.21	0.554
517.41	0.554
517.61	0.554
517.81	0.555
518.01	0.554
518.21	0.555
518.41	0.557
518.61	0.555
518.81	0.556
519.01	0.558
519.21	0.558
519.41	0.558
519.61	0.560
519.81	0.560
520.00	0.562
520.20	0.561
520.40	0.560
520.60	0.559
520.80	0.559
521.00	0.559
521.20	0.558
521.40	0.557
521.60	0.556
521.80	0.556
522.00	0.554
522.20	0.551
522.39	0.552
522.59	0.553
522.79	0.555
522.99	0.555
523.19	0.557
523.39	0.559
523.59	0.560
523.79	0.560
523.99	0.559
524.19	0.558
524.38	0.559
524.58	0.560
524.78	0.559
524.98	0.557
525.18	0.557
525.38	0.557
525.58	0.555
525.78	0.555
525.98	0.555
526.18	0.555
526.37	0.557
526.57	0.556
526.77	0.556
526.97	0.555
527.17	0.556
527.37	0.556
527.57	0.556
527.77	0.555
527.96	0.556
528.16	0.557
528.36	0.558
528.56	0.558
528.76	0.559
528.96	0.560
529.16	0.561
529.36	0.560
529.55	0.561
529.75	0.562
529.95	0.563
530.15	0.563
530.35	0.562
530.55	0.561
530.75	0.561
530.94	0.560
531.14	0.561
531.34	0.561
531.54	0.563
531.74	0.561
531.94	0.560
532.13	0.561
532.33	0.561
532.53	0.562
532.73	0.564
532.93	0.563
533.13	0.563
533.33	0.563
533.52	0.562
533.72	0.560
533.92	0.562
534.12	0.563
534.32	0.563
534.52	0.562
534.71	0.562
534.91	0.559
535.11	0.561
535.31	0.560
535.51	0.561
535.71	0.560
535.90	0.561
536.10	0.559
536.30	0.557
536.50	0.558
536.70	0.558
536.89	0.559
537.09	0.561
537.29	0.559
537.49	0.560
537.69	0.559
537.89	0.561
538.08	0.561
538.28	0.562
538.48	0.562
538.68	0.562
538.88	0.561
539.07	0.562
539.27	0.561
539.47	0.562
539.67	0.562
539.87	0.562
540.06	0.562
540.26	0.562
540.46	0.561
540.66	0.563
540.86	0.564
541.05	0.565
541.25	0.565
541.45	0.567
541.65	0.566
541.84	0.566
542.04	0.565
542.24	0.566
542.44	0.566
542.64	0.566
542.83	0.565
543.03	0.565
543.23	0.567
543.43	0.565
543.62	0.566
543.82	0.566
544.02	0.565
544.22	0.566
544.42	0.564
544.61	0.566
544.81	0.567
545.01	0.568
545.21	0.566
545.40	0.564
545.60	0.564
545.80	0.562
546.00	0.562
546.19	0.563
546.39	0.562
546.59	0.564
546.79	0.564
546.98	0.564
547.18	0.563
547.38	0.564
547.58	0.564
547.77	0.564
547.97	0.565
548.17	0.565
548.37	0.565
548.56	0.567
548.76	0.567
548.96	0.565
549.16	0.564
549.35	0.566
549.55	0.567
549.75	0.567
549.95	0.567
550.14	0.568
550.34	0.568
550.54	0.567
550.73	0.565
550.93	0.566
551.13	0.569
551.33	0.569
551.52	0.567
551.72	0.567
551.92	0.567
552.12	0.569
552.31	0.568
552.51	0.569
552.71	0.570
552.90	0.570
553.10	0.569
553.30	0.568
553.50	0.569
553.69	0.570
553.89	0.570
554.09	0.569
554.28	0.568
554.48	0.568
554.68	0.566
554.87	0.567
555.07	0.568
555.27	0.569
555.47	0.568
555.66	0.567
555.86	0.568
556.06	0.568
556.25	0.571
556.45	0.571
556.65	0.573
556.84	0.574
557.04	0.576
557.24	0.574
557.43	0.574
557.63	0.576
557.83	0.577
558.02	0.578
558.22	0.577
558.42	0.576
558.61	0.578
558.81	0.577
559.01	0.576
559.21	0.574
559.40	0.575
559.60	0.576
559.80	0.574
559.99	0.574
560.19	0.572
560.39	0.574
560.58	0.574
560.78	0.575
560.97	0.573
561.17	0.575
561.37	0.577
561.56	0.576
561.76	0.576
561.96	0.576
562.15	0.575
562.35	0.575
562.55	0.573
562.74	0.574
562.94	0.572
563.14	0.573
563.33	0.573
563.53	0.573
563.73	0.574
563.92	0.574
564.12	0.573
564.31	0.572
564.51	0.572
564.71	0.572
564.90	0.571
565.10	0.571
565.30	0.571
565.49	0.571
565.69	0.570
565.89	0.571
566.08	0.571
566.28	0.571
566.47	0.572
566.67	0.573
566.87	0.575
567.06	0.576
567.26	0.575
567.46	0.577
567.65	0.575
567.85	0.575
568.04	0.574
568.24	0.573
568.44	0.573
568.63	0.574
568.83	0.574
569.02	0.573
569.22	0.573
569.42	0.575
569.61	0.573
569.81	0.574
570.00	0.573
570.20	0.571
570.40	0.571
570.59	0.571
570.79	0.569
570.98	0.568
571.18	0.567
571.38	0.567
571.57	0.567
571.77	0.568
571.96	0.567
572.16	0.568
572.35	0.568
572.55	0.568
572.75	0.569
572.94	0.570
573.14	0.569
573.33	0.569
573.53	0.568
573.73	0.567
573.92	0.567
574.12	0.568
574.31	0.567
574.51	0.567
574.70	0.566
574.90	0.565
575.09	0.565
575.29	0.565
575.49	0.564
575.68	0.565
575.88	0.565
576.07	0.564
576.27	0.562
576.46	0.562
576.66	0.562
576.86	0.563
577.05	0.563
577.25	0.565
577.44	0.565
577.64	0.565
577.83	0.565
578.03	0.566
578.22	0.566
578.42	0.566
578.61	0.566
578.81	0.565
579.00	0.565
579.20	0.564
579.40	0.562
579.59	0.563
579.79	0.564
579.98	0.564
580.18	0.563
580.37	0.563
580.57	0.562
580.76	0.563
580.96	0.563
581.15	0.564
581.35	0.563
581.54	0.564
581.74	0.563
581.93	0.563
582.13	0.562
582.32	0.563
582.52	0.562
582.71	0.563
582.91	0.564
583.10	0.564
583.30	0.563
583.49	0.564
583.69	0.563
583.88	0.564
584.08	0.563
584.27	0.563
584.47	0.562
584.66	0.563
584.86	0.563
585.05	0.562
585.25	0.562
585.44	0.563
585.64	0.563
585.83	0.565
586.03	0.564
586.22	0.565
586.42	0.566
586.61	0.566
586.81	0.565
587.00	0.566
587.20	0.566
587.39	0.565
587.59	0.565
587.78	0.565
587.98	0.563
588.17	0.563
588.37	0.563
588.56	0.562
588.76	0.562
588.95	0.562
589.15	0.563
589.34	0.564
589.54	0.564
589.73	0.565
589.92	0.565
590.12	0.566
590.31	0.567
590.51	0.568
590.70	0.569
590.90	0.569
591.09	0.570
591.29	0.569
591.48	0.569
591.68	0.569
591.87	0.568
592.06	0.569
592.26	0.568
592.45	0.567
592.65	0.566
592.84	0.566
593.04	0.566
593.23	0.566
593.43	0.565
593.62	0.566
593.81	0.565
594.01	0.565
594.20	0.565
594.40	0.566
594.59	0.565
594.79	0.565
594.98	0.566
595.17	0.566
595.37	0.567
595.56	0.568
595.76	0.569
595.95	0.570
596.14	0.570
596.34	0.569
596.53	0.568
596.73	0.568
596.92	0.568
597.12	0.567
597.31	0.565
597.50	0.564
597.70	0.563
597.89	0.561
598.09	0.561
598.28	0.560
598.47	0.560
598.67	0.560
598.86	0.560
599.06	0.561
599.25	0.560
599.44	0.561
599.64	0.560
599.83	0.561
600.03	0.560
600.22	0.559
600.41	0.559
600.61	0.558
600.80	0.558
601.00	0.557
601.19	0.557
601.38	0.558
601.58	0.558
601.77	0.560
601.96	0.558
602.16	0.560
602.35	0.560
602.55	0.562
602.74	0.562
602.93	0.563
603.13	0.563
603.32	0.563
603.51	0.564
603.71	0.563
603.90	0.562
604.09	0.562
604.29	0.561
604.48	0.561
604.68	0.560
604.87	0.560
605.06	0.561
605.26	0.561
605.45	0.559
605.64	0.559
605.84	0.559
606.03	0.559
606.22	0.560
606.42	0.560
606.61	0.561
606.80	0.562
607.00	0.563
607.19	0.562
607.38	0.564
607.58	0.565
607.77	0.565
607.96	0.565
608.16	0.566
608.35	0.566
608.54	0.566
608.74	0.565
608.93	0.565
609.12	0.563
609.32	0.564
609.51	0.562
609.70	0.561
609.90	0.562
610.09	0.562
610.28	0.560
610.48	0.562
610.67	0.563
610.86	0.565
611.06	0.565
611.25	0.565
611.44	0.565
611.64	0.566
611.83	0.567
612.02	0.567
612.21	0.567
612.41	0.569
612.60	0.569
612.79	0.567
612.99	0.567
613.18	0.566
613.37	0.568
613.57	0.569
613.76	0.567
613.95	0.568
614.14	0.567
614.34	0.567
614.53	0.566
614.72	0.565
614.92	0.567
615.11	0.567
615.30	0.568
615.49	0.569
615.69	0.568
615.88	0.569
616.07	0.569
616.26	0.571
616.46	0.571
616.65	0.572
616.84	0.575
617.04	0.574
617.23	0.573
617.42	0.572
617.61	0.569
617.81	0.569
618.00	0.571
618.19	0.571
618.38	0.570
618.58	0.573
618.77	0.573
618.96	0.573
619.15	0.575
619.35	0.579
619.54	0.580
619.73	0.582
619.92	0.583
620.12	0.581
620.31	0.582
620.50	0.581
620.69	0.580
620.89	0.579
621.08	0.580
621.27	0.577
621.46	0.576
621.66	0.575
621.85	0.574
622.04	0.576
622.23	0.580
622.43	0.579
622.62	0.581
622.81	0.579
623.00	0.578
623.19	0.575
623.39	0.575
623.58	0.575
623.77	0.578
623.96	0.577
624.16	0.577
624.35	0.576
624.54	0.576
624.73	0.575
624.92	0.576
625.12	0.576
625.31	0.575
625.50	0.575
625.69	0.575
625.88	0.576
626.08	0.578
626.27	0.578
626.46	0.578
626.65	0.577
626.84	0.576
627.04	0.574
627.23	0.578
627.42	0.580
627.61	0.580
627.80	0.578
628.00	0.579
628.19	0.576
628.38	0.573
628.57	0.573
628.76	0.575
628.96	0.577
629.15	0.577
629.34	0.578
629.53	0.580
629.72	0.582
629.91	0.584
630.11	0.581
630.30	0.582
630.49	0.581
630.68	0.582
630.87	0.584
631.06	0.584
631.26	0.585
631.45	0.584
631.64	0.580
631.83	0.580
632.02	0.581
632.21	0.583
632.41	0.584
632.60	0.586
632.79	0.585
632.98	0.584
633.17	0.585
633.36	0.585
633.55	0.587
633.75	0.592
633.94	0.592
634.13	0.591
634.32	0.591
634.51	0.592
634.70	0.592
634.89	0.592
635.09	0.593
635.28	0.591
635.47	0.591
635.66	0.587
635.85	0.588
636.04	0.589
636.23	0.590
636.43	0.588
636.62	0.590
636.81	0.590
637.00	0.589
637.19	0.587
637.38	0.590
637.57	0.593
637.76	0.597
637.95	0.594
638.15	0.592
638.34	0.593
638.53	0.594
638.72	0.592
638.91	0.594
639.10	0.595
639.29	0.596
639.48	0.593
639.67	0.590
639.87	0.591
640.06	0.595
640.25	0.597
640.44	0.592
640.63	0.593
640.82	0.594
641.01	0.596
641.20	0.599
641.39	0.601
641.58	0.604
641.78	0.604
641.97	0.605
642.16	0.600
642.35	0.598
642.54	0.599
642.73	0.599
642.92	0.599
643.11	0.599
643.30	0.597
643.49	0.595
643.68	0.592
643.87	0.591
644.06	0.589
644.25	0.593
644.45	0.598
644.64	0.602
644.83	0.601
645.02	0.603
645.21	0.601
645.40	0.599
645.59	0.601
645.78	0.603
645.97	0.603
646.16	0.602
646.35	0.599
646.54	0.593
646.73	0.589
646.92	0.591
647.11	0.589
647.30	0.589
647.49	0.588
647.68	0.588
647.88	0.587
648.07	0.589
648.26	0.588
648.45	0.586
648.64	0.590
648.83	0.589
649.02	0.585
649.21	0.581
649.40	0.580
649.59	0.581
649.78	0.582
649.97	0.579
650.16	0.575
650.35	0.575
650.54	0.577
650.73	0.573
650.92	0.574
651.11	0.576
651.30	0.578
651.49	0.577
651.68	0.577
651.87	0.575
652.06	0.578
652.25	0.579
652.44	0.582
652.63	0.581
652.82	0.581
653.01	0.578
653.20	0.575
653.39	0.575
653.58	0.572
653.77	0.569
653.96	0.567
654.15	0.564
654.34	0.561
654.53	0.559
654.72	0.556
654.91	0.556
655.10	0.555
655.29	0.555
655.48	0.553
655.67	0.553
655.86	0.553
656.05	0.552
656.24	0.551
656.43	0.551
656.62	0.551
656.81	0.550
657.00	0.548
657.19	0.549
657.38	0.548
657.57	0.550
657.76	0.550
657.95	0.552
658.14	0.553
658.33	0.556
658.51	0.558
658.70	0.559
658.89	0.561
659.08	0.565
659.27	0.565
659.46	0.568
659.65	0.569
659.84	0.574
660.03	0.575
660.22	0.575
660.41	0.574
660.60	0.579
660.79	0.580
660.98	0.580
661.17	0.578
661.36	0.580
661.55	0.582
661.74	0.578
661.92	0.576
662.11	0.575
662.30	0.576
662.49	0.577
662.68	0.575
662.87	0.571
663.06	0.573
663.25	0.571
663.44	0.570
663.63	0.570
663.82	0.571
664.01	0.570
664.20	0.570
664.38	0.571
664.57	0.569
664.76	0.566
664.95	0.565
665.14	0.564
665.33	0.568
665.52	0.565
665.71	0.562
665.90	0.564
666.09	0.564
666.28	0.563
666.46	0.558
666.65	0.557
666.84	0.560
667.03	0.564
667.22	0.564
667.41	0.563
667.60	0.566
667.79	0.566
667.98	0.563
668.16	0.561
668.35	0.560
668.54	0.564
668.73	0.562
668.92	0.562
669.11	0.561
669.30	0.563
669.49	0.564
669.67	0.565
669.86	0.564
670.05	0.563
670.24	0.564
670.43	0.566
670.62	0.566
670.81	0.565
671.00	0.562
671.18	0.559
671.37	0.557
671.56	0.555
671.75	0.553
671.94	0.556
672.13	0.557
672.32	0.558
672.50	0.557
672.69	0.557
672.88	0.556
673.07	0.557
673.26	0.557
673.45	0.558
673.63	0.558
673.82	0.560
674.01	0.557
674.20	0.556
674.39	0.555
674.58	0.556
674.76	0.559
674.95	0.561
675.14	0.563
675.33	0.563
675.52	0.563
675.71	0.563
675.89	0.562
676.08	0.565
676.27	0.565
676.46	0.566
676.65	0.566
676.84	0.562
677.02	0.560
677.21	0.557
677.40	0.557
677.59	0.558
677.78	0.557
677.96	0.555
678.15	0.553
678.34	0.554
678.53	0.551
678.72	0.547
678.90	0.549
679.09	0.550
679.28	0.552
679.47	0.552
679.66	0.551
679.84	0.552
680.03	0.553
680.22	0.554
680.41	0.552
680.60	0.553
680.78	0.554
680.97	0.554
681.16	0.553
681.35	0.552
681.53	0.551
681.72	0.551
681.91	0.548
682.10	0.547
682.29	0.545
682.47	0.545
682.66	0.546
682.85	0.545
683.04	0.545
683.22	0.542
683.41	0.542
683.60	0.543
683.79	0.541
683.97	0.540
684.16	0.540
684.35	0.541
684.54	0.541
684.72	0.540
684.91	0.540
685.10	0.538
685.29	0.538
685.47	0.539
685.66	0.539
685.85	0.539
686.04	0.540
686.22	0.538
686.41	0.537
686.60	0.535
686.79	0.535
686.97	0.534
687.16	0.533
687.35	0.533
687.54	0.532
687.72	0.529
687.91	0.530
688.10	0.530
688.29	0.531
688.47	0.531
688.66	0.533
688.85	0.532
689.03	0.534
689.22	0.533
689.41	0.533
689.60	0.534
689.78	0.536
689.97	0.535
690.16	0.536
690.34	0.536
690.53	0.536
690.72	0.534
690.91	0.534
691.09	0.534
691.28	0.536
691.47	0.538
691.65	0.538
691.84	0.537
692.03	0.538
692.21	0.536
692.40	0.535
692.59	0.536
692.77	0.537
692.96	0.536
693.15	0.535
693.34	0.534
693.52	0.533
693.71	0.531
693.90	0.530
694.08	0.528
694.27	0.530
694.46	0.528
694.64	0.528
694.83	0.526
695.02	0.528
695.20	0.530
695.39	0.530
695.58	0.529
695.76	0.529
695.95	0.527
696.14	0.528
696.32	0.525
696.51	0.527
696.70	0.526
696.88	0.525
697.07	0.522
697.26	0.520
697.44	0.520
697.63	0.520
697.81	0.520
698.00	0.522
698.19	0.521
698.37	0.522
698.56	0.520
698.75	0.521
698.93	0.521
699.12	0.522
699.31	0.521
699.49	0.521
699.68	0.521
699.87	0.520
700.05	0.517
700.24	0.518
700.42	0.517
700.61	0.518
700.80	0.518
700.98	0.518
701.17	0.517
701.36	0.518
701.54	0.516
701.73	0.515
701.91	0.515
702.10	0.516
702.29	0.517
702.47	0.518
702.66	0.519
702.84	0.518
703.03	0.518
703.22	0.518
703.40	0.518
703.59	0.519
703.77	0.518
703.96	0.519
704.15	0.519
704.33	0.518
704.52	0.516
704.70	0.515
704.89	0.514
705.08	0.515
705.26	0.515
705.45	0.514
705.63	0.513
705.82	0.514
706.00	0.512
706.19	0.512
706.38	0.511
706.56	0.511
706.75	0.511
706.93	0.512
707.12	0.510
707.30	0.509
707.49	0.509
707.68	0.510
707.86	0.508
708.05	0.507
708.23	0.507
708.42	0.507
708.60	0.506
708.79	0.504
708.98	0.503
709.16	0.503
709.35	0.503
709.53	0.502
709.72	0.502
709.90	0.502
710.09	0.502
710.27	0.500
710.46	0.499
710.64	0.499
710.83	0.498
711.02	0.498
711.20	0.500
711.39	0.500
711.57	0.500
711.76	0.498
711.94	0.500
712.13	0.499
712.31	0.499
712.50	0.501
712.68	0.502
712.87	0.501
713.05	0.501
713.24	0.499
713.42	0.498
713.61	0.498
713.79	0.499
713.98	0.498
714.16	0.497
714.35	0.497
714.54	0.496
714.72	0.495
714.91	0.494
715.09	0.492
715.28	0.490
715.46	0.490
715.65	0.490
715.83	0.489
716.02	0.489
716.20	0.490
716.39	0.490
716.57	0.489
716.76	0.488
716.94	0.488
717.12	0.488
717.31	0.488
717.49	0.487
717.68	0.486
717.86	0.484
718.05	0.481
718.23	0.479
718.42	0.477
718.60	0.473
718.79	0.471
718.97	0.470
719.16	0.470
719.34	0.469
719.53	0.469
719.71	0.470
719.90	0.469
720.08	0.469
720.27	0.467
720.45	0.466
720.63	0.467
720.82	0.465
721.00	0.464
721.19	0.463
721.37	0.462
721.56	0.459
721.74	0.457
721.93	0.454
722.11	0.452
722.30	0.454
722.48	0.452
722.66	0.451
722.85	0.450
723.03	0.449
723.22	0.450
723.40	0.452
723.59	0.452
723.77	0.450
723.95	0.451
724.14	0.450
724.32	0.446
724.51	0.446
724.69	0.448
724.88	0.450
725.06	0.450
725.24	0.448
725.43	0.448
725.61	0.450
725.80	0.453
725.98	0.456
726.16	0.456
726.35	0.457
726.53	0.457
726.72	0.453
726.90	0.448
727.09	0.448
727.27	0.443
727.45	0.440
727.64	0.431
727.82	0.427
728.01	0.420
728.19	0.421
728.37	0.416
728.56	0.412
728.74	0.407
728.92	0.409
729.11	0.407
729.29	0.408
729.48	0.405
729.66	0.408
729.84	0.406
730.03	0.405
730.21	0.401
730.40	0.402
730.58	0.403
730.76	0.405
730.95	0.402
731.13	0.398
731.31	0.392
731.50	0.386
731.68	0.383
731.86	0.383
732.05	0.378
732.23	0.375
732.42	0.374
732.60	0.368
732.78	0.363
732.97	0.356
733.15	0.352
733.33	0.352
733.52	0.349
733.70	0.347
733.88	0.341
734.07	0.339
734.25	0.333
734.43	0.333
734.62	0.332
734.80	0.333
734.98	0.332
735.17	0.329
735.35	0.328
735.53	0.329
735.72	0.324
735.90	0.321
736.08	0.319
736.27	0.321
736.45	0.317
736.63	0.318
736.82	0.313
737.00	0.311
737.18	0.312
737.37	0.307
737.55	0.302
737.73	0.301
737.92	0.302
738.10	0.306
738.28	0.302
738.46	0.300
738.65	0.293
738.83	0.295
739.01	0.292
739.20	0.290
739.38	0.291
739.56	0.297
739.75	0.299
739.93	0.305
740.11	0.298
740.29	0.299
740.48	0.301
740.66	0.306
740.84	0.307
741.03	0.311
741.21	0.312
741.39	0.320
741.57	0.320
741.76	0.318
741.94	0.317
742.12	0.326
742.31	0.330
742.49	0.334
742.67	0.332
742.85	0.325
743.04	0.333
743.22	0.335
743.40	0.325
743.58	0.330
743.77	0.334
743.95	0.340
744.13	0.331
744.31	0.332
744.50	0.323
744.68	0.323
744.86	0.326
745.04	0.317
745.23	0.315
745.41	0.318
745.59	0.315
745.77	0.318
745.96	0.317
746.14	0.319
746.32	0.327
746.50	0.328
746.69	0.334
746.87	0.340
747.05	0.343
747.23	0.358
747.42	0.363
747.60	0.358
747.78	0.353
747.96	0.339
748.14	0.342
748.33	0.336
748.51	0.338
748.69	0.343
748.87	0.339
749.06	0.344
749.24	0.332
749.42	0.326
749.60	0.331
749.78	0.329
749.97	0.339
750.15	0.345
750.33	0.339
750.51	0.338
750.69	0.327
750.88	0.321
751.06	0.319
751.24	0.317
751.42	0.321
751.60	0.316
751.79	0.310
751.97	0.314
752.15	0.309
752.33	0.315
752.51	0.308
752.69	0.315
752.88	0.316
753.06	0.309
753.24	0.315
753.42	0.311
753.60	0.305
753.78	0.315
753.97	0.304
754.15	0.308
754.33	0.303
754.51	0.310
754.69	0.307
754.87	0.303
755.06	0.310
755.24	0.302
755.42	0.306
755.60	0.314
755.78	0.305
755.96	0.306
756.15	0.303
756.33	0.302
756.51	0.294
756.69	0.296
756.87	0.301
757.05	0.297
757.23	0.299
757.42	0.296
757.60	0.295
757.78	0.298
757.96	0.299
758.14	0.296
758.32	0.296
758.50	0.294
758.69	0.290
758.87	0.291
759.05	0.290
759.23	0.289
759.41	0.286
759.59	0.289
759.77	0.286
759.95	0.287
760.13	0.281
760.32	0.279
760.50	0.281
760.68	0.277
760.86	0.275
761.04	0.275
761.22	0.279
761.40	0.275
761.58	0.268
761.76	0.267
761.95	0.262
762.13	0.269
762.31	0.270
762.49	0.273
762.67	0.270
762.85	0.273
763.03	0.277
763.21	0.276
763.39	0.277
763.57	0.281
763.75	0.284
763.94	0.288
764.12	0.284
764.30	0.284
764.48	0.282
764.66	0.288
764.84	0.286
765.02	0.280
765.20	0.276
765.38	0.279
765.56	0.280
765.74	0.274
765.92	0.274
766.10	0.274
766.28	0.275
766.46	0.274
766.65	0.274
766.83	0.273
767.01	0.275
767.19	0.276
767.37	0.277
767.55	0.278
767.73	0.280
767.91	0.281
768.09	0.286
768.27	0.284
768.45	0.287
768.63	0.285
768.81	0.284
768.99	0.287
769.17	0.284
769.35	0.281
769.53	0.280
769.71	0.281
769.89	0.280
770.07	0.281
770.25	0.286
770.43	0.292
770.61	0.290
770.79	0.288
770.97	0.288
771.15	0.290
771.33	0.291
771.51	0.293
771.69	0.294
771.87	0.292
772.05	0.291
772.24	0.290
772.42	0.283
772.60	0.285
772.78	0.285
772.96	0.284
773.14	0.291
773.32	0.297
773.49	0.297
773.67	0.298
773.85	0.301
774.03	0.301
774.21	0.300
774.39	0.309
774.57	0.308
774.75	0.314
774.93	0.314
775.11	0.308
775.29	0.306
775.47	0.302
775.65	0.304
775.83	0.310
776.01	0.308
776.19	0.315
776.37	0.313
776.55	0.318
776.73	0.318
776.91	0.319
777.09	0.325
777.27	0.333
777.45	0.339
777.63	0.345
777.81	0.343
777.99	0.346
778.17	0.346
778.35	0.347
778.53	0.351
778.71	0.352
778.89	0.353
779.07	0.352
779.24	0.350
779.42	0.343
779.60	0.338
779.78	0.330
779.96	0.329
780.14	0.327
780.32	0.320
780.50	0.316
780.68	0.315
780.86	0.318
781.04	0.314
781.22	0.307
781.40	0.308
781.58	0.311
781.75	0.313
781.93	0.317
782.11	0.317
782.29	0.321
782.47	0.324
782.65	0.329
782.83	0.325
783.01	0.330
783.19	0.331
783.37	0.335
783.55	0.333
783.72	0.336
783.90	0.330
784.08	0.330
784.26	0.337
784.44	0.332
784.62	0.332
784.80	0.336
784.98	0.334
785.16	0.340
785.33	0.338
785.51	0.347
785.69	0.350
785.87	0.357
786.05	0.356
786.23	0.348
786.41	0.356
786.59	0.357
786.77	0.356
786.94	0.357
787.12	0.353
787.30	0.353
787.48	0.347
787.66	0.350
787.84	0.344
788.02	0.350
788.19	0.352
788.37	0.349
788.55	0.346
788.73	0.346
788.91	0.349
789.09	0.352
789.27	0.360
789.44	0.364
789.62	0.360
789.80	0.360
789.98	0.356
790.16	0.359
790.34	0.362
790.51	0.370
790.69	0.369
790.87	0.373
791.05	0.379
791.23	0.375
791.41	0.371
791.58	0.369
791.76	0.377
791.94	0.378
792.12	0.378
792.30	0.375
792.48	0.373
792.65	0.372
792.83	0.367
793.01	0.363
793.19	0.367
793.37	0.368
793.54	0.372
793.72	0.368
793.90	0.370
794.08	0.371
794.26	0.375
794.43	0.377
794.61	0.386
794.79	0.385
794.97	0.391
795.15	0.388
795.32	0.387
795.50	0.391
795.68	0.397
795.86	0.397
796.04	0.402
796.21	0.404
796.39	0.402
796.57	0.397
796.75	0.401
796.92	0.395
797.10	0.397
797.28	0.406
797.46	0.404
797.64	0.402
797.81	0.403
797.99	0.399
798.17	0.398
798.35	0.399
798.52	0.399
798.70	0.400
798.88	0.403
799.06	0.399
799.23	0.395
799.41	0.394
799.59	0.396
799.77	0.398
799.94	0.398
800.12	0.398
800.30	0.394
800.48	0.396
800.65	0.402
800.83	0.406
801.01	0.413
801.19	0.411
801.36	0.413
801.54	0.417
801.72	0.415
801.90	0.419
802.07	0.418
802.25	0.426
802.43	0.434
802.60	0.430
802.78	0.426
802.96	0.431
803.14	0.438
803.31	0.438
803.49	0.437
803.67	0.440
803.84	0.438
804.02	0.442
804.20	0.442
804.38	0.435
804.55	0.435
804.73	0.441
804.91	0.439
805.08	0.432
805.26	0.433
805.44	0.421
805.61	0.420
805.79	0.426
805.97	0.424
806.15	0.424
806.32	0.429
806.50	0.433
806.68	0.431
806.85	0.424
807.03	0.428
807.21	0.422
807.38	0.432
807.56	0.437
807.74	0.431
807.91	0.436
808.09	0.436
808.27	0.428
808.44	0.422
808.62	0.422
808.80	0.430
808.97	0.431
809.15	0.434
809.33	0.432
809.50	0.428
809.68	0.434
809.86	0.431
810.03	0.423
810.21	0.431
810.39	0.432
810.56	0.430
810.74	0.422
810.91	0.413
811.09	0.419
811.27	0.418
811.44	0.421
811.62	0.422
811.80	0.423
811.97	0.432
812.15	0.434
812.33	0.437
812.50	0.446
812.68	0.450
812.85	0.459
813.03	0.457
813.21	0.464
813.38	0.466
813.56	0.464
813.74	0.459
813.91	0.453
814.09	0.444
814.26	0.448
814.44	0.439
814.62	0.437
814.79	0.438
814.97	0.437
815.14	0.436
815.32	0.419
815.50	0.416
815.67	0.420
815.85	0.425
816.02	0.425
816.20	0.420
816.38	0.425
816.55	0.425
816.73	0.422
816.90	0.418
817.08	0.413
817.26	0.423
817.43	0.431
817.61	0.423
817.78	0.419
817.96	0.428
818.13	0.431
818.31	0.430
818.49	0.429
818.66	0.436
818.84	0.440
819.01	0.444
819.19	0.448
819.36	0.447
819.54	0.457
819.71	0.453
819.89	0.446
820.07	0.444
820.24	0.436
820.42	0.442
820.59	0.439
820.77	0.433
820.94	0.433
821.12	0.428
821.29	0.421
821.47	0.426
821.64	0.433
821.82	0.433
822.00	0.435
822.17	0.446
822.35	0.442
822.52	0.441
822.70	0.449
822.87	0.451
823.05	0.456
823.22	0.457
823.40	0.454
823.57	0.448
823.75	0.458
823.92	0.461
824.10	0.451
824.27	0.443
824.45	0.450
824.62	0.438
824.80	0.435
824.97	0.438
825.15	0.433
825.32	0.430
825.50	0.431
825.67	0.421
825.85	0.415
826.02	0.417
826.20	0.416
826.37	0.399
826.55	0.417
826.72	0.408
826.90	0.400
827.07	0.394
827.25	0.394
827.42	0.390
827.60	0.389
827.77	0.389
827.95	0.393
828.12	0.400
828.30	0.415
828.47	0.397
828.65	0.405
828.82	0.416
829.00	0.428
829.17	0.432
829.34	0.438
829.52	0.445
829.69	0.429
829.87	0.431
830.04	0.424
830.22	0.411
830.39	0.418
830.57	0.425
830.74	0.409
830.92	0.395
831.09	0.374
831.26	0.382
831.44	0.376
831.61	0.397
831.79	0.384
831.96	0.382
832.14	0.414
832.31	0.402
832.49	0.396
832.66	0.409
832.83	0.447
833.01	0.482
833.18	0.499
833.36	0.489
833.53	0.474
833.70	0.470
833.88	0.491
834.05	0.448
834.23	0.488
834.40	0.487
834.58	0.462
834.75	0.433
834.92	0.410
835.10	0.395
835.27	0.418
835.45	0.434
835.62	0.447
835.79	0.439
835.97	0.455
836.14	0.453
836.32	0.466
836.49	0.522
836.66	0.519
836.84	0.513
837.01	0.499
837.18	0.492
837.36	0.530
837.53	0.531
837.71	0.565
837.88	0.587
838.05	0.536
838.23	0.537
838.40	0.533
838.58	0.549
838.75	0.574
838.92	0.626
839.10	0.648
839.27	0.591
839.44	0.603
839.62	0.562
839.79	0.514
839.96	0.543
840.14	0.519
840.31	0.512
840.48	0.543
840.66	0.563
840.83	0.507
841.01	0.513
841.18	0.579
841.35	0.530
841.53	0.557
841.70	0.563
841.87	0.575
842.05	0.609
842.22	0.581
842.39	0.536
842.57	0.575
842.74	0.598
842.91	0.549
843.09	0.499
843.26	0.508
843.43	0.523
843.60	0.540
843.78	0.511
843.95	0.508
844.12	0.552
844.30	0.556
844.47	0.541
844.64	0.544
844.82	0.582
844.99	0.567
845.16	0.566
845.34	0.608
845.51	0.618
845.68	0.649
845.85	0.618
846.03	0.562
846.20	0.618
846.37	0.645
846.55	0.635
846.72	0.618
846.89	0.634
847.06	0.650
847.24	0.651
847.41	0.623
847.58	0.637
847.76	0.646
847.93	0.607
848.10	0.590
848.27	0.575
848.45	0.692
848.62	0.696
848.79	0.800
848.97	0.947
849.14	0.732
849.31	0.811
849.48	1.012
849.66	1.289
849.83	1.340
850.00	1.067
850.17	0.843
850.35	0.698
850.52	0.735
850.69	0.701
850.86	0.631
851.04	0.662
851.21	0.739
851.38	0.638
851.55	0.663
851.72	0.646
851.90	0.669
852.07	0.685
852.24	0.791
852.41	0.711
852.59	0.658
852.76	0.655
852.93	0.650
853.10	0.537
853.28	0.618
853.45	0.532
853.62	0.573
853.79	0.570
853.96	0.630
854.14	0.582
854.31	0.664
854.48	0.701
854.65	0.715
854.82	0.769
855.00	1.022
855.17	0.785
855.34	0.831
855.51	0.840
855.68	0.989
855.86	0.849
856.03	0.887
856.20	0.809
856.37	0.784
856.54	0.858
856.72	0.797
856.89	0.815
857.06	0.973
857.23	0.966
857.40	0.933
857.57	1.144
857.75	1.452
857.92	1.296
858.09	-0.000
858.26	-0.000
858.43	-0.000
858.60	-0.000
858.78	-0.000
858.95	-0.000
859.12	-0.000
859.29	-0.000
859.46	-0.000
859.63	-0.000
859.81	-0.000
859.98	-0.000
860.15	-0.000
860.32	-0.000
860.49	-0.000
860.66	-0.000
860.83	-0.000
861.01	-0.000
861.18	-0.000
861.35	-0.000
861.52	-0.000
861.69	-0.000
861.86	-0.000
862.03	-0.000
862.21	-0.000
862.38	-0.000
862.55	-0.000
862.72	-0.000
862.89	-0.000
863.06	-0.000
863.23	-0.000
863.40	-0.000
863.58	-0.000
863.75	-0.000
863.92	-0.000
864.09	-0.000
864.26	-0.000
864.43	-0.000
864.60	-0.000
864.77	-0.000
864.94	-0.000
865.11	-0.000
865.29	-0.000
865.46	-0.000
865.63	-0.000
865.80	-0.000
865.97	-0.000
866.14	-0.000
866.31	-0.000
866.48	-0.000
866.65	-0.000
866.82	-0.000
866.99	-0.000
867.16	-0.000
867.34	-0.000
867.51	-0.000
867.68	-0.000
867.85	-0.000
868.02	-0.000
868.19	-0.000
868.36	-0.000
868.53	-0.000
868.70	-0.000
868.87	-0.000
869.04	-0.000
869.21	-0.000
869.38	-0.000
869.55	-0.000
869.72	-0.000
869.89	-0.000
870.06	-0.000
870.24	-0.000
870.41	-0.000
870.58	-0.000
870.75	-0.000
870.92	-0.000
871.09	-0.000
871.26	-0.000
871.43	-0.000
871.60	-0.000
871.77	-0.000
871.94	-0.000
872.11	-0.000
872.28	-0.000
872.45	-0.000
872.62	-0.000
872.79	-0.000
872.96	-0.000
873.13	-0.000
873.30	-0.000
873.47	-0.000
873.64	-0.000
873.81	-0.000
873.98	-0.000
874.15	-0.000
874.32	-0.000
874.49	-0.000
874.66	-0.000
874.83	-0.000
875.00	-0.000
875.17	-0.000
875.34	-0.000
875.51	-0.000
875.68	-0.000
875.85	-0.000
876.02	-0.000
876.19	-0.000
876.36	-0.000
876.53	-0.000
876.70	-0.000
876.87	-0.000
877.04	-0.000
877.21	-0.000
877.38	-0.000
877.55	-0.000
877.72	-0.000
877.89	-0.000
878.06	-0.000
878.23	-0.000
878.39	-0.000
878.56	-0.000
878.73	-0.000
878.90	-0.000
879.07	-0.000
879.24	-0.000
879.41	-0.000
879.58	-0.000
879.75	-0.000
879.92	-0.000
880.09	-0.000
880.26	-0.000
880.43	-0.000
880.60	-0.000
880.77	-0.000
880.94	-0.000
881.11	-0.000
881.27	-0.000
881.44	-0.000
881.61	-0.000
881.78	-0.000
881.95	-0.000
882.12	-0.000
882.29	-0.000
882.46	-0.000
882.63	-0.000
882.80	-0.000
882.97	-0.000
883.14	-0.000
883.30	-0.000
883.47	-0.000
883.64	-0.000
883.81	-0.000
883.98	-0.000
884.15	-0.000
884.32	-0.000
884.49	-0.000
884.66	-0.000
884.82	-0.000
884.99	-0.000
885.16	-0.000
885.33	-0.000
885.50	-0.000
885.67	-0.000
885.84	-0.000
886.01	-0.000
886.17	-0.000
886.34	-0.000
886.51	-0.000
886.68	-0.000
886.85	-0.000
887.02	-0.000
887.19	-0.000
887.36	-0.000
887.52	-0.000
887.69	-0.000
887.86	-0.000
888.03	-0.000
888.20	-0.000
888.37	-0.000
888.54	-0.000
888.70	-0.000
888.87	-0.000
889.04	-0.000
889.21	-0.000
889.38	-0.000
889.55	-0.000
889.71	-0.000
889.88	-0.000
890.05	-0.000
890.22	-0.000
890.39	-0.000
>>>>>End Processed Spectral Data<<<<<
