SpectraSuite Data File
++++++++++++++++++++++++++++++++++++
Date: Fri Jun 19 14:34:23 CEST 2015
User: introlabs
Dark Spectrum Present: Yes
Reference Spectrum Present: Yes
Number of Sampled Component Spectra: 1
Spectrometers: USB4H08886
Integration Time (usec): 745692 (USB4H08886)
Spectra Averaged: 5 (USB4H08886)
Boxcar Smoothing: 5 (USB4H08886)
Correct for Electrical Dark: Yes (USB4H08886)
Strobe/Lamp Enabled: No (USB4H08886)
Correct for Detector Non-linearity: Yes (USB4H08886)
Correct for Stray Light: Yes (USB4H08886)
Number of Pixels in Processed Spectrum: 3648
>>>>>Begin Processed Spectral Data<<<<<
178.14	-0.000
178.36	-0.000
178.57	-0.000
178.79	-0.000
179.01	-0.000
179.22	-0.000
179.44	-0.000
179.65	-0.000
179.87	-0.000
180.08	-0.000
180.30	-0.000
180.52	-0.000
180.73	-0.000
180.95	-0.000
181.16	-0.000
181.38	-0.000
181.59	-0.000
181.81	-0.000
182.03	-0.000
182.24	-0.000
182.46	-0.000
182.67	-0.000
182.89	-0.000
183.10	-0.000
183.32	-0.000
183.54	-0.000
183.75	-0.000
183.97	-0.000
184.18	-0.000
184.40	-0.000
184.61	-0.000
184.83	-0.000
185.04	-0.000
185.26	-0.000
185.48	-0.000
185.69	-0.000
185.91	-0.000
186.12	-0.000
186.34	-0.000
186.55	-0.000
186.77	-0.000
186.98	-0.000
187.20	-0.000
187.42	-0.000
187.63	-0.000
187.85	-0.000
188.06	-0.000
188.28	-0.000
188.49	-0.000
188.71	-0.000
188.92	-0.000
189.14	-0.000
189.36	-0.000
189.57	-0.000
189.79	-0.000
190.00	-0.000
190.22	-0.000
190.43	-0.000
190.65	-0.000
190.86	-0.000
191.08	-0.000
191.29	-0.000
191.51	-0.000
191.72	-0.000
191.94	-0.000
192.16	-0.000
192.37	-0.000
192.59	-0.000
192.80	-0.000
193.02	-0.000
193.23	-0.000
193.45	-0.000
193.66	-0.000
193.88	-0.000
194.09	-0.000
194.31	-0.000
194.52	-0.000
194.74	-0.000
194.95	-0.000
195.17	-0.000
195.38	-0.000
195.60	-0.000
195.81	-0.000
196.03	-0.000
196.25	-0.000
196.46	-0.000
196.68	-0.000
196.89	-0.000
197.11	-0.000
197.32	-0.000
197.54	-0.000
197.75	-0.000
197.97	-0.000
198.18	-0.000
198.40	-0.000
198.61	-0.000
198.83	-0.000
199.04	-0.000
199.26	-0.000
199.47	-0.000
199.69	-0.000
199.90	-0.000
200.12	-0.000
200.33	-0.000
200.55	-0.000
200.76	-0.000
200.98	-0.000
201.19	-0.000
201.41	-0.000
201.62	-0.000
201.84	-0.000
202.05	-0.000
202.27	-0.000
202.48	-0.000
202.70	-0.000
202.91	-0.000
203.13	-0.000
203.34	-0.000
203.56	-0.000
203.77	-0.000
203.99	-0.000
204.20	-0.000
204.42	-0.000
204.63	-0.000
204.85	-0.000
205.06	-0.000
205.28	-0.000
205.49	-0.000
205.71	-0.000
205.92	-0.000
206.14	-0.000
206.35	-0.000
206.56	-0.000
206.78	-0.000
206.99	-0.000
207.21	-0.000
207.42	-0.000
207.64	-0.000
207.85	-0.000
208.07	-0.000
208.28	-0.000
208.50	-0.000
208.71	-0.000
208.93	-0.000
209.14	-0.000
209.36	-0.000
209.57	-0.000
209.79	-0.000
210.00	-0.000
210.22	-0.000
210.43	-0.000
210.64	-0.000
210.86	-0.000
211.07	-0.000
211.29	-0.000
211.50	-0.000
211.72	-0.000
211.93	-0.000
212.15	-0.000
212.36	-0.000
212.58	-0.000
212.79	-0.000
213.01	-0.000
213.22	-0.000
213.43	-0.000
213.65	-0.000
213.86	-0.000
214.08	-0.000
214.29	-0.000
214.51	-0.000
214.72	-0.000
214.94	-0.000
215.15	-0.000
215.36	-0.000
215.58	-0.000
215.79	-0.000
216.01	-0.000
216.22	-0.000
216.44	-0.000
216.65	-0.000
216.87	-0.000
217.08	-0.000
217.29	-0.000
217.51	-0.000
217.72	-0.000
217.94	-0.000
218.15	-0.000
218.37	-0.000
218.58	-0.000
218.80	-0.000
219.01	-0.000
219.22	-0.000
219.44	-0.000
219.65	-0.000
219.87	-0.000
220.08	-0.000
220.30	-0.000
220.51	-0.000
220.72	-0.000
220.94	-0.000
221.15	-0.000
221.37	-0.000
221.58	-0.000
221.79	-0.000
222.01	-0.000
222.22	-0.000
222.44	-0.000
222.65	-0.000
222.87	-0.000
223.08	-0.000
223.29	-0.000
223.51	-0.000
223.72	-0.000
223.94	-0.000
224.15	-0.000
224.36	-0.000
224.58	-0.000
224.79	-0.000
225.01	-0.000
225.22	-0.000
225.44	-0.000
225.65	-0.000
225.86	-0.000
226.08	-0.000
226.29	-0.000
226.51	-0.000
226.72	-0.000
226.93	-0.000
227.15	-0.000
227.36	-0.000
227.58	-0.000
227.79	-0.000
228.00	-0.000
228.22	-0.000
228.43	-0.000
228.65	-0.000
228.86	-0.000
229.07	-0.000
229.29	-0.000
229.50	-0.000
229.72	-0.000
229.93	-0.000
230.14	-0.000
230.36	-0.000
230.57	-0.000
230.78	-0.000
231.00	-0.000
231.21	-0.000
231.43	-0.000
231.64	-0.000
231.85	-0.000
232.07	-0.000
232.28	-0.000
232.50	-0.000
232.71	-0.000
232.92	-0.000
233.14	-0.000
233.35	-0.000
233.56	-0.000
233.78	-0.000
233.99	-0.000
234.21	-0.000
234.42	-0.000
234.63	-0.000
234.85	-0.000
235.06	-0.000
235.27	-0.000
235.49	-0.000
235.70	-0.000
235.91	-0.000
236.13	-0.000
236.34	-0.000
236.56	-0.000
236.77	-0.000
236.98	-0.000
237.20	-0.000
237.41	-0.000
237.62	-0.000
237.84	-0.000
238.05	-0.000
238.26	-0.000
238.48	-0.000
238.69	-0.000
238.91	-0.000
239.12	-0.000
239.33	-0.000
239.55	-0.000
239.76	-0.000
239.97	-0.000
240.19	-0.000
240.40	-0.000
240.61	-0.000
240.83	-0.000
241.04	-0.000
241.25	-0.000
241.47	-0.000
241.68	-0.000
241.89	-0.000
242.11	-0.000
242.32	-0.000
242.53	-0.000
242.75	-0.000
242.96	-0.000
243.17	-0.000
243.39	-0.000
243.60	-0.000
243.81	-0.000
244.03	-0.000
244.24	-0.000
244.45	-0.000
244.67	-0.000
244.88	-0.000
245.09	-0.000
245.31	-0.000
245.52	-0.000
245.73	-0.000
245.95	-0.000
246.16	-0.000
246.37	-0.000
246.59	-0.000
246.80	-0.000
247.01	-0.000
247.23	-0.000
247.44	-0.000
247.65	-0.000
247.87	-0.000
248.08	-0.000
248.29	-0.000
248.51	-0.000
248.72	-0.000
248.93	-0.000
249.15	-0.000
249.36	-0.000
249.57	-0.000
249.78	-0.000
250.00	-0.000
250.21	-0.000
250.42	-0.000
250.64	-0.000
250.85	-0.000
251.06	-0.000
251.28	-0.000
251.49	-0.000
251.70	-0.000
251.92	-0.000
252.13	-0.000
252.34	-0.000
252.55	-0.000
252.77	-0.000
252.98	-0.000
253.19	-0.000
253.41	-0.000
253.62	-0.000
253.83	-0.000
254.05	-0.000
254.26	-0.000
254.47	-0.000
254.68	-0.000
254.90	-0.000
255.11	-0.000
255.32	-0.000
255.54	-0.000
255.75	-0.000
255.96	-0.000
256.17	-0.000
256.39	-0.000
256.60	-0.000
256.81	-0.000
257.03	-0.000
257.24	-0.000
257.45	-0.000
257.66	-0.000
257.88	-0.000
258.09	-0.000
258.30	-0.000
258.51	-0.000
258.73	-0.000
258.94	-0.000
259.15	-0.000
259.37	-0.000
259.58	-0.000
259.79	-0.000
260.00	-0.000
260.22	-0.000
260.43	-0.000
260.64	-0.000
260.85	-0.000
261.07	-0.000
261.28	-0.000
261.49	-0.000
261.71	-0.000
261.92	-0.000
262.13	-0.000
262.34	-0.000
262.56	-0.000
262.77	-0.000
262.98	-0.000
263.19	-0.000
263.41	-0.000
263.62	-0.000
263.83	-0.000
264.04	-0.000
264.26	-0.000
264.47	-0.000
264.68	-0.000
264.89	-0.000
265.11	-0.000
265.32	-0.000
265.53	-0.000
265.74	-0.000
265.96	-0.000
266.17	-0.000
266.38	-0.000
266.59	-0.000
266.81	-0.000
267.02	-0.000
267.23	-0.000
267.44	-0.000
267.65	-0.000
267.87	-0.000
268.08	-0.000
268.29	-0.000
268.50	-0.000
268.72	-0.000
268.93	-0.000
269.14	-0.000
269.35	-0.000
269.57	-0.000
269.78	-0.000
269.99	-0.000
270.20	-0.000
270.41	-0.000
270.63	-0.000
270.84	-0.000
271.05	-0.000
271.26	-0.000
271.48	-0.000
271.69	-0.000
271.90	-0.000
272.11	-0.000
272.32	-0.000
272.54	-0.000
272.75	-0.000
272.96	-0.000
273.17	-0.000
273.39	-0.000
273.60	-0.000
273.81	-0.000
274.02	-0.000
274.23	-0.000
274.45	-0.000
274.66	-0.000
274.87	-0.000
275.08	-0.000
275.29	-0.000
275.51	-0.000
275.72	-0.000
275.93	-0.000
276.14	-0.000
276.35	-0.000
276.57	-0.000
276.78	-0.000
276.99	-0.000
277.20	-0.000
277.41	-0.000
277.63	-0.000
277.84	-0.000
278.05	-0.000
278.26	-0.000
278.47	-0.000
278.69	-0.000
278.90	-0.000
279.11	-0.000
279.32	-0.000
279.53	-0.000
279.74	-0.000
279.96	-0.000
280.17	-0.000
280.38	-0.000
280.59	-0.000
280.80	-0.000
281.02	-0.000
281.23	-0.000
281.44	-0.000
281.65	-0.000
281.86	-0.000
282.07	-0.000
282.29	-0.000
282.50	-0.000
282.71	-0.000
282.92	-0.000
283.13	-0.000
283.35	-0.000
283.56	-0.000
283.77	-0.000
283.98	-0.000
284.19	-0.000
284.40	-0.000
284.62	-0.000
284.83	-0.000
285.04	-0.000
285.25	-0.000
285.46	-0.000
285.67	-0.000
285.88	-0.000
286.10	-0.000
286.31	-0.000
286.52	-0.000
286.73	-0.000
286.94	-0.000
287.15	-0.000
287.37	-0.000
287.58	-0.000
287.79	-0.000
288.00	-0.000
288.21	-0.000
288.42	-0.000
288.63	-0.000
288.85	-0.000
289.06	-0.000
289.27	-0.000
289.48	-0.000
289.69	-0.000
289.90	-0.000
290.11	-0.000
290.33	-0.000
290.54	-0.000
290.75	-0.000
290.96	-0.000
291.17	-0.000
291.38	-0.000
291.59	-0.000
291.81	-0.000
292.02	-0.000
292.23	-0.000
292.44	-0.000
292.65	-0.000
292.86	-0.000
293.07	-0.000
293.28	-0.000
293.50	-0.000
293.71	-0.000
293.92	-0.000
294.13	-0.000
294.34	-0.000
294.55	-0.000
294.76	-0.000
294.97	-0.000
295.19	-0.000
295.40	-0.000
295.61	-0.000
295.82	-0.000
296.03	-0.000
296.24	-0.000
296.45	2.315
296.66	1.850
296.87	1.887
297.09	1.987
297.30	2.316
297.51	1.806
297.72	1.750
297.93	1.851
298.14	1.818
298.35	1.761
298.56	1.730
298.77	1.886
298.99	1.844
299.20	1.802
299.41	1.777
299.62	1.722
299.83	1.719
300.04	1.654
300.25	1.654
300.46	1.694
300.67	1.667
300.88	1.610
301.10	1.604
301.31	1.697
301.52	1.619
301.73	1.557
301.94	1.554
302.15	1.555
302.36	1.502
302.57	1.431
302.78	1.437
302.99	1.486
303.20	1.506
303.41	1.413
303.63	1.394
303.84	1.403
304.05	1.395
304.26	1.334
304.47	1.345
304.68	1.353
304.89	1.344
305.10	1.301
305.31	1.284
305.52	1.329
305.73	1.321
305.94	1.283
306.15	1.278
306.37	1.301
306.58	1.312
306.79	1.282
307.00	1.305
307.21	1.347
307.42	1.342
307.63	1.300
307.84	1.265
308.05	1.304
308.26	1.301
308.47	1.276
308.68	1.273
308.89	1.273
309.10	1.268
309.31	1.227
309.52	1.220
309.73	1.235
309.95	1.233
310.16	1.206
310.37	1.192
310.58	1.211
310.79	1.207
311.00	1.203
311.21	1.207
311.42	1.209
311.63	1.204
311.84	1.181
312.05	1.179
312.26	1.203
312.47	1.214
312.68	1.191
312.89	1.174
313.10	1.183
313.31	1.155
313.52	1.153
313.73	1.154
313.94	1.157
314.15	1.143
314.36	1.121
314.57	1.110
314.78	1.099
314.99	1.093
315.21	1.082
315.42	1.086
315.63	1.100
315.84	1.077
316.05	1.063
316.26	1.071
316.47	1.089
316.68	1.084
316.89	1.068
317.10	1.087
317.31	1.093
317.52	1.094
317.73	1.074
317.94	1.072
318.15	1.117
318.36	1.118
318.57	1.101
318.78	1.088
318.99	1.124
319.20	1.121
319.41	1.086
319.62	1.086
319.83	1.100
320.04	1.094
320.25	1.081
320.46	1.047
320.67	1.050
320.88	1.045
321.09	1.031
321.30	1.017
321.51	1.031
321.72	1.030
321.93	1.013
322.14	1.005
322.35	1.033
322.56	1.035
322.77	1.022
322.98	1.034
323.19	1.041
323.40	1.049
323.61	1.028
323.82	1.024
324.03	1.029
324.24	1.027
324.45	1.013
324.66	0.994
324.87	0.989
325.08	0.988
325.29	0.967
325.50	0.960
325.71	0.964
325.92	0.972
326.13	0.958
326.34	0.957
326.55	0.967
326.76	0.966
326.97	0.955
327.18	0.949
327.39	0.975
327.60	0.976
327.80	0.977
328.01	0.973
328.22	0.974
328.43	0.977
328.64	0.963
328.85	0.965
329.06	0.968
329.27	0.967
329.48	0.963
329.69	0.945
329.90	0.955
330.11	0.948
330.32	0.944
330.53	0.936
330.74	0.938
330.95	0.937
331.16	0.923
331.37	0.931
331.58	0.932
331.79	0.931
332.00	0.921
332.21	0.914
332.42	0.919
332.63	0.909
332.83	0.904
333.04	0.906
333.25	0.919
333.46	0.918
333.67	0.902
333.88	0.905
334.09	0.916
334.30	0.915
334.51	0.906
334.72	0.902
334.93	0.905
335.14	0.905
335.35	0.898
335.56	0.893
335.77	0.902
335.98	0.901
336.18	0.893
336.39	0.885
336.60	0.889
336.81	0.887
337.02	0.886
337.23	0.890
337.44	0.892
337.65	0.892
337.86	0.881
338.07	0.876
338.28	0.881
338.49	0.879
338.70	0.872
338.91	0.878
339.11	0.885
339.32	0.881
339.53	0.869
339.74	0.866
339.95	0.863
340.16	0.861
340.37	0.853
340.58	0.852
340.79	0.856
341.00	0.856
341.21	0.845
341.41	0.846
341.62	0.848
341.83	0.848
342.04	0.845
342.25	0.856
342.46	0.861
342.67	0.860
342.88	0.854
343.09	0.853
343.30	0.860
343.50	0.863
343.71	0.853
343.92	0.850
344.13	0.855
344.34	0.854
344.55	0.836
344.76	0.835
344.97	0.840
345.18	0.838
345.38	0.836
345.59	0.831
345.80	0.831
346.01	0.830
346.22	0.826
346.43	0.820
346.64	0.828
346.85	0.829
347.06	0.821
347.26	0.821
347.47	0.824
347.68	0.819
347.89	0.814
348.10	0.809
348.31	0.815
348.52	0.813
348.73	0.811
348.93	0.809
349.14	0.812
349.35	0.810
349.56	0.804
349.77	0.800
349.98	0.807
350.19	0.804
350.39	0.798
350.60	0.795
350.81	0.811
351.02	0.810
351.23	0.804
351.44	0.805
351.65	0.808
351.86	0.806
352.06	0.804
352.27	0.804
352.48	0.806
352.69	0.805
352.90	0.799
353.11	0.784
353.31	0.792
353.52	0.789
353.73	0.782
353.94	0.784
354.15	0.790
354.36	0.790
354.57	0.781
354.77	0.782
354.98	0.783
355.19	0.784
355.40	0.783
355.61	0.788
355.82	0.793
356.02	0.792
356.23	0.785
356.44	0.787
356.65	0.790
356.86	0.791
357.07	0.785
357.27	0.787
357.48	0.789
357.69	0.784
357.90	0.769
358.11	0.766
358.32	0.770
358.52	0.771
358.73	0.760
358.94	0.762
359.15	0.766
359.36	0.768
359.56	0.763
359.77	0.761
359.98	0.768
360.19	0.767
360.40	0.764
360.61	0.764
360.81	0.764
361.02	0.765
361.23	0.757
361.44	0.756
361.65	0.756
361.85	0.755
362.06	0.754
362.27	0.756
362.48	0.756
362.69	0.759
362.89	0.753
363.10	0.754
363.31	0.758
363.52	0.761
363.73	0.756
363.93	0.756
364.14	0.757
364.35	0.758
364.56	0.748
364.77	0.750
364.97	0.752
365.18	0.752
365.39	0.748
365.60	0.744
365.81	0.746
366.01	0.744
366.22	0.742
366.43	0.742
366.64	0.744
366.84	0.749
367.05	0.746
367.26	0.746
367.47	0.747
367.68	0.747
367.88	0.745
368.09	0.743
368.30	0.746
368.51	0.746
368.71	0.744
368.92	0.748
369.13	0.746
369.34	0.746
369.55	0.744
369.75	0.744
369.96	0.751
370.17	0.750
370.38	0.747
370.58	0.747
370.79	0.752
371.00	0.751
371.21	0.742
371.41	0.748
371.62	0.752
371.83	0.748
372.04	0.747
372.24	0.739
372.45	0.741
372.66	0.740
372.87	0.737
373.07	0.733
373.28	0.734
373.49	0.737
373.70	0.727
373.90	0.726
374.11	0.735
374.32	0.734
374.53	0.732
374.73	0.733
374.94	0.736
375.15	0.736
375.36	0.734
375.56	0.744
375.77	0.744
375.98	0.745
376.19	0.742
376.39	0.736
376.60	0.740
376.81	0.740
377.02	0.737
377.22	0.737
377.43	0.736
377.64	0.736
377.84	0.727
378.05	0.731
378.26	0.737
378.47	0.736
378.67	0.732
378.88	0.730
379.09	0.731
379.30	0.731
379.50	0.729
379.71	0.731
379.92	0.734
380.12	0.733
380.33	0.724
380.54	0.721
380.75	0.728
380.95	0.729
381.16	0.726
381.37	0.727
381.57	0.728
381.78	0.730
381.99	0.730
382.20	0.728
382.40	0.731
382.61	0.732
382.82	0.728
383.02	0.721
383.23	0.724
383.44	0.724
383.64	0.722
383.85	0.725
384.06	0.728
384.27	0.725
384.47	0.724
384.68	0.725
384.89	0.730
385.09	0.729
385.30	0.728
385.51	0.727
385.71	0.731
385.92	0.731
386.13	0.729
386.33	0.731
386.54	0.732
386.75	0.731
386.95	0.727
387.16	0.722
387.37	0.725
387.58	0.725
387.78	0.722
387.99	0.720
388.20	0.722
388.40	0.719
388.61	0.714
388.82	0.717
389.02	0.720
389.23	0.720
389.44	0.719
389.64	0.719
389.85	0.731
390.06	0.731
390.26	0.731
390.47	0.730
390.68	0.733
390.88	0.732
391.09	0.727
391.30	0.726
391.50	0.725
391.71	0.725
391.92	0.722
392.12	0.715
392.33	0.716
392.53	0.716
392.74	0.717
392.95	0.716
393.15	0.719
393.36	0.721
393.57	0.719
393.77	0.722
393.98	0.724
394.19	0.723
394.39	0.721
394.60	0.724
394.81	0.725
395.01	0.723
395.22	0.720
395.43	0.721
395.63	0.725
395.84	0.727
396.04	0.723
396.25	0.724
396.46	0.727
396.66	0.725
396.87	0.722
397.08	0.719
397.28	0.721
397.49	0.723
397.69	0.719
397.90	0.715
398.11	0.716
398.31	0.717
398.52	0.714
398.73	0.715
398.93	0.715
399.14	0.713
399.34	0.713
399.55	0.714
399.76	0.714
399.96	0.715
400.17	0.714
400.37	0.713
400.58	0.719
400.79	0.721
400.99	0.718
401.20	0.724
401.41	0.726
401.61	0.727
401.82	0.732
402.02	0.732
402.23	0.733
402.44	0.733
402.64	0.733
402.85	0.727
403.05	0.726
403.26	0.725
403.47	0.719
403.67	0.717
403.88	0.717
404.08	0.711
404.29	0.709
404.50	0.709
404.70	0.709
404.91	0.708
405.11	0.705
405.32	0.705
405.52	0.705
405.73	0.705
405.94	0.705
406.14	0.708
406.35	0.710
406.55	0.710
406.76	0.707
406.97	0.708
407.17	0.711
407.38	0.711
407.58	0.709
407.79	0.711
407.99	0.714
408.20	0.714
408.41	0.710
408.61	0.708
408.82	0.709
409.02	0.709
409.23	0.707
409.43	0.706
409.64	0.707
409.84	0.707
410.05	0.703
410.26	0.702
410.46	0.701
410.67	0.700
410.87	0.702
411.08	0.704
411.28	0.705
411.49	0.707
411.69	0.705
411.90	0.706
412.11	0.707
412.31	0.709
412.52	0.707
412.72	0.709
412.93	0.709
413.13	0.707
413.34	0.704
413.54	0.705
413.75	0.707
413.95	0.706
414.16	0.703
414.37	0.706
414.57	0.706
414.78	0.707
414.98	0.705
415.19	0.706
415.39	0.704
415.60	0.706
415.80	0.706
416.01	0.704
416.21	0.706
416.42	0.706
416.62	0.701
416.83	0.701
417.03	0.701
417.24	0.701
417.44	0.699
417.65	0.698
417.86	0.699
418.06	0.696
418.27	0.695
418.47	0.696
418.68	0.696
418.88	0.696
419.09	0.695
419.29	0.695
419.50	0.696
419.70	0.696
419.91	0.695
420.11	0.692
420.32	0.695
420.52	0.695
420.73	0.694
420.93	0.694
421.14	0.696
421.34	0.695
421.55	0.692
421.75	0.692
421.96	0.692
422.16	0.693
422.37	0.692
422.57	0.689
422.78	0.691
422.98	0.687
423.19	0.685
423.39	0.684
423.60	0.687
423.80	0.688
424.01	0.687
424.21	0.690
424.42	0.691
424.62	0.691
424.83	0.690
425.03	0.691
425.23	0.693
425.44	0.693
425.64	0.693
425.85	0.691
426.05	0.693
426.26	0.693
426.46	0.689
426.67	0.688
426.87	0.692
427.08	0.692
427.28	0.690
427.49	0.691
427.69	0.692
427.90	0.691
428.10	0.688
428.31	0.688
428.51	0.690
428.71	0.689
428.92	0.690
429.12	0.687
429.33	0.688
429.53	0.692
429.74	0.697
429.94	0.697
430.15	0.696
430.35	0.696
430.56	0.693
430.76	0.692
430.96	0.693
431.17	0.691
431.37	0.687
431.58	0.686
431.78	0.682
431.99	0.674
432.19	0.677
432.40	0.678
432.60	0.679
432.80	0.682
433.01	0.680
433.21	0.681
433.42	0.683
433.62	0.684
433.83	0.684
434.03	0.686
434.23	0.689
434.44	0.688
434.64	0.685
434.85	0.690
435.05	0.691
435.26	0.691
435.46	0.689
435.66	0.689
435.87	0.688
436.07	0.688
436.28	0.684
436.48	0.681
436.69	0.680
436.89	0.681
437.09	0.674
437.30	0.673
437.50	0.673
437.71	0.684
437.91	0.683
438.11	0.685
438.32	0.690
438.52	0.690
438.73	0.689
438.93	0.687
439.13	0.687
439.34	0.691
439.54	0.688
439.75	0.688
439.95	0.679
440.15	0.682
440.36	0.680
440.56	0.678
440.77	0.678
440.97	0.678
441.17	0.677
441.38	0.678
441.58	0.675
441.79	0.675
441.99	0.673
442.19	0.673
442.40	0.671
442.60	0.670
442.81	0.668
443.01	0.669
443.21	0.670
443.42	0.669
443.62	0.667
443.82	0.667
444.03	0.669
444.23	0.668
444.44	0.668
444.64	0.667
444.84	0.669
445.05	0.669
445.25	0.667
445.45	0.667
445.66	0.669
445.86	0.668
446.06	0.669
446.27	0.669
446.47	0.672
446.68	0.670
446.88	0.669
447.08	0.668
447.29	0.670
447.49	0.670
447.69	0.669
447.90	0.668
448.10	0.672
448.30	0.669
448.51	0.670
448.71	0.668
448.91	0.670
449.12	0.669
449.32	0.670
449.52	0.669
449.73	0.672
449.93	0.672
450.14	0.672
450.34	0.671
450.54	0.673
450.75	0.670
450.95	0.670
451.15	0.669
451.36	0.672
451.56	0.668
451.76	0.668
451.97	0.665
452.17	0.665
452.37	0.664
452.58	0.661
452.78	0.661
452.98	0.663
453.19	0.662
453.39	0.663
453.59	0.661
453.79	0.663
454.00	0.663
454.20	0.662
454.40	0.663
454.61	0.665
454.81	0.665
455.01	0.664
455.22	0.664
455.42	0.666
455.62	0.664
455.83	0.663
456.03	0.666
456.23	0.666
456.44	0.667
456.64	0.666
456.84	0.665
457.04	0.666
457.25	0.666
457.45	0.663
457.65	0.661
457.86	0.662
458.06	0.661
458.26	0.657
458.47	0.657
458.67	0.658
458.87	0.658
459.07	0.656
459.28	0.658
459.48	0.661
459.68	0.661
459.89	0.660
460.09	0.658
460.29	0.659
460.49	0.661
460.70	0.659
460.90	0.659
461.10	0.661
461.31	0.660
461.51	0.657
461.71	0.658
461.91	0.659
462.12	0.660
462.32	0.659
462.52	0.660
462.72	0.663
462.93	0.663
463.13	0.662
463.33	0.662
463.53	0.664
463.74	0.663
463.94	0.659
464.14	0.659
464.35	0.660
464.55	0.660
464.75	0.658
464.95	0.655
465.16	0.658
465.36	0.657
465.56	0.656
465.76	0.655
465.97	0.656
466.17	0.657
466.37	0.655
466.57	0.656
466.78	0.656
466.98	0.656
467.18	0.655
467.38	0.653
467.59	0.655
467.79	0.656
467.99	0.655
468.19	0.656
468.39	0.659
468.60	0.658
468.80	0.657
469.00	0.658
469.20	0.659
469.41	0.659
469.61	0.659
469.81	0.659
470.01	0.659
470.22	0.659
470.42	0.657
470.62	0.656
470.82	0.658
471.02	0.657
471.23	0.655
471.43	0.655
471.63	0.658
471.83	0.657
472.04	0.655
472.24	0.654
472.44	0.659
472.64	0.660
472.84	0.657
473.05	0.657
473.25	0.659
473.45	0.658
473.65	0.657
473.85	0.657
474.06	0.659
474.26	0.658
474.46	0.659
474.66	0.655
474.86	0.655
475.07	0.656
475.27	0.654
475.47	0.652
475.67	0.652
475.87	0.654
476.08	0.651
476.28	0.652
476.48	0.654
476.68	0.653
476.88	0.651
477.09	0.652
477.29	0.654
477.49	0.654
477.69	0.653
477.89	0.653
478.09	0.653
478.30	0.655
478.50	0.651
478.70	0.651
478.90	0.651
479.10	0.653
479.31	0.654
479.51	0.652
479.71	0.652
479.91	0.653
480.11	0.652
480.31	0.652
480.52	0.651
480.72	0.651
480.92	0.650
481.12	0.649
481.32	0.647
481.52	0.645
481.72	0.646
481.93	0.649
482.13	0.650
482.33	0.649
482.53	0.646
482.73	0.647
482.93	0.648
483.14	0.648
483.34	0.647
483.54	0.648
483.74	0.647
483.94	0.646
484.14	0.642
484.34	0.642
484.55	0.642
484.75	0.642
484.95	0.640
485.15	0.640
485.35	0.640
485.55	0.639
485.75	0.637
485.96	0.637
486.16	0.639
486.36	0.638
486.56	0.636
486.76	0.637
486.96	0.637
487.16	0.637
487.36	0.635
487.57	0.634
487.77	0.636
487.97	0.636
488.17	0.634
488.37	0.634
488.57	0.635
488.77	0.635
488.97	0.634
489.18	0.633
489.38	0.636
489.58	0.636
489.78	0.636
489.98	0.635
490.18	0.635
490.38	0.635
490.58	0.634
490.78	0.635
490.98	0.636
491.19	0.637
491.39	0.636
491.59	0.635
491.79	0.638
491.99	0.638
492.19	0.638
492.39	0.641
492.59	0.641
492.79	0.642
492.99	0.643
493.20	0.643
493.40	0.643
493.60	0.645
493.80	0.643
494.00	0.641
494.20	0.642
494.40	0.642
494.60	0.639
494.80	0.643
495.00	0.642
495.20	0.640
495.40	0.639
495.61	0.641
495.81	0.641
496.01	0.644
496.21	0.644
496.41	0.643
496.61	0.644
496.81	0.642
497.01	0.637
497.21	0.636
497.41	0.637
497.61	0.637
497.81	0.635
498.01	0.635
498.21	0.633
498.41	0.630
498.61	0.630
498.82	0.632
499.02	0.634
499.22	0.636
499.42	0.635
499.62	0.636
499.82	0.637
500.02	0.638
500.22	0.637
500.42	0.639
500.62	0.640
500.82	0.641
501.02	0.639
501.22	0.638
501.42	0.638
501.62	0.640
501.82	0.639
502.02	0.639
502.22	0.639
502.42	0.641
502.62	0.638
502.82	0.639
503.02	0.639
503.22	0.639
503.42	0.637
503.63	0.637
503.83	0.635
504.03	0.634
504.23	0.633
504.43	0.633
504.63	0.634
504.83	0.634
505.03	0.633
505.23	0.634
505.43	0.636
505.63	0.636
505.83	0.636
506.03	0.637
506.23	0.639
506.43	0.640
506.63	0.638
506.83	0.637
507.03	0.639
507.23	0.639
507.43	0.636
507.63	0.637
507.83	0.637
508.03	0.638
508.23	0.637
508.43	0.636
508.63	0.638
508.83	0.638
509.03	0.639
509.23	0.638
509.43	0.639
509.63	0.639
509.83	0.638
510.03	0.641
510.23	0.642
510.43	0.643
510.63	0.643
510.83	0.643
511.03	0.644
511.23	0.642
511.43	0.641
511.63	0.642
511.83	0.644
512.03	0.644
512.22	0.641
512.42	0.641
512.62	0.642
512.82	0.642
513.02	0.640
513.22	0.641
513.42	0.642
513.62	0.646
513.82	0.644
514.02	0.643
514.22	0.644
514.42	0.644
514.62	0.644
514.82	0.644
515.02	0.647
515.22	0.650
515.42	0.648
515.62	0.650
515.82	0.649
516.02	0.650
516.22	0.651
516.42	0.652
516.62	0.654
516.82	0.655
517.01	0.653
517.21	0.653
517.41	0.656
517.61	0.657
517.81	0.653
518.01	0.652
518.21	0.653
518.41	0.651
518.61	0.651
518.81	0.651
519.01	0.652
519.21	0.652
519.41	0.651
519.61	0.645
519.81	0.648
520.00	0.648
520.20	0.649
520.40	0.651
520.60	0.652
520.80	0.651
521.00	0.651
521.20	0.652
521.40	0.657
521.60	0.657
521.80	0.657
522.00	0.657
522.20	0.658
522.39	0.658
522.59	0.655
522.79	0.657
522.99	0.658
523.19	0.656
523.39	0.655
523.59	0.653
523.79	0.656
523.99	0.658
524.19	0.657
524.38	0.656
524.58	0.658
524.78	0.659
524.98	0.657
525.18	0.659
525.38	0.661
525.58	0.661
525.78	0.659
525.98	0.657
526.18	0.658
526.37	0.657
526.57	0.659
526.77	0.658
526.97	0.659
527.17	0.659
527.37	0.655
527.57	0.657
527.77	0.658
527.96	0.658
528.16	0.657
528.36	0.657
528.56	0.659
528.76	0.657
528.96	0.656
529.16	0.657
529.36	0.660
529.55	0.660
529.75	0.657
529.95	0.657
530.15	0.659
530.35	0.662
530.55	0.659
530.75	0.660
530.94	0.661
531.14	0.661
531.34	0.659
531.54	0.657
531.74	0.660
531.94	0.664
532.13	0.662
532.33	0.663
532.53	0.662
532.73	0.662
532.93	0.660
533.13	0.662
533.33	0.662
533.52	0.662
533.72	0.666
533.92	0.664
534.12	0.662
534.32	0.662
534.52	0.660
534.71	0.661
534.91	0.664
535.11	0.666
535.31	0.664
535.51	0.666
535.71	0.668
535.90	0.665
536.10	0.666
536.30	0.668
536.50	0.669
536.70	0.670
536.89	0.667
537.09	0.666
537.29	0.667
537.49	0.668
537.69	0.666
537.89	0.667
538.08	0.666
538.28	0.664
538.48	0.665
538.68	0.666
538.88	0.668
539.07	0.668
539.27	0.666
539.47	0.665
539.67	0.666
539.87	0.667
540.06	0.664
540.26	0.666
540.46	0.668
540.66	0.665
540.86	0.662
541.05	0.662
541.25	0.664
541.45	0.665
541.65	0.663
541.84	0.665
542.04	0.666
542.24	0.667
542.44	0.666
542.64	0.667
542.83	0.670
543.03	0.671
543.23	0.668
543.43	0.668
543.62	0.669
543.82	0.669
544.02	0.668
544.22	0.668
544.42	0.671
544.61	0.671
544.81	0.668
545.01	0.667
545.21	0.669
545.40	0.669
545.60	0.667
545.80	0.671
546.00	0.672
546.19	0.672
546.39	0.670
546.59	0.668
546.79	0.670
546.98	0.670
547.18	0.669
547.38	0.670
547.58	0.673
547.77	0.673
547.97	0.669
548.17	0.670
548.37	0.671
548.56	0.672
548.76	0.671
548.96	0.673
549.16	0.676
549.35	0.674
549.55	0.672
549.75	0.672
549.95	0.675
550.14	0.676
550.34	0.674
550.54	0.679
550.73	0.682
550.93	0.683
551.13	0.679
551.33	0.678
551.52	0.680
551.72	0.681
551.92	0.679
552.12	0.679
552.31	0.680
552.51	0.680
552.71	0.675
552.90	0.674
553.10	0.675
553.30	0.676
553.50	0.675
553.69	0.676
553.89	0.677
554.09	0.676
554.28	0.673
554.48	0.675
554.68	0.677
554.87	0.677
555.07	0.673
555.27	0.674
555.47	0.674
555.66	0.675
555.86	0.674
556.06	0.676
556.25	0.678
556.45	0.685
556.65	0.683
556.84	0.687
557.04	0.691
557.24	0.692
557.43	0.692
557.63	0.695
557.83	0.697
558.02	0.697
558.22	0.701
558.42	0.702
558.61	0.695
558.81	0.695
559.01	0.691
559.21	0.690
559.40	0.692
559.60	0.692
559.80	0.688
559.99	0.689
560.19	0.692
560.39	0.685
560.58	0.683
560.78	0.683
560.97	0.687
561.17	0.685
561.37	0.683
561.56	0.683
561.76	0.684
561.96	0.684
562.15	0.681
562.35	0.683
562.55	0.684
562.74	0.684
562.94	0.683
563.14	0.681
563.33	0.682
563.53	0.682
563.73	0.679
563.92	0.681
564.12	0.684
564.31	0.686
564.51	0.684
564.71	0.686
564.90	0.689
565.10	0.689
565.30	0.692
565.49	0.693
565.69	0.696
565.89	0.697
566.08	0.693
566.28	0.694
566.47	0.696
566.67	0.694
566.87	0.691
567.06	0.692
567.26	0.699
567.46	0.694
567.65	0.693
567.85	0.694
568.04	0.697
568.24	0.697
568.44	0.694
568.63	0.693
568.83	0.695
569.02	0.694
569.22	0.690
569.42	0.686
569.61	0.688
569.81	0.687
570.00	0.685
570.20	0.686
570.40	0.687
570.59	0.687
570.79	0.685
570.98	0.683
571.18	0.685
571.38	0.684
571.57	0.682
571.77	0.680
571.96	0.683
572.16	0.681
572.35	0.675
572.55	0.677
572.75	0.675
572.94	0.674
573.14	0.673
573.33	0.674
573.53	0.674
573.73	0.673
573.92	0.671
574.12	0.669
574.31	0.672
574.51	0.673
574.70	0.670
574.90	0.671
575.09	0.674
575.29	0.674
575.49	0.671
575.68	0.672
575.88	0.673
576.07	0.674
576.27	0.672
576.46	0.670
576.66	0.670
576.86	0.669
577.05	0.666
577.25	0.664
577.44	0.666
577.64	0.666
577.83	0.664
578.03	0.666
578.22	0.665
578.42	0.665
578.61	0.663
578.81	0.664
579.00	0.665
579.20	0.664
579.40	0.663
579.59	0.662
579.79	0.662
579.98	0.662
580.18	0.661
580.37	0.661
580.57	0.664
580.76	0.668
580.96	0.666
581.15	0.667
581.35	0.669
581.54	0.669
581.74	0.668
581.93	0.669
582.13	0.670
582.32	0.667
582.52	0.665
582.71	0.664
582.91	0.660
583.10	0.660
583.30	0.659
583.49	0.657
583.69	0.661
583.88	0.662
584.08	0.661
584.27	0.664
584.47	0.667
584.66	0.668
584.86	0.667
585.05	0.669
585.25	0.672
585.44	0.671
585.64	0.670
585.83	0.667
586.03	0.668
586.22	0.666
586.42	0.662
586.61	0.664
586.81	0.666
587.00	0.666
587.20	0.663
587.39	0.664
587.59	0.666
587.78	0.667
587.98	0.668
588.17	0.668
588.37	0.671
588.56	0.673
588.76	0.669
588.95	0.669
589.15	0.673
589.34	0.675
589.54	0.674
589.73	0.674
589.92	0.678
590.12	0.678
590.31	0.675
590.51	0.680
590.70	0.682
590.90	0.683
591.09	0.681
591.29	0.680
591.48	0.679
591.68	0.680
591.87	0.678
592.06	0.677
592.26	0.679
592.45	0.678
592.65	0.672
592.84	0.672
593.04	0.674
593.23	0.676
593.43	0.673
593.62	0.673
593.81	0.674
594.01	0.673
594.20	0.671
594.40	0.670
594.59	0.673
594.79	0.674
594.98	0.672
595.17	0.671
595.37	0.672
595.56	0.674
595.76	0.673
595.95	0.675
596.14	0.677
596.34	0.679
596.53	0.677
596.73	0.679
596.92	0.680
597.12	0.682
597.31	0.682
597.50	0.682
597.70	0.684
597.89	0.683
598.09	0.679
598.28	0.681
598.47	0.683
598.67	0.682
598.86	0.678
599.06	0.680
599.25	0.680
599.44	0.679
599.64	0.676
599.83	0.673
600.03	0.676
600.22	0.676
600.41	0.676
600.61	0.673
600.80	0.676
601.00	0.676
601.19	0.672
601.38	0.671
601.58	0.673
601.77	0.673
601.96	0.676
602.16	0.676
602.35	0.685
602.55	0.682
602.74	0.682
602.93	0.684
603.13	0.689
603.32	0.690
603.51	0.690
603.71	0.693
603.90	0.696
604.09	0.697
604.29	0.694
604.48	0.689
604.68	0.691
604.87	0.689
605.06	0.686
605.26	0.683
605.45	0.683
605.64	0.682
605.84	0.677
606.03	0.677
606.22	0.675
606.42	0.674
606.61	0.670
606.80	0.670
607.00	0.672
607.19	0.672
607.38	0.671
607.58	0.673
607.77	0.676
607.96	0.676
608.16	0.674
608.35	0.679
608.54	0.683
608.74	0.686
608.93	0.691
609.12	0.694
609.32	0.696
609.51	0.699
609.70	0.698
609.90	0.700
610.09	0.704
610.28	0.710
610.48	0.703
610.67	0.705
610.86	0.706
611.06	0.699
611.25	0.697
611.44	0.697
611.64	0.697
611.83	0.700
612.02	0.695
612.21	0.694
612.41	0.692
612.60	0.690
612.79	0.686
612.99	0.686
613.18	0.688
613.37	0.686
613.57	0.683
613.76	0.685
613.95	0.683
614.14	0.683
614.34	0.680
614.53	0.682
614.72	0.686
614.92	0.686
615.11	0.683
615.30	0.680
615.49	0.681
615.69	0.684
615.88	0.680
616.07	0.681
616.26	0.684
616.46	0.685
616.65	0.681
616.84	0.680
617.04	0.681
617.23	0.684
617.42	0.685
617.61	0.689
617.81	0.689
618.00	0.691
618.19	0.689
618.38	0.693
618.58	0.697
618.77	0.699
618.96	0.698
619.15	0.701
619.35	0.702
619.54	0.703
619.73	0.698
619.92	0.701
620.12	0.705
620.31	0.705
620.50	0.700
620.69	0.700
620.89	0.703
621.08	0.703
621.27	0.702
621.46	0.701
621.66	0.705
621.85	0.706
622.04	0.702
622.23	0.704
622.43	0.705
622.62	0.705
622.81	0.703
623.00	0.703
623.19	0.706
623.39	0.706
623.58	0.702
623.77	0.700
623.96	0.703
624.16	0.704
624.35	0.698
624.54	0.700
624.73	0.704
624.92	0.702
625.12	0.700
625.31	0.700
625.50	0.703
625.69	0.704
625.88	0.700
626.08	0.699
626.27	0.701
626.46	0.701
626.65	0.698
626.84	0.698
627.04	0.704
627.23	0.705
627.42	0.700
627.61	0.702
627.80	0.705
628.00	0.706
628.19	0.704
628.38	0.708
628.57	0.710
628.76	0.710
628.96	0.706
629.15	0.706
629.34	0.708
629.53	0.709
629.72	0.703
629.91	0.703
630.11	0.708
630.30	0.709
630.49	0.711
630.68	0.711
630.87	0.715
631.06	0.717
631.26	0.712
631.45	0.714
631.64	0.723
631.83	0.726
632.02	0.724
632.21	0.722
632.41	0.729
632.60	0.724
632.79	0.722
632.98	0.723
633.17	0.725
633.36	0.726
633.55	0.722
633.75	0.718
633.94	0.719
634.13	0.718
634.32	0.716
634.51	0.710
634.70	0.712
634.89	0.712
635.09	0.708
635.28	0.708
635.47	0.709
635.66	0.712
635.85	0.707
636.04	0.709
636.23	0.713
636.43	0.714
636.62	0.712
636.81	0.711
637.00	0.713
637.19	0.716
637.38	0.712
637.57	0.712
637.76	0.714
637.95	0.715
638.15	0.712
638.34	0.709
638.53	0.712
638.72	0.714
638.91	0.712
639.10	0.710
639.29	0.710
639.48	0.712
639.67	0.712
639.87	0.711
640.06	0.717
640.25	0.717
640.44	0.717
640.63	0.718
640.82	0.722
641.01	0.722
641.20	0.722
641.39	0.723
641.58	0.725
641.78	0.723
641.97	0.719
642.16	0.732
642.35	0.732
642.54	0.731
642.73	0.726
642.92	0.724
643.11	0.727
643.30	0.726
643.49	0.721
643.68	0.723
643.87	0.725
644.06	0.724
644.25	0.704
644.45	0.707
644.64	0.708
644.83	0.709
645.02	0.705
645.21	0.705
645.40	0.706
645.59	0.706
645.78	0.700
645.97	0.703
646.16	0.705
646.35	0.704
646.54	0.701
646.73	0.703
646.92	0.705
647.11	0.703
647.30	0.699
647.49	0.701
647.68	0.701
647.88	0.700
648.07	0.693
648.26	0.696
648.45	0.699
648.64	0.695
648.83	0.693
649.02	0.695
649.21	0.705
649.40	0.704
649.59	0.699
649.78	0.700
649.97	0.714
650.16	0.713
650.35	0.707
650.54	0.709
650.73	0.718
650.92	0.715
651.11	0.708
651.30	0.706
651.49	0.711
651.68	0.712
651.87	0.708
652.06	0.699
652.25	0.702
652.44	0.705
652.63	0.703
652.82	0.702
653.01	0.702
653.20	0.700
653.39	0.688
653.58	0.685
653.77	0.685
653.96	0.680
654.15	0.672
654.34	0.671
654.53	0.666
654.72	0.660
654.91	0.651
655.10	0.647
655.29	0.646
655.48	0.643
655.67	0.638
655.86	0.636
656.05	0.634
656.24	0.634
656.43	0.628
656.62	0.627
656.81	0.627
657.00	0.625
657.19	0.622
657.38	0.621
657.57	0.621
657.76	0.623
657.95	0.621
658.14	0.624
658.33	0.626
658.51	0.632
658.70	0.631
658.89	0.632
659.08	0.642
659.27	0.650
659.46	0.650
659.65	0.656
659.84	0.659
660.03	0.662
660.22	0.663
660.41	0.668
660.60	0.667
660.79	0.668
660.98	0.674
661.17	0.673
661.36	0.672
661.55	0.672
661.74	0.670
661.92	0.673
662.11	0.675
662.30	0.673
662.49	0.666
662.68	0.666
662.87	0.670
663.06	0.664
663.25	0.664
663.44	0.666
663.63	0.667
663.82	0.666
664.01	0.661
664.20	0.659
664.38	0.661
664.57	0.661
664.76	0.661
664.95	0.662
665.14	0.668
665.33	0.662
665.52	0.669
665.71	0.673
665.90	0.672
666.09	0.674
666.28	0.672
666.46	0.671
666.65	0.672
666.84	0.670
667.03	0.664
667.22	0.661
667.41	0.665
667.60	0.654
667.79	0.648
667.98	0.649
668.16	0.650
668.35	0.650
668.54	0.646
668.73	0.647
668.92	0.647
669.11	0.646
669.30	0.641
669.49	0.637
669.67	0.639
669.86	0.641
670.05	0.639
670.24	0.637
670.43	0.635
670.62	0.634
670.81	0.629
671.00	0.630
671.18	0.630
671.37	0.629
671.56	0.627
671.75	0.626
671.94	0.623
672.13	0.620
672.32	0.615
672.50	0.615
672.69	0.615
672.88	0.615
673.07	0.611
673.26	0.613
673.45	0.615
673.63	0.614
673.82	0.611
674.01	0.612
674.20	0.612
674.39	0.612
674.58	0.611
674.76	0.611
674.95	0.610
675.14	0.610
675.33	0.605
675.52	0.603
675.71	0.604
675.89	0.603
676.08	0.599
676.27	0.600
676.46	0.601
676.65	0.600
676.84	0.599
677.02	0.601
677.21	0.603
677.40	0.602
677.59	0.601
677.78	0.601
677.96	0.604
678.15	0.603
678.34	0.600
678.53	0.601
678.72	0.600
678.90	0.597
679.09	0.592
679.28	0.589
679.47	0.589
679.66	0.588
679.84	0.585
680.03	0.582
680.22	0.582
680.41	0.584
680.60	0.579
680.78	0.579
680.97	0.582
681.16	0.583
681.35	0.581
681.53	0.580
681.72	0.581
681.91	0.583
682.10	0.581
682.29	0.584
682.47	0.581
682.66	0.581
682.85	0.580
683.04	0.578
683.22	0.578
683.41	0.579
683.60	0.578
683.79	0.579
683.97	0.577
684.16	0.576
684.35	0.572
684.54	0.573
684.72	0.574
684.91	0.575
685.10	0.573
685.29	0.574
685.47	0.571
685.66	0.570
685.85	0.566
686.04	0.566
686.22	0.569
686.41	0.571
686.60	0.568
686.79	0.570
686.97	0.571
687.16	0.572
687.35	0.569
687.54	0.573
687.72	0.578
687.91	0.578
688.10	0.579
688.29	0.579
688.47	0.577
688.66	0.577
688.85	0.574
689.03	0.571
689.22	0.576
689.41	0.576
689.60	0.571
689.78	0.568
689.97	0.569
690.16	0.566
690.34	0.563
690.53	0.563
690.72	0.563
690.91	0.561
691.09	0.559
691.28	0.553
691.47	0.552
691.65	0.551
691.84	0.548
692.03	0.547
692.21	0.545
692.40	0.544
692.59	0.542
692.77	0.541
692.96	0.542
693.15	0.542
693.34	0.540
693.52	0.540
693.71	0.541
693.90	0.542
694.08	0.542
694.27	0.543
694.46	0.552
694.64	0.553
694.83	0.553
695.02	0.552
695.20	0.552
695.39	0.551
695.58	0.551
695.76	0.552
695.95	0.552
696.14	0.551
696.32	0.549
696.51	0.539
696.70	0.539
696.88	0.540
697.07	0.538
697.26	0.540
697.44	0.541
697.63	0.540
697.81	0.538
698.00	0.537
698.19	0.536
698.37	0.535
698.56	0.534
698.75	0.534
698.93	0.534
699.12	0.533
699.31	0.532
699.49	0.532
699.68	0.533
699.87	0.535
700.05	0.535
700.24	0.535
700.42	0.537
700.61	0.536
700.80	0.535
700.98	0.535
701.17	0.537
701.36	0.535
701.54	0.535
701.73	0.535
701.91	0.534
702.10	0.533
702.29	0.532
702.47	0.531
702.66	0.533
702.84	0.534
703.03	0.532
703.22	0.533
703.40	0.533
703.59	0.534
703.77	0.534
703.96	0.533
704.15	0.534
704.33	0.534
704.52	0.533
704.70	0.532
704.89	0.532
705.08	0.530
705.26	0.527
705.45	0.527
705.63	0.526
705.82	0.523
706.00	0.521
706.19	0.520
706.38	0.520
706.56	0.520
706.75	0.518
706.93	0.516
707.12	0.518
707.30	0.519
707.49	0.516
707.68	0.514
707.86	0.514
708.05	0.514
708.23	0.511
708.42	0.512
708.60	0.515
708.79	0.515
708.98	0.513
709.16	0.513
709.35	0.514
709.53	0.519
709.72	0.518
709.90	0.520
710.09	0.522
710.27	0.524
710.46	0.528
710.64	0.526
710.83	0.528
711.02	0.529
711.20	0.528
711.39	0.527
711.57	0.524
711.76	0.524
711.94	0.522
712.13	0.523
712.31	0.522
712.50	0.517
712.68	0.514
712.87	0.515
713.05	0.516
713.24	0.517
713.42	0.516
713.61	0.516
713.79	0.517
713.98	0.518
714.16	0.518
714.35	0.517
714.54	0.519
714.72	0.519
714.91	0.517
715.09	0.523
715.28	0.526
715.46	0.526
715.65	0.524
715.83	0.523
716.02	0.526
716.20	0.523
716.39	0.523
716.57	0.524
716.76	0.526
716.94	0.526
717.12	0.518
717.31	0.519
717.49	0.522
717.68	0.524
717.86	0.523
718.05	0.525
718.23	0.527
718.42	0.530
718.60	0.530
718.79	0.538
718.97	0.541
719.16	0.542
719.34	0.539
719.53	0.538
719.71	0.539
719.90	0.541
720.08	0.538
720.27	0.538
720.45	0.537
720.63	0.536
720.82	0.530
721.00	0.532
721.19	0.535
721.37	0.534
721.56	0.535
721.74	0.537
721.93	0.545
722.11	0.553
722.30	0.552
722.48	0.557
722.66	0.559
722.85	0.559
723.03	0.560
723.22	0.557
723.40	0.561
723.59	0.560
723.77	0.564
723.95	0.557
724.14	0.557
724.32	0.559
724.51	0.557
724.69	0.558
724.88	0.559
725.06	0.557
725.24	0.557
725.43	0.559
725.61	0.560
725.80	0.555
725.98	0.553
726.16	0.550
726.35	0.556
726.53	0.555
726.72	0.555
726.90	0.565
727.09	0.565
727.27	0.571
727.45	0.568
727.64	0.577
727.82	0.586
728.01	0.592
728.19	0.589
728.37	0.594
728.56	0.597
728.74	0.603
728.92	0.591
729.11	0.593
729.29	0.591
729.48	0.594
729.66	0.584
729.84	0.582
730.03	0.584
730.21	0.586
730.40	0.577
730.58	0.579
730.76	0.579
730.95	0.581
731.13	0.581
731.31	0.595
731.50	0.604
731.68	0.608
731.86	0.604
732.05	0.617
732.23	0.621
732.42	0.623
732.60	0.626
732.78	0.630
732.97	0.649
733.15	0.656
733.33	0.643
733.52	0.651
733.70	0.660
733.88	0.670
734.07	0.657
734.25	0.681
734.43	0.691
734.62	0.693
734.80	0.688
734.98	0.678
735.17	0.683
735.35	0.689
735.53	0.677
735.72	0.679
735.90	0.700
736.08	0.718
736.27	0.695
736.45	0.703
736.63	0.714
736.82	0.723
737.00	0.722
737.18	0.734
737.37	0.764
737.55	0.786
737.73	0.779
737.92	0.780
738.10	0.776
738.28	0.797
738.46	0.783
738.65	0.799
738.83	0.819
739.01	0.870
739.20	0.856
739.38	0.840
739.56	0.831
739.75	0.836
739.93	0.804
740.11	0.829
740.29	0.828
740.48	0.838
740.66	0.814
740.84	0.807
741.03	0.776
741.21	0.788
741.39	0.771
741.57	0.786
741.76	0.803
741.94	0.813
742.12	0.778
742.31	0.782
742.49	0.802
742.67	0.828
742.85	0.839
743.04	0.840
743.22	0.850
743.40	0.901
743.58	0.880
743.77	0.896
743.95	0.928
744.13	0.975
744.31	0.960
744.50	0.948
744.68	0.944
744.86	0.923
745.04	0.935
745.23	0.996
745.41	0.977
745.59	0.982
745.77	0.946
745.96	0.931
746.14	0.938
746.32	0.933
746.50	0.927
746.69	0.909
746.87	0.918
747.05	0.902
747.23	0.831
747.42	0.816
747.60	0.847
747.78	0.851
747.96	0.881
748.14	0.843
748.33	0.872
748.51	0.863
748.69	0.856
748.87	0.886
749.06	0.885
749.24	0.884
749.42	0.872
749.60	0.852
749.78	0.863
749.97	0.816
750.15	0.806
750.33	0.806
750.51	0.835
750.69	0.839
750.88	0.840
751.06	0.847
751.24	0.871
751.42	0.863
751.60	0.852
751.79	0.916
751.97	0.962
752.15	0.963
752.33	0.934
752.51	0.990
752.69	1.004
752.88	0.976
753.06	1.023
753.24	1.003
753.42	1.033
753.60	1.186
753.78	1.053
753.97	1.070
754.15	1.085
754.33	1.112
754.51	0.996
754.69	0.980
754.87	1.004
755.06	0.938
755.24	0.938
755.42	0.948
755.60	0.863
755.78	0.873
755.96	0.821
756.15	0.823
756.33	0.828
756.51	0.848
756.69	0.839
756.87	0.809
757.05	0.828
757.23	0.814
757.42	0.783
757.60	0.777
757.78	0.766
757.96	0.767
758.14	0.752
758.32	0.735
758.50	0.747
758.69	0.744
758.87	0.737
759.05	0.741
759.23	0.748
759.41	0.748
759.59	0.742
759.77	0.762
759.95	0.788
760.13	0.831
760.32	0.833
760.50	0.830
760.68	0.852
760.86	0.852
761.04	0.826
761.22	0.832
761.40	0.875
761.58	0.878
761.76	0.851
761.95	0.830
762.13	0.789
762.31	0.788
762.49	0.757
762.67	0.776
762.85	0.786
763.03	0.779
763.21	0.760
763.39	0.745
763.57	0.748
763.75	0.745
763.94	0.733
764.12	0.737
764.30	0.759
764.48	0.765
764.66	0.729
764.84	0.729
765.02	0.769
765.20	0.774
765.38	0.753
765.56	0.757
765.74	0.795
765.92	0.796
766.10	0.800
766.28	0.794
766.46	0.822
766.65	0.822
766.83	0.811
767.01	0.795
767.19	0.805
767.37	0.806
767.55	0.791
767.73	0.771
767.91	0.772
768.09	0.764
768.27	0.752
768.45	0.738
768.63	0.742
768.81	0.743
768.99	0.718
769.17	0.740
769.35	0.755
769.53	0.754
769.71	0.738
769.89	0.748
770.07	0.752
770.25	0.733
770.43	0.715
770.61	0.738
770.79	0.744
770.97	0.755
771.15	0.726
771.33	0.727
771.51	0.729
771.69	0.737
771.87	0.744
772.05	0.749
772.24	0.760
772.42	0.768
772.60	0.746
772.78	0.805
772.96	0.833
773.14	0.827
773.32	0.806
773.49	0.813
773.67	0.810
773.85	0.790
774.03	0.778
774.21	0.809
774.39	0.823
774.57	0.844
774.75	0.773
774.93	0.765
775.11	0.786
775.29	0.792
775.47	0.791
775.65	0.801
775.83	0.819
776.01	0.839
776.19	0.795
776.37	0.795
776.55	0.795
776.73	0.792
776.91	0.788
777.09	0.774
777.27	0.773
777.45	0.764
777.63	0.742
777.81	0.737
777.99	0.727
778.17	0.725
778.35	0.705
778.53	0.695
778.71	0.702
778.89	0.689
779.07	0.678
779.24	0.684
779.42	0.686
779.60	0.705
779.78	0.702
779.96	0.705
780.14	0.713
780.32	0.733
780.50	0.714
780.68	0.714
780.86	0.706
781.04	0.722
781.22	0.725
781.40	0.732
781.58	0.722
781.75	0.716
781.93	0.700
782.11	0.702
782.29	0.689
782.47	0.690
782.65	0.677
782.83	0.704
783.01	0.696
783.19	0.692
783.37	0.679
783.55	0.681
783.72	0.696
783.90	0.707
784.08	0.697
784.26	0.707
784.44	0.726
784.62	0.730
784.80	0.698
784.98	0.705
785.16	0.710
785.33	0.724
785.51	0.711
785.69	0.698
785.87	0.697
786.05	0.709
786.23	0.704
786.41	0.702
786.59	0.711
786.77	0.712
786.94	0.700
787.12	0.703
787.30	0.704
787.48	0.703
787.66	0.694
787.84	0.695
788.02	0.686
788.19	0.685
788.37	0.670
788.55	0.670
788.73	0.670
788.91	0.666
789.09	0.650
789.27	0.640
789.44	0.650
789.62	0.654
789.80	0.662
789.98	0.684
790.16	0.670
790.34	0.668
790.51	0.655
790.69	0.674
790.87	0.680
791.05	0.677
791.23	0.671
791.41	0.673
791.58	0.681
791.76	0.661
791.94	0.635
792.12	0.646
792.30	0.648
792.48	0.647
792.65	0.638
792.83	0.646
793.01	0.653
793.19	0.651
793.37	0.638
793.54	0.634
793.72	0.646
793.90	0.644
794.08	0.632
794.26	0.633
794.43	0.642
794.61	0.627
794.79	0.614
794.97	0.613
795.15	0.618
795.32	0.620
795.50	0.610
795.68	0.605
795.86	0.608
796.04	0.609
796.21	0.603
796.39	0.600
796.57	0.613
796.75	0.623
796.92	0.625
797.10	0.630
797.28	0.632
797.46	0.636
797.64	0.637
797.81	0.644
797.99	0.649
798.17	0.654
798.35	0.649
798.52	0.653
798.70	0.647
798.88	0.655
799.06	0.653
799.23	0.655
799.41	0.662
799.59	0.655
799.77	0.644
799.94	0.653
800.12	0.659
800.30	0.676
800.48	0.673
800.65	0.671
800.83	0.660
801.01	0.654
801.19	0.655
801.36	0.652
801.54	0.656
801.72	0.664
801.90	0.651
802.07	0.648
802.25	0.634
802.43	0.620
802.60	0.616
802.78	0.624
802.96	0.628
803.14	0.622
803.31	0.619
803.49	0.619
803.67	0.617
803.84	0.622
804.02	0.612
804.20	0.615
804.38	0.621
804.55	0.622
804.73	0.607
804.91	0.606
805.08	0.619
805.26	0.615
805.44	0.677
805.61	0.680
805.79	0.680
805.97	0.681
806.15	0.673
806.32	0.668
806.50	0.672
806.68	0.674
806.85	0.666
807.03	0.656
807.21	0.671
807.38	0.607
807.56	0.596
807.74	0.605
807.91	0.612
808.09	0.614
808.27	0.630
808.44	0.654
808.62	0.662
808.80	0.662
808.97	0.657
809.15	0.652
809.33	0.668
809.50	0.676
809.68	0.662
809.86	0.668
810.03	0.700
810.21	0.681
810.39	0.667
810.56	0.672
810.74	0.696
810.91	0.766
811.09	0.756
811.27	0.776
811.44	0.780
811.62	0.781
811.80	0.765
811.97	0.733
812.15	0.732
812.33	0.725
812.50	0.714
812.68	0.702
812.85	0.650
813.03	0.653
813.21	0.623
813.38	0.618
813.56	0.621
813.74	0.631
813.91	0.639
814.09	0.669
814.26	0.663
814.44	0.665
814.62	0.654
814.79	0.655
814.97	0.659
815.14	0.662
815.32	0.666
815.50	0.684
815.67	0.687
815.85	0.678
816.02	0.668
816.20	0.674
816.38	0.688
816.55	0.696
816.73	0.698
816.90	0.706
817.08	0.737
817.26	0.742
817.43	0.720
817.61	0.744
817.78	0.764
817.96	0.741
818.13	0.732
818.31	0.735
818.49	0.745
818.66	0.733
818.84	0.721
819.01	0.701
819.19	0.708
819.36	0.711
819.54	0.682
819.71	0.719
819.89	0.735
820.07	0.747
820.24	0.740
820.42	0.742
820.59	0.764
820.77	0.785
820.94	0.775
821.12	0.793
821.29	0.806
821.47	0.805
821.64	0.746
821.82	0.756
822.00	0.753
822.17	0.748
822.35	0.742
822.52	0.742
822.70	0.729
822.87	0.739
823.05	0.719
823.22	0.731
823.40	0.755
823.57	0.777
823.75	0.760
823.92	0.785
824.10	0.806
824.27	0.844
824.45	0.835
824.62	0.900
824.80	0.910
824.97	0.922
825.15	0.907
825.32	0.925
825.50	0.922
825.67	0.927
825.85	0.906
826.02	0.926
826.20	0.947
826.37	1.063
826.55	0.981
826.72	1.164
826.90	1.232
827.07	1.294
827.25	1.234
827.42	1.394
827.60	1.541
827.77	1.721
827.95	1.664
828.12	1.772
828.30	1.408
828.47	1.545
828.65	1.199
828.82	1.235
829.00	1.268
829.17	1.341
829.34	1.338
829.52	1.384
829.69	-0.000
829.87	-0.000
830.04	-0.000
830.22	-0.000
830.39	-0.000
830.57	-0.000
830.74	-0.000
830.92	-0.000
831.09	-0.000
831.26	-0.000
831.44	-0.000
831.61	-0.000
831.79	-0.000
831.96	-0.000
832.14	-0.000
832.31	-0.000
832.49	-0.000
832.66	-0.000
832.83	-0.000
833.01	-0.000
833.18	-0.000
833.36	-0.000
833.53	-0.000
833.70	-0.000
833.88	-0.000
834.05	-0.000
834.23	-0.000
834.40	-0.000
834.58	-0.000
834.75	-0.000
834.92	-0.000
835.10	-0.000
835.27	-0.000
835.45	-0.000
835.62	-0.000
835.79	-0.000
835.97	-0.000
836.14	-0.000
836.32	-0.000
836.49	-0.000
836.66	-0.000
836.84	-0.000
837.01	-0.000
837.18	-0.000
837.36	-0.000
837.53	-0.000
837.71	-0.000
837.88	-0.000
838.05	-0.000
838.23	-0.000
838.40	-0.000
838.58	-0.000
838.75	-0.000
838.92	-0.000
839.10	-0.000
839.27	-0.000
839.44	-0.000
839.62	-0.000
839.79	-0.000
839.96	-0.000
840.14	-0.000
840.31	-0.000
840.48	-0.000
840.66	-0.000
840.83	-0.000
841.01	-0.000
841.18	-0.000
841.35	-0.000
841.53	-0.000
841.70	-0.000
841.87	-0.000
842.05	-0.000
842.22	-0.000
842.39	-0.000
842.57	-0.000
842.74	-0.000
842.91	-0.000
843.09	-0.000
843.26	-0.000
843.43	-0.000
843.60	-0.000
843.78	-0.000
843.95	-0.000
844.12	-0.000
844.30	-0.000
844.47	-0.000
844.64	-0.000
844.82	-0.000
844.99	-0.000
845.16	-0.000
845.34	-0.000
845.51	-0.000
845.68	-0.000
845.85	-0.000
846.03	-0.000
846.20	-0.000
846.37	-0.000
846.55	-0.000
846.72	-0.000
846.89	-0.000
847.06	-0.000
847.24	-0.000
847.41	-0.000
847.58	-0.000
847.76	-0.000
847.93	-0.000
848.10	-0.000
848.27	-0.000
848.45	-0.000
848.62	-0.000
848.79	-0.000
848.97	-0.000
849.14	-0.000
849.31	-0.000
849.48	-0.000
849.66	-0.000
849.83	-0.000
850.00	-0.000
850.17	-0.000
850.35	-0.000
850.52	-0.000
850.69	-0.000
850.86	-0.000
851.04	-0.000
851.21	-0.000
851.38	-0.000
851.55	-0.000
851.72	-0.000
851.90	-0.000
852.07	-0.000
852.24	-0.000
852.41	-0.000
852.59	-0.000
852.76	-0.000
852.93	-0.000
853.10	-0.000
853.28	-0.000
853.45	-0.000
853.62	-0.000
853.79	-0.000
853.96	-0.000
854.14	-0.000
854.31	-0.000
854.48	-0.000
854.65	-0.000
854.82	-0.000
855.00	-0.000
855.17	-0.000
855.34	-0.000
855.51	-0.000
855.68	-0.000
855.86	-0.000
856.03	-0.000
856.20	-0.000
856.37	-0.000
856.54	-0.000
856.72	-0.000
856.89	-0.000
857.06	-0.000
857.23	-0.000
857.40	-0.000
857.57	-0.000
857.75	-0.000
857.92	-0.000
858.09	-0.000
858.26	-0.000
858.43	-0.000
858.60	-0.000
858.78	-0.000
858.95	-0.000
859.12	-0.000
859.29	-0.000
859.46	-0.000
859.63	-0.000
859.81	-0.000
859.98	-0.000
860.15	-0.000
860.32	-0.000
860.49	-0.000
860.66	-0.000
860.83	-0.000
861.01	-0.000
861.18	-0.000
861.35	-0.000
861.52	-0.000
861.69	-0.000
861.86	-0.000
862.03	-0.000
862.21	-0.000
862.38	-0.000
862.55	-0.000
862.72	-0.000
862.89	-0.000
863.06	-0.000
863.23	-0.000
863.40	-0.000
863.58	-0.000
863.75	-0.000
863.92	-0.000
864.09	-0.000
864.26	-0.000
864.43	-0.000
864.60	-0.000
864.77	-0.000
864.94	-0.000
865.11	-0.000
865.29	-0.000
865.46	-0.000
865.63	-0.000
865.80	-0.000
865.97	-0.000
866.14	-0.000
866.31	-0.000
866.48	-0.000
866.65	-0.000
866.82	-0.000
866.99	-0.000
867.16	-0.000
867.34	-0.000
867.51	-0.000
867.68	-0.000
867.85	-0.000
868.02	-0.000
868.19	-0.000
868.36	-0.000
868.53	-0.000
868.70	-0.000
868.87	-0.000
869.04	-0.000
869.21	-0.000
869.38	-0.000
869.55	-0.000
869.72	-0.000
869.89	-0.000
870.06	-0.000
870.24	-0.000
870.41	-0.000
870.58	-0.000
870.75	-0.000
870.92	-0.000
871.09	-0.000
871.26	-0.000
871.43	-0.000
871.60	-0.000
871.77	-0.000
871.94	-0.000
872.11	-0.000
872.28	-0.000
872.45	-0.000
872.62	-0.000
872.79	-0.000
872.96	-0.000
873.13	-0.000
873.30	-0.000
873.47	-0.000
873.64	-0.000
873.81	-0.000
873.98	-0.000
874.15	-0.000
874.32	-0.000
874.49	-0.000
874.66	-0.000
874.83	-0.000
875.00	-0.000
875.17	-0.000
875.34	-0.000
875.51	-0.000
875.68	-0.000
875.85	-0.000
876.02	-0.000
876.19	-0.000
876.36	-0.000
876.53	-0.000
876.70	-0.000
876.87	-0.000
877.04	-0.000
877.21	-0.000
877.38	-0.000
877.55	-0.000
877.72	-0.000
877.89	-0.000
878.06	-0.000
878.23	-0.000
878.39	-0.000
878.56	-0.000
878.73	-0.000
878.90	-0.000
879.07	-0.000
879.24	-0.000
879.41	-0.000
879.58	-0.000
879.75	-0.000
879.92	-0.000
880.09	-0.000
880.26	-0.000
880.43	-0.000
880.60	-0.000
880.77	-0.000
880.94	-0.000
881.11	-0.000
881.27	-0.000
881.44	-0.000
881.61	-0.000
881.78	-0.000
881.95	-0.000
882.12	-0.000
882.29	-0.000
882.46	-0.000
882.63	-0.000
882.80	-0.000
882.97	-0.000
883.14	-0.000
883.30	-0.000
883.47	-0.000
883.64	-0.000
883.81	-0.000
883.98	-0.000
884.15	-0.000
884.32	-0.000
884.49	-0.000
884.66	-0.000
884.82	-0.000
884.99	-0.000
885.16	-0.000
885.33	-0.000
885.50	-0.000
885.67	-0.000
885.84	-0.000
886.01	-0.000
886.17	-0.000
886.34	-0.000
886.51	-0.000
886.68	-0.000
886.85	-0.000
887.02	-0.000
887.19	-0.000
887.36	-0.000
887.52	-0.000
887.69	-0.000
887.86	-0.000
888.03	-0.000
888.20	-0.000
888.37	-0.000
888.54	-0.000
888.70	-0.000
888.87	-0.000
889.04	-0.000
889.21	-0.000
889.38	-0.000
889.55	-0.000
889.71	-0.000
889.88	-0.000
890.05	-0.000
890.22	-0.000
890.39	-0.000
>>>>>End Processed Spectral Data<<<<<
