SpectraSuite Data File
++++++++++++++++++++++++++++++++++++
Date: Fri Jun 19 14:50:38 CEST 2015
User: introlabs
Dark Spectrum Present: Yes
Reference Spectrum Present: Yes
Number of Sampled Component Spectra: 1
Spectrometers: USB4H08886
Integration Time (usec): 745692 (USB4H08886)
Spectra Averaged: 5 (USB4H08886)
Boxcar Smoothing: 5 (USB4H08886)
Correct for Electrical Dark: Yes (USB4H08886)
Strobe/Lamp Enabled: No (USB4H08886)
Correct for Detector Non-linearity: Yes (USB4H08886)
Correct for Stray Light: Yes (USB4H08886)
Number of Pixels in Processed Spectrum: 3648
>>>>>Begin Processed Spectral Data<<<<<
178.14	-0.000
178.36	-0.000
178.57	-0.000
178.79	-0.000
179.01	-0.000
179.22	-0.000
179.44	-0.000
179.65	-0.000
179.87	-0.000
180.08	-0.000
180.30	-0.000
180.52	-0.000
180.73	-0.000
180.95	-0.000
181.16	-0.000
181.38	-0.000
181.59	-0.000
181.81	-0.000
182.03	-0.000
182.24	-0.000
182.46	-0.000
182.67	-0.000
182.89	-0.000
183.10	-0.000
183.32	-0.000
183.54	-0.000
183.75	-0.000
183.97	-0.000
184.18	-0.000
184.40	-0.000
184.61	-0.000
184.83	-0.000
185.04	-0.000
185.26	-0.000
185.48	-0.000
185.69	-0.000
185.91	-0.000
186.12	-0.000
186.34	-0.000
186.55	-0.000
186.77	-0.000
186.98	-0.000
187.20	-0.000
187.42	-0.000
187.63	-0.000
187.85	-0.000
188.06	-0.000
188.28	-0.000
188.49	-0.000
188.71	-0.000
188.92	-0.000
189.14	-0.000
189.36	-0.000
189.57	-0.000
189.79	-0.000
190.00	-0.000
190.22	-0.000
190.43	-0.000
190.65	-0.000
190.86	-0.000
191.08	-0.000
191.29	-0.000
191.51	-0.000
191.72	-0.000
191.94	-0.000
192.16	-0.000
192.37	-0.000
192.59	-0.000
192.80	-0.000
193.02	-0.000
193.23	-0.000
193.45	-0.000
193.66	-0.000
193.88	-0.000
194.09	-0.000
194.31	-0.000
194.52	-0.000
194.74	-0.000
194.95	-0.000
195.17	-0.000
195.38	-0.000
195.60	-0.000
195.81	-0.000
196.03	-0.000
196.25	-0.000
196.46	-0.000
196.68	-0.000
196.89	-0.000
197.11	-0.000
197.32	-0.000
197.54	-0.000
197.75	-0.000
197.97	-0.000
198.18	-0.000
198.40	-0.000
198.61	-0.000
198.83	-0.000
199.04	-0.000
199.26	-0.000
199.47	-0.000
199.69	-0.000
199.90	-0.000
200.12	-0.000
200.33	-0.000
200.55	-0.000
200.76	-0.000
200.98	-0.000
201.19	-0.000
201.41	-0.000
201.62	-0.000
201.84	-0.000
202.05	-0.000
202.27	-0.000
202.48	-0.000
202.70	-0.000
202.91	-0.000
203.13	-0.000
203.34	-0.000
203.56	-0.000
203.77	-0.000
203.99	-0.000
204.20	-0.000
204.42	-0.000
204.63	-0.000
204.85	-0.000
205.06	-0.000
205.28	-0.000
205.49	-0.000
205.71	-0.000
205.92	-0.000
206.14	-0.000
206.35	-0.000
206.56	-0.000
206.78	-0.000
206.99	-0.000
207.21	-0.000
207.42	-0.000
207.64	-0.000
207.85	-0.000
208.07	-0.000
208.28	-0.000
208.50	-0.000
208.71	-0.000
208.93	-0.000
209.14	-0.000
209.36	-0.000
209.57	-0.000
209.79	-0.000
210.00	-0.000
210.22	-0.000
210.43	-0.000
210.64	-0.000
210.86	-0.000
211.07	-0.000
211.29	-0.000
211.50	-0.000
211.72	-0.000
211.93	-0.000
212.15	-0.000
212.36	-0.000
212.58	-0.000
212.79	-0.000
213.01	-0.000
213.22	-0.000
213.43	-0.000
213.65	-0.000
213.86	-0.000
214.08	-0.000
214.29	-0.000
214.51	-0.000
214.72	-0.000
214.94	-0.000
215.15	-0.000
215.36	-0.000
215.58	-0.000
215.79	-0.000
216.01	-0.000
216.22	-0.000
216.44	-0.000
216.65	-0.000
216.87	-0.000
217.08	-0.000
217.29	-0.000
217.51	-0.000
217.72	-0.000
217.94	-0.000
218.15	-0.000
218.37	-0.000
218.58	-0.000
218.80	-0.000
219.01	-0.000
219.22	-0.000
219.44	-0.000
219.65	-0.000
219.87	-0.000
220.08	-0.000
220.30	-0.000
220.51	-0.000
220.72	-0.000
220.94	-0.000
221.15	-0.000
221.37	-0.000
221.58	-0.000
221.79	-0.000
222.01	-0.000
222.22	-0.000
222.44	-0.000
222.65	-0.000
222.87	-0.000
223.08	-0.000
223.29	-0.000
223.51	-0.000
223.72	-0.000
223.94	-0.000
224.15	-0.000
224.36	-0.000
224.58	-0.000
224.79	-0.000
225.01	-0.000
225.22	-0.000
225.44	-0.000
225.65	-0.000
225.86	-0.000
226.08	-0.000
226.29	-0.000
226.51	-0.000
226.72	-0.000
226.93	-0.000
227.15	-0.000
227.36	-0.000
227.58	-0.000
227.79	-0.000
228.00	-0.000
228.22	-0.000
228.43	-0.000
228.65	-0.000
228.86	-0.000
229.07	-0.000
229.29	-0.000
229.50	-0.000
229.72	-0.000
229.93	-0.000
230.14	-0.000
230.36	-0.000
230.57	-0.000
230.78	-0.000
231.00	-0.000
231.21	-0.000
231.43	-0.000
231.64	-0.000
231.85	-0.000
232.07	-0.000
232.28	-0.000
232.50	-0.000
232.71	-0.000
232.92	-0.000
233.14	-0.000
233.35	-0.000
233.56	-0.000
233.78	-0.000
233.99	-0.000
234.21	-0.000
234.42	-0.000
234.63	-0.000
234.85	-0.000
235.06	-0.000
235.27	-0.000
235.49	-0.000
235.70	-0.000
235.91	-0.000
236.13	-0.000
236.34	-0.000
236.56	-0.000
236.77	-0.000
236.98	-0.000
237.20	-0.000
237.41	-0.000
237.62	-0.000
237.84	-0.000
238.05	-0.000
238.26	-0.000
238.48	-0.000
238.69	-0.000
238.91	-0.000
239.12	-0.000
239.33	-0.000
239.55	-0.000
239.76	-0.000
239.97	-0.000
240.19	-0.000
240.40	-0.000
240.61	-0.000
240.83	-0.000
241.04	-0.000
241.25	-0.000
241.47	-0.000
241.68	-0.000
241.89	-0.000
242.11	-0.000
242.32	-0.000
242.53	-0.000
242.75	-0.000
242.96	-0.000
243.17	-0.000
243.39	-0.000
243.60	-0.000
243.81	-0.000
244.03	-0.000
244.24	-0.000
244.45	-0.000
244.67	-0.000
244.88	-0.000
245.09	-0.000
245.31	-0.000
245.52	-0.000
245.73	-0.000
245.95	-0.000
246.16	-0.000
246.37	-0.000
246.59	-0.000
246.80	-0.000
247.01	-0.000
247.23	-0.000
247.44	-0.000
247.65	-0.000
247.87	-0.000
248.08	-0.000
248.29	-0.000
248.51	-0.000
248.72	-0.000
248.93	-0.000
249.15	-0.000
249.36	-0.000
249.57	-0.000
249.78	-0.000
250.00	-0.000
250.21	-0.000
250.42	-0.000
250.64	-0.000
250.85	-0.000
251.06	-0.000
251.28	-0.000
251.49	-0.000
251.70	-0.000
251.92	-0.000
252.13	-0.000
252.34	-0.000
252.55	-0.000
252.77	-0.000
252.98	-0.000
253.19	-0.000
253.41	-0.000
253.62	-0.000
253.83	-0.000
254.05	-0.000
254.26	-0.000
254.47	-0.000
254.68	-0.000
254.90	-0.000
255.11	-0.000
255.32	-0.000
255.54	-0.000
255.75	-0.000
255.96	-0.000
256.17	-0.000
256.39	-0.000
256.60	-0.000
256.81	-0.000
257.03	-0.000
257.24	-0.000
257.45	-0.000
257.66	-0.000
257.88	-0.000
258.09	-0.000
258.30	-0.000
258.51	-0.000
258.73	-0.000
258.94	-0.000
259.15	-0.000
259.37	-0.000
259.58	-0.000
259.79	-0.000
260.00	-0.000
260.22	-0.000
260.43	-0.000
260.64	-0.000
260.85	-0.000
261.07	-0.000
261.28	-0.000
261.49	-0.000
261.71	-0.000
261.92	-0.000
262.13	-0.000
262.34	-0.000
262.56	-0.000
262.77	-0.000
262.98	-0.000
263.19	-0.000
263.41	-0.000
263.62	-0.000
263.83	-0.000
264.04	-0.000
264.26	-0.000
264.47	-0.000
264.68	-0.000
264.89	-0.000
265.11	-0.000
265.32	-0.000
265.53	-0.000
265.74	-0.000
265.96	-0.000
266.17	-0.000
266.38	-0.000
266.59	-0.000
266.81	-0.000
267.02	-0.000
267.23	-0.000
267.44	-0.000
267.65	-0.000
267.87	-0.000
268.08	-0.000
268.29	-0.000
268.50	-0.000
268.72	-0.000
268.93	-0.000
269.14	-0.000
269.35	-0.000
269.57	-0.000
269.78	-0.000
269.99	-0.000
270.20	-0.000
270.41	-0.000
270.63	-0.000
270.84	-0.000
271.05	-0.000
271.26	-0.000
271.48	-0.000
271.69	-0.000
271.90	-0.000
272.11	-0.000
272.32	-0.000
272.54	-0.000
272.75	-0.000
272.96	-0.000
273.17	-0.000
273.39	-0.000
273.60	-0.000
273.81	-0.000
274.02	-0.000
274.23	-0.000
274.45	-0.000
274.66	-0.000
274.87	-0.000
275.08	-0.000
275.29	-0.000
275.51	-0.000
275.72	-0.000
275.93	-0.000
276.14	-0.000
276.35	-0.000
276.57	-0.000
276.78	-0.000
276.99	-0.000
277.20	-0.000
277.41	-0.000
277.63	-0.000
277.84	-0.000
278.05	-0.000
278.26	-0.000
278.47	-0.000
278.69	-0.000
278.90	-0.000
279.11	-0.000
279.32	-0.000
279.53	-0.000
279.74	-0.000
279.96	-0.000
280.17	-0.000
280.38	-0.000
280.59	-0.000
280.80	-0.000
281.02	-0.000
281.23	-0.000
281.44	-0.000
281.65	-0.000
281.86	-0.000
282.07	-0.000
282.29	-0.000
282.50	-0.000
282.71	-0.000
282.92	-0.000
283.13	-0.000
283.35	-0.000
283.56	-0.000
283.77	-0.000
283.98	-0.000
284.19	-0.000
284.40	-0.000
284.62	-0.000
284.83	-0.000
285.04	-0.000
285.25	-0.000
285.46	-0.000
285.67	-0.000
285.88	-0.000
286.10	-0.000
286.31	-0.000
286.52	-0.000
286.73	-0.000
286.94	-0.000
287.15	-0.000
287.37	-0.000
287.58	-0.000
287.79	-0.000
288.00	-0.000
288.21	-0.000
288.42	-0.000
288.63	-0.000
288.85	-0.000
289.06	-0.000
289.27	-0.000
289.48	-0.000
289.69	-0.000
289.90	-0.000
290.11	-0.000
290.33	-0.000
290.54	-0.000
290.75	-0.000
290.96	-0.000
291.17	-0.000
291.38	-0.000
291.59	-0.000
291.81	-0.000
292.02	-0.000
292.23	-0.000
292.44	-0.000
292.65	-0.000
292.86	-0.000
293.07	-0.000
293.28	-0.000
293.50	-0.000
293.71	-0.000
293.92	-0.000
294.13	-0.000
294.34	-0.000
294.55	-0.000
294.76	-0.000
294.97	-0.000
295.19	-0.000
295.40	-0.000
295.61	-0.000
295.82	-0.000
296.03	-0.000
296.24	-0.000
296.45	2.414
296.66	1.871
296.87	1.887
297.09	1.988
297.30	2.344
297.51	1.803
297.72	1.769
297.93	1.866
298.14	1.830
298.35	1.762
298.56	1.735
298.77	1.881
298.99	1.850
299.20	1.833
299.41	1.807
299.62	1.747
299.83	1.738
300.04	1.655
300.25	1.645
300.46	1.686
300.67	1.656
300.88	1.595
301.10	1.598
301.31	1.679
301.52	1.604
301.73	1.541
301.94	1.544
302.15	1.554
302.36	1.508
302.57	1.445
302.78	1.453
302.99	1.497
303.20	1.522
303.41	1.427
303.63	1.406
303.84	1.411
304.05	1.408
304.26	1.346
304.47	1.356
304.68	1.359
304.89	1.352
305.10	1.312
305.31	1.297
305.52	1.340
305.73	1.329
305.94	1.287
306.15	1.282
306.37	1.305
306.58	1.309
306.79	1.275
307.00	1.298
307.21	1.332
307.42	1.323
307.63	1.286
307.84	1.251
308.05	1.288
308.26	1.289
308.47	1.268
308.68	1.260
308.89	1.262
309.10	1.261
309.31	1.218
309.52	1.213
309.73	1.228
309.95	1.224
310.16	1.196
310.37	1.186
310.58	1.202
310.79	1.199
311.00	1.197
311.21	1.200
311.42	1.202
311.63	1.198
311.84	1.179
312.05	1.178
312.26	1.201
312.47	1.213
312.68	1.188
312.89	1.171
313.10	1.179
313.31	1.151
313.52	1.152
313.73	1.153
313.94	1.157
314.15	1.136
314.36	1.116
314.57	1.106
314.78	1.094
314.99	1.089
315.21	1.078
315.42	1.081
315.63	1.092
315.84	1.071
316.05	1.057
316.26	1.066
316.47	1.085
316.68	1.081
316.89	1.064
317.10	1.083
317.31	1.088
317.52	1.090
317.73	1.071
317.94	1.072
318.15	1.114
318.36	1.112
318.57	1.094
318.78	1.080
318.99	1.116
319.20	1.114
319.41	1.078
319.62	1.082
319.83	1.096
320.04	1.090
320.25	1.077
320.46	1.045
320.67	1.048
320.88	1.042
321.09	1.031
321.30	1.016
321.51	1.031
321.72	1.030
321.93	1.013
322.14	1.005
322.35	1.030
322.56	1.032
322.77	1.021
322.98	1.031
323.19	1.039
323.40	1.045
323.61	1.022
323.82	1.016
324.03	1.022
324.24	1.019
324.45	1.006
324.66	0.987
324.87	0.982
325.08	0.981
325.29	0.964
325.50	0.960
325.71	0.965
325.92	0.975
326.13	0.962
326.34	0.963
326.55	0.970
326.76	0.968
326.97	0.958
327.18	0.952
327.39	0.977
327.60	0.977
327.80	0.975
328.01	0.973
328.22	0.972
328.43	0.974
328.64	0.962
328.85	0.968
329.06	0.969
329.27	0.969
329.48	0.965
329.69	0.946
329.90	0.958
330.11	0.952
330.32	0.945
330.53	0.939
330.74	0.939
330.95	0.937
331.16	0.922
331.37	0.929
331.58	0.929
331.79	0.928
332.00	0.919
332.21	0.911
332.42	0.914
332.63	0.905
332.83	0.901
333.04	0.903
333.25	0.914
333.46	0.914
333.67	0.901
333.88	0.902
334.09	0.912
334.30	0.909
334.51	0.900
334.72	0.896
334.93	0.898
335.14	0.897
335.35	0.890
335.56	0.886
335.77	0.893
335.98	0.891
336.18	0.886
336.39	0.880
336.60	0.884
336.81	0.882
337.02	0.881
337.23	0.886
337.44	0.889
337.65	0.890
337.86	0.880
338.07	0.876
338.28	0.881
338.49	0.879
338.70	0.871
338.91	0.877
339.11	0.885
339.32	0.881
339.53	0.869
339.74	0.866
339.95	0.863
340.16	0.861
340.37	0.853
340.58	0.852
340.79	0.855
341.00	0.855
341.21	0.846
341.41	0.845
341.62	0.847
341.83	0.849
342.04	0.844
342.25	0.855
342.46	0.861
342.67	0.860
342.88	0.853
343.09	0.852
343.30	0.859
343.50	0.861
343.71	0.851
343.92	0.849
344.13	0.853
344.34	0.852
344.55	0.835
344.76	0.833
344.97	0.837
345.18	0.837
345.38	0.834
345.59	0.828
345.80	0.828
346.01	0.826
346.22	0.823
346.43	0.816
346.64	0.824
346.85	0.825
347.06	0.817
347.26	0.816
347.47	0.818
347.68	0.814
347.89	0.811
348.10	0.806
348.31	0.812
348.52	0.811
348.73	0.809
348.93	0.805
349.14	0.808
349.35	0.808
349.56	0.803
349.77	0.799
349.98	0.804
350.19	0.801
350.39	0.797
350.60	0.792
350.81	0.808
351.02	0.806
351.23	0.802
351.44	0.804
351.65	0.808
351.86	0.805
352.06	0.804
352.27	0.803
352.48	0.805
352.69	0.804
352.90	0.800
353.11	0.786
353.31	0.794
353.52	0.790
353.73	0.781
353.94	0.783
354.15	0.789
354.36	0.788
354.57	0.780
354.77	0.782
354.98	0.782
355.19	0.781
355.40	0.781
355.61	0.787
355.82	0.790
356.02	0.790
356.23	0.782
356.44	0.783
356.65	0.788
356.86	0.787
357.07	0.781
357.27	0.784
357.48	0.786
357.69	0.782
357.90	0.766
358.11	0.764
358.32	0.768
358.52	0.771
358.73	0.761
358.94	0.762
359.15	0.766
359.36	0.766
359.56	0.761
359.77	0.758
359.98	0.765
360.19	0.764
360.40	0.761
360.61	0.761
360.81	0.759
361.02	0.760
361.23	0.753
361.44	0.751
361.65	0.752
361.85	0.752
362.06	0.750
362.27	0.752
362.48	0.753
362.69	0.755
362.89	0.750
363.10	0.751
363.31	0.756
363.52	0.759
363.73	0.754
363.93	0.754
364.14	0.757
364.35	0.758
364.56	0.748
364.77	0.750
364.97	0.752
365.18	0.752
365.39	0.746
365.60	0.743
365.81	0.744
366.01	0.744
366.22	0.741
366.43	0.740
366.64	0.742
366.84	0.748
367.05	0.744
367.26	0.744
367.47	0.745
367.68	0.746
367.88	0.744
368.09	0.741
368.30	0.743
368.51	0.742
368.71	0.741
368.92	0.745
369.13	0.743
369.34	0.742
369.55	0.741
369.75	0.741
369.96	0.748
370.17	0.748
370.38	0.745
370.58	0.744
370.79	0.750
371.00	0.749
371.21	0.741
371.41	0.746
371.62	0.750
371.83	0.746
372.04	0.744
372.24	0.737
372.45	0.737
372.66	0.738
372.87	0.734
373.07	0.731
373.28	0.731
373.49	0.734
373.70	0.725
373.90	0.724
374.11	0.732
374.32	0.731
374.53	0.730
374.73	0.730
374.94	0.733
375.15	0.734
375.36	0.731
375.56	0.740
375.77	0.740
375.98	0.740
376.19	0.738
376.39	0.732
376.60	0.735
376.81	0.736
377.02	0.734
377.22	0.732
377.43	0.732
377.64	0.732
377.84	0.724
378.05	0.728
378.26	0.734
378.47	0.733
378.67	0.730
378.88	0.728
379.09	0.728
379.30	0.729
379.50	0.727
379.71	0.728
379.92	0.731
380.12	0.730
380.33	0.721
380.54	0.718
380.75	0.725
380.95	0.725
381.16	0.723
381.37	0.723
381.57	0.725
381.78	0.725
381.99	0.725
382.20	0.724
382.40	0.728
382.61	0.729
382.82	0.725
383.02	0.719
383.23	0.721
383.44	0.722
383.64	0.720
383.85	0.723
384.06	0.726
384.27	0.724
384.47	0.722
384.68	0.722
384.89	0.727
385.09	0.727
385.30	0.726
385.51	0.726
385.71	0.729
385.92	0.729
386.13	0.728
386.33	0.730
386.54	0.731
386.75	0.730
386.95	0.727
387.16	0.721
387.37	0.724
387.58	0.724
387.78	0.722
387.99	0.719
388.20	0.721
388.40	0.718
388.61	0.714
388.82	0.717
389.02	0.719
389.23	0.720
389.44	0.719
389.64	0.718
389.85	0.729
390.06	0.729
390.26	0.730
390.47	0.729
390.68	0.731
390.88	0.730
391.09	0.726
391.30	0.726
391.50	0.725
391.71	0.725
391.92	0.723
392.12	0.715
392.33	0.715
392.53	0.715
392.74	0.715
392.95	0.715
393.15	0.718
393.36	0.719
393.57	0.717
393.77	0.721
393.98	0.723
394.19	0.723
394.39	0.722
394.60	0.724
394.81	0.726
395.01	0.723
395.22	0.722
395.43	0.724
395.63	0.727
395.84	0.729
396.04	0.725
396.25	0.727
396.46	0.729
396.66	0.727
396.87	0.723
397.08	0.721
397.28	0.724
397.49	0.724
397.69	0.720
397.90	0.715
398.11	0.716
398.31	0.717
398.52	0.712
398.73	0.714
398.93	0.713
399.14	0.713
399.34	0.712
399.55	0.712
399.76	0.713
399.96	0.714
400.17	0.713
400.37	0.710
400.58	0.717
400.79	0.719
400.99	0.717
401.20	0.723
401.41	0.725
401.61	0.726
401.82	0.732
402.02	0.731
402.23	0.733
402.44	0.733
402.64	0.733
402.85	0.728
403.05	0.727
403.26	0.726
403.47	0.719
403.67	0.718
403.88	0.718
404.08	0.712
404.29	0.711
404.50	0.711
404.70	0.711
404.91	0.710
405.11	0.707
405.32	0.708
405.52	0.708
405.73	0.708
405.94	0.706
406.14	0.708
406.35	0.711
406.55	0.710
406.76	0.707
406.97	0.708
407.17	0.710
407.38	0.710
407.58	0.708
407.79	0.711
407.99	0.713
408.20	0.715
408.41	0.711
408.61	0.709
408.82	0.711
409.02	0.711
409.23	0.709
409.43	0.708
409.64	0.709
409.84	0.709
410.05	0.705
410.26	0.704
410.46	0.703
410.67	0.703
410.87	0.704
411.08	0.705
411.28	0.707
411.49	0.708
411.69	0.706
411.90	0.708
412.11	0.709
412.31	0.710
412.52	0.709
412.72	0.710
412.93	0.711
413.13	0.709
413.34	0.706
413.54	0.707
413.75	0.708
413.95	0.708
414.16	0.705
414.37	0.708
414.57	0.708
414.78	0.709
414.98	0.707
415.19	0.709
415.39	0.706
415.60	0.708
415.80	0.708
416.01	0.706
416.21	0.708
416.42	0.708
416.62	0.702
416.83	0.703
417.03	0.703
417.24	0.703
417.44	0.700
417.65	0.700
417.86	0.700
418.06	0.698
418.27	0.697
418.47	0.699
418.68	0.700
418.88	0.700
419.09	0.699
419.29	0.700
419.50	0.700
419.70	0.700
419.91	0.697
420.11	0.695
420.32	0.697
420.52	0.696
420.73	0.695
420.93	0.695
421.14	0.696
421.34	0.695
421.55	0.691
421.75	0.691
421.96	0.692
422.16	0.693
422.37	0.692
422.57	0.690
422.78	0.692
422.98	0.688
423.19	0.686
423.39	0.684
423.60	0.688
423.80	0.690
424.01	0.688
424.21	0.691
424.42	0.691
424.62	0.691
424.83	0.690
425.03	0.690
425.23	0.692
425.44	0.692
425.64	0.693
425.85	0.692
426.05	0.692
426.26	0.693
426.46	0.689
426.67	0.689
426.87	0.694
427.08	0.694
427.28	0.692
427.49	0.693
427.69	0.694
427.90	0.692
428.10	0.689
428.31	0.689
428.51	0.691
428.71	0.690
428.92	0.691
429.12	0.688
429.33	0.689
429.53	0.693
429.74	0.697
429.94	0.697
430.15	0.696
430.35	0.697
430.56	0.694
430.76	0.692
430.96	0.693
431.17	0.690
431.37	0.688
431.58	0.686
431.78	0.682
431.99	0.675
432.19	0.678
432.40	0.679
432.60	0.680
432.80	0.682
433.01	0.681
433.21	0.681
433.42	0.683
433.62	0.683
433.83	0.682
434.03	0.685
434.23	0.688
434.44	0.687
434.64	0.685
434.85	0.689
435.05	0.690
435.26	0.690
435.46	0.688
435.66	0.687
435.87	0.687
436.07	0.687
436.28	0.683
436.48	0.681
436.69	0.680
436.89	0.680
437.09	0.674
437.30	0.673
437.50	0.674
437.71	0.686
437.91	0.684
438.11	0.685
438.32	0.690
438.52	0.690
438.73	0.689
438.93	0.686
439.13	0.687
439.34	0.690
439.54	0.688
439.75	0.689
439.95	0.679
440.15	0.683
440.36	0.682
440.56	0.680
440.77	0.681
440.97	0.681
441.17	0.680
441.38	0.681
441.58	0.678
441.79	0.678
441.99	0.676
442.19	0.675
442.40	0.673
442.60	0.672
442.81	0.670
443.01	0.670
443.21	0.670
443.42	0.670
443.62	0.668
443.82	0.668
444.03	0.669
444.23	0.668
444.44	0.668
444.64	0.666
444.84	0.668
445.05	0.668
445.25	0.666
445.45	0.666
445.66	0.669
445.86	0.667
446.06	0.669
446.27	0.669
446.47	0.672
446.68	0.670
446.88	0.669
447.08	0.668
447.29	0.670
447.49	0.669
447.69	0.669
447.90	0.668
448.10	0.672
448.30	0.668
448.51	0.670
448.71	0.667
448.91	0.669
449.12	0.668
449.32	0.669
449.52	0.668
449.73	0.672
449.93	0.671
450.14	0.671
450.34	0.671
450.54	0.673
450.75	0.670
450.95	0.670
451.15	0.669
451.36	0.672
451.56	0.669
451.76	0.668
451.97	0.665
452.17	0.666
452.37	0.664
452.58	0.661
452.78	0.661
452.98	0.662
453.19	0.662
453.39	0.663
453.59	0.662
453.79	0.663
454.00	0.663
454.20	0.662
454.40	0.663
454.61	0.665
454.81	0.665
455.01	0.664
455.22	0.665
455.42	0.666
455.62	0.664
455.83	0.664
456.03	0.667
456.23	0.668
456.44	0.668
456.64	0.667
456.84	0.667
457.04	0.668
457.25	0.668
457.45	0.664
457.65	0.663
457.86	0.663
458.06	0.662
458.26	0.658
458.47	0.657
458.67	0.658
458.87	0.658
459.07	0.655
459.28	0.657
459.48	0.659
459.68	0.659
459.89	0.658
460.09	0.657
460.29	0.658
460.49	0.659
460.70	0.658
460.90	0.658
461.10	0.660
461.31	0.659
461.51	0.656
461.71	0.657
461.91	0.658
462.12	0.658
462.32	0.658
462.52	0.659
462.72	0.661
462.93	0.662
463.13	0.660
463.33	0.660
463.53	0.662
463.74	0.662
463.94	0.657
464.14	0.658
464.35	0.659
464.55	0.659
464.75	0.658
464.95	0.655
465.16	0.657
465.36	0.656
465.56	0.655
465.76	0.654
465.97	0.655
466.17	0.655
466.37	0.654
466.57	0.655
466.78	0.655
466.98	0.655
467.18	0.653
467.38	0.651
467.59	0.653
467.79	0.654
467.99	0.653
468.19	0.655
468.39	0.658
468.60	0.658
468.80	0.656
469.00	0.657
469.20	0.659
469.41	0.659
469.61	0.659
469.81	0.658
470.01	0.658
470.22	0.658
470.42	0.656
470.62	0.654
470.82	0.656
471.02	0.655
471.23	0.653
471.43	0.653
471.63	0.655
471.83	0.655
472.04	0.653
472.24	0.652
472.44	0.657
472.64	0.658
472.84	0.656
473.05	0.655
473.25	0.658
473.45	0.658
473.65	0.656
473.85	0.656
474.06	0.658
474.26	0.657
474.46	0.659
474.66	0.655
474.86	0.656
475.07	0.656
475.27	0.654
475.47	0.651
475.67	0.652
475.87	0.654
476.08	0.650
476.28	0.651
476.48	0.652
476.68	0.651
476.88	0.649
477.09	0.650
477.29	0.652
477.49	0.652
477.69	0.651
477.89	0.651
478.09	0.651
478.30	0.653
478.50	0.651
478.70	0.651
478.90	0.651
479.10	0.654
479.31	0.655
479.51	0.653
479.71	0.654
479.91	0.654
480.11	0.652
480.31	0.653
480.52	0.651
480.72	0.651
480.92	0.650
481.12	0.649
481.32	0.646
481.52	0.643
481.72	0.643
481.93	0.647
482.13	0.647
482.33	0.647
482.53	0.645
482.73	0.646
482.93	0.647
483.14	0.646
483.34	0.645
483.54	0.646
483.74	0.646
483.94	0.645
484.14	0.640
484.34	0.641
484.55	0.641
484.75	0.641
484.95	0.640
485.15	0.639
485.35	0.639
485.55	0.639
485.75	0.637
485.96	0.637
486.16	0.639
486.36	0.638
486.56	0.636
486.76	0.636
486.96	0.637
487.16	0.636
487.36	0.635
487.57	0.635
487.77	0.635
487.97	0.636
488.17	0.634
488.37	0.633
488.57	0.634
488.77	0.634
488.97	0.633
489.18	0.632
489.38	0.635
489.58	0.635
489.78	0.634
489.98	0.634
490.18	0.633
490.38	0.634
490.58	0.633
490.78	0.634
490.98	0.635
491.19	0.635
491.39	0.635
491.59	0.633
491.79	0.637
491.99	0.637
492.19	0.637
492.39	0.640
492.59	0.640
492.79	0.642
492.99	0.642
493.20	0.642
493.40	0.643
493.60	0.644
493.80	0.643
494.00	0.640
494.20	0.641
494.40	0.641
494.60	0.638
494.80	0.642
495.00	0.641
495.20	0.639
495.40	0.638
495.61	0.640
495.81	0.640
496.01	0.643
496.21	0.644
496.41	0.643
496.61	0.644
496.81	0.643
497.01	0.638
497.21	0.637
497.41	0.637
497.61	0.637
497.81	0.634
498.01	0.634
498.21	0.633
498.41	0.631
498.61	0.631
498.82	0.632
499.02	0.634
499.22	0.634
499.42	0.634
499.62	0.635
499.82	0.636
500.02	0.638
500.22	0.636
500.42	0.638
500.62	0.638
500.82	0.639
501.02	0.637
501.22	0.637
501.42	0.637
501.62	0.639
501.82	0.638
502.02	0.638
502.22	0.637
502.42	0.639
502.62	0.637
502.82	0.637
503.02	0.637
503.22	0.637
503.42	0.635
503.63	0.636
503.83	0.634
504.03	0.633
504.23	0.631
504.43	0.632
504.63	0.632
504.83	0.632
505.03	0.632
505.23	0.633
505.43	0.635
505.63	0.636
505.83	0.635
506.03	0.637
506.23	0.639
506.43	0.639
506.63	0.639
506.83	0.637
507.03	0.639
507.23	0.639
507.43	0.637
507.63	0.637
507.83	0.637
508.03	0.638
508.23	0.637
508.43	0.636
508.63	0.637
508.83	0.638
509.03	0.638
509.23	0.637
509.43	0.639
509.63	0.639
509.83	0.638
510.03	0.640
510.23	0.642
510.43	0.643
510.63	0.643
510.83	0.643
511.03	0.644
511.23	0.642
511.43	0.642
511.63	0.643
511.83	0.645
512.03	0.645
512.22	0.642
512.42	0.641
512.62	0.642
512.82	0.642
513.02	0.641
513.22	0.641
513.42	0.642
513.62	0.645
513.82	0.643
514.02	0.642
514.22	0.644
514.42	0.644
514.62	0.644
514.82	0.643
515.02	0.646
515.22	0.649
515.42	0.648
515.62	0.650
515.82	0.649
516.02	0.651
516.22	0.651
516.42	0.652
516.62	0.653
516.82	0.654
517.01	0.653
517.21	0.652
517.41	0.655
517.61	0.656
517.81	0.652
518.01	0.652
518.21	0.651
518.41	0.650
518.61	0.649
518.81	0.649
519.01	0.650
519.21	0.650
519.41	0.650
519.61	0.644
519.81	0.646
520.00	0.646
520.20	0.647
520.40	0.650
520.60	0.651
520.80	0.650
521.00	0.651
521.20	0.652
521.40	0.656
521.60	0.657
521.80	0.656
522.00	0.656
522.20	0.659
522.39	0.658
522.59	0.655
522.79	0.656
522.99	0.658
523.19	0.656
523.39	0.654
523.59	0.652
523.79	0.655
523.99	0.657
524.19	0.657
524.38	0.655
524.58	0.657
524.78	0.657
524.98	0.655
525.18	0.658
525.38	0.659
525.58	0.659
525.78	0.657
525.98	0.656
526.18	0.656
526.37	0.655
526.57	0.657
526.77	0.657
526.97	0.657
527.17	0.657
527.37	0.653
527.57	0.656
527.77	0.657
527.96	0.657
528.16	0.656
528.36	0.657
528.56	0.659
528.76	0.656
528.96	0.654
529.16	0.656
529.36	0.659
529.55	0.659
529.75	0.656
529.95	0.656
530.15	0.657
530.35	0.660
530.55	0.657
530.75	0.658
530.94	0.660
531.14	0.661
531.34	0.659
531.54	0.657
531.74	0.659
531.94	0.662
532.13	0.661
532.33	0.663
532.53	0.662
532.73	0.661
532.93	0.659
533.13	0.660
533.33	0.660
533.52	0.661
533.72	0.665
533.92	0.663
534.12	0.662
534.32	0.662
534.52	0.660
534.71	0.661
534.91	0.665
535.11	0.666
535.31	0.664
535.51	0.665
535.71	0.667
535.90	0.664
536.10	0.666
536.30	0.667
536.50	0.668
536.70	0.668
536.89	0.666
537.09	0.665
537.29	0.667
537.49	0.668
537.69	0.666
537.89	0.667
538.08	0.667
538.28	0.664
538.48	0.665
538.68	0.666
538.88	0.668
539.07	0.667
539.27	0.665
539.47	0.665
539.67	0.664
539.87	0.666
540.06	0.663
540.26	0.663
540.46	0.666
540.66	0.663
540.86	0.661
541.05	0.660
541.25	0.662
541.45	0.662
541.65	0.661
541.84	0.663
542.04	0.664
542.24	0.664
542.44	0.663
542.64	0.664
542.83	0.667
543.03	0.668
543.23	0.666
543.43	0.667
543.62	0.668
543.82	0.669
544.02	0.667
544.22	0.667
544.42	0.671
544.61	0.672
544.81	0.668
545.01	0.668
545.21	0.670
545.40	0.671
545.60	0.668
545.80	0.672
546.00	0.672
546.19	0.671
546.39	0.671
546.59	0.668
546.79	0.670
546.98	0.670
547.18	0.669
547.38	0.670
547.58	0.672
547.77	0.673
547.97	0.669
548.17	0.670
548.37	0.670
548.56	0.671
548.76	0.670
548.96	0.672
549.16	0.674
549.35	0.674
549.55	0.672
549.75	0.673
549.95	0.676
550.14	0.676
550.34	0.675
550.54	0.680
550.73	0.683
550.93	0.683
551.13	0.680
551.33	0.679
551.52	0.679
551.72	0.679
551.92	0.678
552.12	0.678
552.31	0.678
552.51	0.678
552.71	0.673
552.90	0.673
553.10	0.674
553.30	0.674
553.50	0.673
553.69	0.675
553.89	0.675
554.09	0.675
554.28	0.672
554.48	0.674
554.68	0.676
554.87	0.677
555.07	0.673
555.27	0.674
555.47	0.675
555.66	0.676
555.86	0.674
556.06	0.676
556.25	0.677
556.45	0.685
556.65	0.683
556.84	0.686
557.04	0.689
557.24	0.691
557.43	0.691
557.63	0.693
557.83	0.695
558.02	0.696
558.22	0.700
558.42	0.701
558.61	0.694
558.81	0.695
559.01	0.691
559.21	0.690
559.40	0.691
559.60	0.690
559.80	0.686
559.99	0.687
560.19	0.689
560.39	0.683
560.58	0.681
560.78	0.681
560.97	0.685
561.17	0.683
561.37	0.681
561.56	0.682
561.76	0.684
561.96	0.684
562.15	0.681
562.35	0.683
562.55	0.685
562.74	0.684
562.94	0.682
563.14	0.680
563.33	0.681
563.53	0.681
563.73	0.679
563.92	0.680
564.12	0.683
564.31	0.685
564.51	0.683
564.71	0.684
564.90	0.687
565.10	0.688
565.30	0.691
565.49	0.692
565.69	0.694
565.89	0.694
566.08	0.692
566.28	0.693
566.47	0.695
566.67	0.694
566.87	0.691
567.06	0.693
567.26	0.699
567.46	0.695
567.65	0.694
567.85	0.696
568.04	0.699
568.24	0.698
568.44	0.695
568.63	0.694
568.83	0.695
569.02	0.694
569.22	0.690
569.42	0.686
569.61	0.688
569.81	0.687
570.00	0.685
570.20	0.686
570.40	0.688
570.59	0.687
570.79	0.685
570.98	0.683
571.18	0.685
571.38	0.685
571.57	0.681
571.77	0.679
571.96	0.683
572.16	0.680
572.35	0.675
572.55	0.676
572.75	0.674
572.94	0.674
573.14	0.672
573.33	0.672
573.53	0.672
573.73	0.672
573.92	0.670
574.12	0.668
574.31	0.671
574.51	0.672
574.70	0.669
574.90	0.671
575.09	0.673
575.29	0.673
575.49	0.670
575.68	0.670
575.88	0.672
576.07	0.673
576.27	0.671
576.46	0.670
576.66	0.669
576.86	0.668
577.05	0.666
577.25	0.664
577.44	0.666
577.64	0.665
577.83	0.664
578.03	0.665
578.22	0.664
578.42	0.663
578.61	0.662
578.81	0.663
579.00	0.663
579.20	0.663
579.40	0.662
579.59	0.660
579.79	0.661
579.98	0.660
580.18	0.659
580.37	0.659
580.57	0.661
580.76	0.666
580.96	0.664
581.15	0.665
581.35	0.667
581.54	0.666
581.74	0.666
581.93	0.667
582.13	0.669
582.32	0.666
582.52	0.665
582.71	0.664
582.91	0.660
583.10	0.660
583.30	0.659
583.49	0.658
583.69	0.662
583.88	0.663
584.08	0.662
584.27	0.664
584.47	0.668
584.66	0.668
584.86	0.667
585.05	0.669
585.25	0.672
585.44	0.672
585.64	0.670
585.83	0.667
586.03	0.667
586.22	0.665
586.42	0.661
586.61	0.662
586.81	0.665
587.00	0.664
587.20	0.662
587.39	0.662
587.59	0.664
587.78	0.666
587.98	0.666
588.17	0.667
588.37	0.669
588.56	0.671
588.76	0.667
588.95	0.667
589.15	0.671
589.34	0.674
589.54	0.672
589.73	0.673
589.92	0.676
590.12	0.676
590.31	0.674
590.51	0.679
590.70	0.681
590.90	0.682
591.09	0.680
591.29	0.678
591.48	0.677
591.68	0.678
591.87	0.677
592.06	0.676
592.26	0.678
592.45	0.677
592.65	0.671
592.84	0.671
593.04	0.673
593.23	0.676
593.43	0.673
593.62	0.672
593.81	0.673
594.01	0.672
594.20	0.669
594.40	0.668
594.59	0.670
594.79	0.671
594.98	0.670
595.17	0.669
595.37	0.670
595.56	0.672
595.76	0.672
595.95	0.674
596.14	0.677
596.34	0.679
596.53	0.678
596.73	0.680
596.92	0.681
597.12	0.684
597.31	0.683
597.50	0.682
597.70	0.684
597.89	0.683
598.09	0.679
598.28	0.680
598.47	0.683
598.67	0.681
598.86	0.677
599.06	0.679
599.25	0.678
599.44	0.676
599.64	0.674
599.83	0.672
600.03	0.675
600.22	0.675
600.41	0.675
600.61	0.673
600.80	0.675
601.00	0.676
601.19	0.672
601.38	0.670
601.58	0.673
601.77	0.674
601.96	0.676
602.16	0.676
602.35	0.685
602.55	0.683
602.74	0.684
602.93	0.686
603.13	0.691
603.32	0.693
603.51	0.692
603.71	0.696
603.90	0.697
604.09	0.698
604.29	0.695
604.48	0.690
604.68	0.691
604.87	0.689
605.06	0.686
605.26	0.682
605.45	0.683
605.64	0.682
605.84	0.677
606.03	0.676
606.22	0.675
606.42	0.675
606.61	0.671
606.80	0.670
607.00	0.672
607.19	0.672
607.38	0.671
607.58	0.672
607.77	0.675
607.96	0.675
608.16	0.673
608.35	0.677
608.54	0.680
608.74	0.684
608.93	0.689
609.12	0.691
609.32	0.694
609.51	0.697
609.70	0.695
609.90	0.697
610.09	0.702
610.28	0.707
610.48	0.701
610.67	0.703
610.86	0.703
611.06	0.697
611.25	0.695
611.44	0.696
611.64	0.697
611.83	0.699
612.02	0.696
612.21	0.694
612.41	0.693
612.60	0.692
612.79	0.689
612.99	0.689
613.18	0.691
613.37	0.688
613.57	0.686
613.76	0.687
613.95	0.685
614.14	0.684
614.34	0.681
614.53	0.682
614.72	0.685
614.92	0.684
615.11	0.681
615.30	0.678
615.49	0.680
615.69	0.682
615.88	0.678
616.07	0.679
616.26	0.682
616.46	0.683
616.65	0.679
616.84	0.679
617.04	0.681
617.23	0.684
617.42	0.685
617.61	0.688
617.81	0.689
618.00	0.691
618.19	0.690
618.38	0.694
618.58	0.698
618.77	0.699
618.96	0.698
619.15	0.699
619.35	0.701
619.54	0.702
619.73	0.697
619.92	0.700
620.12	0.704
620.31	0.704
620.50	0.698
620.69	0.698
620.89	0.702
621.08	0.703
621.27	0.702
621.46	0.702
621.66	0.705
621.85	0.705
622.04	0.701
622.23	0.702
622.43	0.703
622.62	0.703
622.81	0.702
623.00	0.702
623.19	0.705
623.39	0.704
623.58	0.701
623.77	0.700
623.96	0.703
624.16	0.702
624.35	0.697
624.54	0.699
624.73	0.703
624.92	0.701
625.12	0.697
625.31	0.697
625.50	0.700
625.69	0.701
625.88	0.697
626.08	0.697
626.27	0.699
626.46	0.700
626.65	0.696
626.84	0.696
627.04	0.701
627.23	0.702
627.42	0.698
627.61	0.700
627.80	0.703
628.00	0.704
628.19	0.702
628.38	0.705
628.57	0.708
628.76	0.708
628.96	0.704
629.15	0.705
629.34	0.708
629.53	0.708
629.72	0.702
629.91	0.703
630.11	0.707
630.30	0.707
630.49	0.709
630.68	0.709
630.87	0.712
631.06	0.716
631.26	0.711
631.45	0.713
631.64	0.721
631.83	0.723
632.02	0.719
632.21	0.719
632.41	0.725
632.60	0.720
632.79	0.718
632.98	0.719
633.17	0.720
633.36	0.721
633.55	0.717
633.75	0.712
633.94	0.713
634.13	0.715
634.32	0.712
634.51	0.706
634.70	0.708
634.89	0.707
635.09	0.703
635.28	0.704
635.47	0.706
635.66	0.708
635.85	0.705
636.04	0.707
636.23	0.711
636.43	0.712
636.62	0.712
636.81	0.711
637.00	0.713
637.19	0.716
637.38	0.712
637.57	0.711
637.76	0.713
637.95	0.714
638.15	0.711
638.34	0.708
638.53	0.711
638.72	0.713
638.91	0.710
639.10	0.709
639.29	0.709
639.48	0.710
639.67	0.711
639.87	0.709
640.06	0.714
640.25	0.713
640.44	0.713
640.63	0.713
640.82	0.715
641.01	0.715
641.20	0.714
641.39	0.716
641.58	0.718
641.78	0.717
641.97	0.713
642.16	0.728
642.35	0.729
642.54	0.729
642.73	0.723
642.92	0.722
643.11	0.725
643.30	0.726
643.49	0.719
643.68	0.721
643.87	0.722
644.06	0.722
644.25	0.701
644.45	0.704
644.64	0.705
644.83	0.705
645.02	0.703
645.21	0.702
645.40	0.703
645.59	0.703
645.78	0.698
645.97	0.700
646.16	0.702
646.35	0.701
646.54	0.699
646.73	0.701
646.92	0.702
647.11	0.701
647.30	0.697
647.49	0.699
647.68	0.700
647.88	0.699
648.07	0.692
648.26	0.696
648.45	0.697
648.64	0.694
648.83	0.691
649.02	0.693
649.21	0.704
649.40	0.703
649.59	0.698
649.78	0.699
649.97	0.713
650.16	0.712
650.35	0.706
650.54	0.709
650.73	0.717
650.92	0.714
651.11	0.708
651.30	0.706
651.49	0.711
651.68	0.710
651.87	0.707
652.06	0.697
652.25	0.701
652.44	0.704
652.63	0.702
652.82	0.702
653.01	0.703
653.20	0.702
653.39	0.690
653.58	0.688
653.77	0.687
653.96	0.682
654.15	0.674
654.34	0.672
654.53	0.667
654.72	0.661
654.91	0.651
655.10	0.647
655.29	0.644
655.48	0.643
655.67	0.637
655.86	0.634
656.05	0.633
656.24	0.633
656.43	0.628
656.62	0.627
656.81	0.626
657.00	0.624
657.19	0.621
657.38	0.621
657.57	0.619
657.76	0.621
657.95	0.619
658.14	0.622
658.33	0.624
658.51	0.629
658.70	0.629
658.89	0.632
659.08	0.641
659.27	0.649
659.46	0.649
659.65	0.655
659.84	0.659
660.03	0.663
660.22	0.664
660.41	0.668
660.60	0.667
660.79	0.667
660.98	0.673
661.17	0.671
661.36	0.670
661.55	0.671
661.74	0.670
661.92	0.672
662.11	0.674
662.30	0.672
662.49	0.666
662.68	0.666
662.87	0.669
663.06	0.663
663.25	0.665
663.44	0.665
663.63	0.666
663.82	0.664
664.01	0.660
664.20	0.658
664.38	0.661
664.57	0.661
664.76	0.660
664.95	0.661
665.14	0.665
665.33	0.660
665.52	0.667
665.71	0.671
665.90	0.670
666.09	0.672
666.28	0.670
666.46	0.668
666.65	0.668
666.84	0.666
667.03	0.660
667.22	0.658
667.41	0.661
667.60	0.651
667.79	0.645
667.98	0.646
668.16	0.647
668.35	0.647
668.54	0.643
668.73	0.644
668.92	0.645
669.11	0.644
669.30	0.638
669.49	0.635
669.67	0.637
669.86	0.639
670.05	0.636
670.24	0.634
670.43	0.632
670.62	0.631
670.81	0.626
671.00	0.627
671.18	0.628
671.37	0.627
671.56	0.625
671.75	0.624
671.94	0.622
672.13	0.619
672.32	0.615
672.50	0.614
672.69	0.615
672.88	0.615
673.07	0.610
673.26	0.612
673.45	0.614
673.63	0.614
673.82	0.610
674.01	0.612
674.20	0.612
674.39	0.611
674.58	0.611
674.76	0.611
674.95	0.609
675.14	0.610
675.33	0.606
675.52	0.604
675.71	0.604
675.89	0.603
676.08	0.599
676.27	0.599
676.46	0.599
676.65	0.599
676.84	0.598
677.02	0.600
677.21	0.603
677.40	0.601
677.59	0.599
677.78	0.599
677.96	0.602
678.15	0.601
678.34	0.599
678.53	0.600
678.72	0.599
678.90	0.596
679.09	0.591
679.28	0.587
679.47	0.587
679.66	0.587
679.84	0.584
680.03	0.582
680.22	0.580
680.41	0.583
680.60	0.579
680.78	0.578
680.97	0.580
681.16	0.581
681.35	0.580
681.53	0.579
681.72	0.580
681.91	0.582
682.10	0.580
682.29	0.583
682.47	0.580
682.66	0.580
682.85	0.578
683.04	0.577
683.22	0.576
683.41	0.578
683.60	0.577
683.79	0.577
683.97	0.577
684.16	0.576
684.35	0.572
684.54	0.574
684.72	0.574
684.91	0.574
685.10	0.573
685.29	0.575
685.47	0.572
685.66	0.571
685.85	0.568
686.04	0.567
686.22	0.569
686.41	0.571
686.60	0.568
686.79	0.571
686.97	0.572
687.16	0.573
687.35	0.570
687.54	0.573
687.72	0.577
687.91	0.576
688.10	0.578
688.29	0.578
688.47	0.576
688.66	0.576
688.85	0.572
689.03	0.570
689.22	0.575
689.41	0.576
689.60	0.571
689.78	0.568
689.97	0.569
690.16	0.567
690.34	0.563
690.53	0.563
690.72	0.563
690.91	0.560
691.09	0.559
691.28	0.552
691.47	0.551
691.65	0.550
691.84	0.547
692.03	0.546
692.21	0.544
692.40	0.543
692.59	0.541
692.77	0.540
692.96	0.541
693.15	0.542
693.34	0.540
693.52	0.539
693.71	0.540
693.90	0.541
694.08	0.542
694.27	0.542
694.46	0.552
694.64	0.552
694.83	0.552
695.02	0.551
695.20	0.551
695.39	0.551
695.58	0.550
695.76	0.551
695.95	0.550
696.14	0.549
696.32	0.548
696.51	0.538
696.70	0.538
696.88	0.539
697.07	0.537
697.26	0.539
697.44	0.540
697.63	0.539
697.81	0.537
698.00	0.536
698.19	0.535
698.37	0.535
698.56	0.534
698.75	0.534
698.93	0.534
699.12	0.533
699.31	0.532
699.49	0.531
699.68	0.532
699.87	0.535
700.05	0.535
700.24	0.535
700.42	0.537
700.61	0.537
700.80	0.535
700.98	0.535
701.17	0.537
701.36	0.536
701.54	0.535
701.73	0.536
701.91	0.533
702.10	0.533
702.29	0.531
702.47	0.530
702.66	0.531
702.84	0.532
703.03	0.531
703.22	0.532
703.40	0.532
703.59	0.533
703.77	0.533
703.96	0.533
704.15	0.533
704.33	0.533
704.52	0.533
704.70	0.533
704.89	0.533
705.08	0.532
705.26	0.527
705.45	0.528
705.63	0.527
705.82	0.523
706.00	0.522
706.19	0.522
706.38	0.522
706.56	0.522
706.75	0.519
706.93	0.518
707.12	0.519
707.30	0.520
707.49	0.518
707.68	0.516
707.86	0.515
708.05	0.515
708.23	0.512
708.42	0.512
708.60	0.514
708.79	0.514
708.98	0.512
709.16	0.511
709.35	0.513
709.53	0.517
709.72	0.515
709.90	0.517
710.09	0.519
710.27	0.521
710.46	0.524
710.64	0.523
710.83	0.525
711.02	0.527
711.20	0.526
711.39	0.524
711.57	0.521
711.76	0.523
711.94	0.521
712.13	0.523
712.31	0.522
712.50	0.518
712.68	0.515
712.87	0.516
713.05	0.516
713.24	0.516
713.42	0.516
713.61	0.517
713.79	0.518
713.98	0.518
714.16	0.518
714.35	0.518
714.54	0.519
714.72	0.519
714.91	0.517
715.09	0.523
715.28	0.526
715.46	0.526
715.65	0.523
715.83	0.522
716.02	0.524
716.20	0.521
716.39	0.520
716.57	0.521
716.76	0.523
716.94	0.523
717.12	0.515
717.31	0.517
717.49	0.520
717.68	0.522
717.86	0.522
718.05	0.523
718.23	0.526
718.42	0.529
718.60	0.530
718.79	0.538
718.97	0.541
719.16	0.541
719.34	0.538
719.53	0.536
719.71	0.536
719.90	0.538
720.08	0.535
720.27	0.535
720.45	0.535
720.63	0.534
720.82	0.528
721.00	0.530
721.19	0.534
721.37	0.533
721.56	0.534
721.74	0.537
721.93	0.545
722.11	0.552
722.30	0.551
722.48	0.555
722.66	0.556
722.85	0.556
723.03	0.556
723.22	0.554
723.40	0.557
723.59	0.557
723.77	0.560
723.95	0.555
724.14	0.556
724.32	0.558
724.51	0.557
724.69	0.559
724.88	0.559
725.06	0.557
725.24	0.558
725.43	0.560
725.61	0.562
725.80	0.557
725.98	0.555
726.16	0.551
726.35	0.557
726.53	0.556
726.72	0.555
726.90	0.566
727.09	0.567
727.27	0.572
727.45	0.569
727.64	0.578
727.82	0.587
728.01	0.591
728.19	0.589
728.37	0.594
728.56	0.597
728.74	0.603
728.92	0.591
729.11	0.593
729.29	0.592
729.48	0.595
729.66	0.584
729.84	0.583
730.03	0.586
730.21	0.587
730.40	0.577
730.58	0.578
730.76	0.580
730.95	0.582
731.13	0.581
731.31	0.595
731.50	0.604
731.68	0.607
731.86	0.604
732.05	0.617
732.23	0.621
732.42	0.626
732.60	0.629
732.78	0.635
732.97	0.652
733.15	0.659
733.33	0.646
733.52	0.651
733.70	0.661
733.88	0.670
734.07	0.657
734.25	0.680
734.43	0.687
734.62	0.691
734.80	0.684
734.98	0.675
735.17	0.681
735.35	0.687
735.53	0.677
735.72	0.681
735.90	0.703
736.08	0.721
736.27	0.698
736.45	0.708
736.63	0.719
736.82	0.731
737.00	0.731
737.18	0.742
737.37	0.774
737.55	0.796
737.73	0.790
737.92	0.792
738.10	0.787
738.28	0.809
738.46	0.795
738.65	0.806
738.83	0.825
739.01	0.875
739.20	0.864
739.38	0.848
739.56	0.838
739.75	0.844
739.93	0.808
740.11	0.833
740.29	0.834
740.48	0.839
740.66	0.819
740.84	0.816
741.03	0.781
741.21	0.789
741.39	0.768
741.57	0.781
741.76	0.792
741.94	0.799
742.12	0.768
742.31	0.774
742.49	0.795
742.67	0.816
742.85	0.824
743.04	0.830
743.22	0.841
743.40	0.895
743.58	0.879
743.77	0.900
743.95	0.934
744.13	0.976
744.31	0.956
744.50	0.946
744.68	0.944
744.86	0.927
745.04	0.933
745.23	0.994
745.41	0.974
745.59	0.982
745.77	0.945
745.96	0.934
746.14	0.943
746.32	0.939
746.50	0.934
746.69	0.920
746.87	0.922
747.05	0.912
747.23	0.845
747.42	0.830
747.60	0.850
747.78	0.852
747.96	0.877
748.14	0.840
748.33	0.867
748.51	0.862
748.69	0.855
748.87	0.886
749.06	0.875
749.24	0.873
749.42	0.860
749.60	0.844
749.78	0.855
749.97	0.815
750.15	0.806
750.33	0.806
750.51	0.825
750.69	0.830
750.88	0.830
751.06	0.841
751.24	0.865
751.42	0.860
751.60	0.854
751.79	0.919
751.97	0.964
752.15	0.968
752.33	0.936
752.51	0.996
752.69	1.013
752.88	0.989
753.06	1.039
753.24	1.015
753.42	1.046
753.60	1.207
753.78	1.074
753.97	1.083
754.15	1.093
754.33	1.129
754.51	1.014
754.69	0.996
754.87	1.023
755.06	0.955
755.24	0.956
755.42	0.964
755.60	0.869
755.78	0.875
755.96	0.827
756.15	0.828
756.33	0.831
756.51	0.849
756.69	0.838
756.87	0.805
757.05	0.821
757.23	0.805
757.42	0.774
757.60	0.772
757.78	0.761
757.96	0.759
758.14	0.744
758.32	0.730
758.50	0.739
758.69	0.737
758.87	0.731
759.05	0.734
759.23	0.746
759.41	0.743
759.59	0.734
759.77	0.754
759.95	0.778
760.13	0.823
760.32	0.822
760.50	0.816
760.68	0.838
760.86	0.839
761.04	0.816
761.22	0.819
761.40	0.870
761.58	0.870
761.76	0.845
761.95	0.830
762.13	0.790
762.31	0.792
762.49	0.764
762.67	0.781
762.85	0.795
763.03	0.792
763.21	0.773
763.39	0.753
763.57	0.756
763.75	0.753
763.94	0.739
764.12	0.738
764.30	0.760
764.48	0.766
764.66	0.730
764.84	0.727
765.02	0.761
765.20	0.768
765.38	0.750
765.56	0.756
765.74	0.792
765.92	0.791
766.10	0.798
766.28	0.793
766.46	0.816
766.65	0.817
766.83	0.804
767.01	0.791
767.19	0.797
767.37	0.797
767.55	0.786
767.73	0.767
767.91	0.767
768.09	0.757
768.27	0.745
768.45	0.736
768.63	0.744
768.81	0.745
768.99	0.718
769.17	0.740
769.35	0.753
769.53	0.750
769.71	0.734
769.89	0.744
770.07	0.748
770.25	0.732
770.43	0.713
770.61	0.731
770.79	0.739
770.97	0.749
771.15	0.720
771.33	0.721
771.51	0.724
771.69	0.731
771.87	0.739
772.05	0.743
772.24	0.750
772.42	0.758
772.60	0.740
772.78	0.793
772.96	0.818
773.14	0.812
773.32	0.792
773.49	0.801
773.67	0.800
773.85	0.779
774.03	0.770
774.21	0.798
774.39	0.808
774.57	0.829
774.75	0.765
774.93	0.760
775.11	0.785
775.29	0.793
775.47	0.793
775.65	0.803
775.83	0.821
776.01	0.844
776.19	0.803
776.37	0.806
776.55	0.805
776.73	0.799
776.91	0.795
777.09	0.777
777.27	0.774
777.45	0.764
777.63	0.742
777.81	0.738
777.99	0.723
778.17	0.722
778.35	0.703
778.53	0.690
778.71	0.697
778.89	0.686
779.07	0.677
779.24	0.682
779.42	0.684
779.60	0.700
779.78	0.697
779.96	0.702
780.14	0.708
780.32	0.727
780.50	0.713
780.68	0.710
780.86	0.704
781.04	0.719
781.22	0.723
781.40	0.732
781.58	0.725
781.75	0.718
781.93	0.704
782.11	0.706
782.29	0.692
782.47	0.691
782.65	0.680
782.83	0.707
783.01	0.700
783.19	0.694
783.37	0.678
783.55	0.680
783.72	0.696
783.90	0.705
784.08	0.697
784.26	0.707
784.44	0.727
784.62	0.730
784.80	0.699
784.98	0.705
785.16	0.710
785.33	0.726
785.51	0.714
785.69	0.703
785.87	0.702
786.05	0.713
786.23	0.711
786.41	0.707
786.59	0.714
786.77	0.714
786.94	0.702
787.12	0.708
787.30	0.709
787.48	0.705
787.66	0.692
787.84	0.692
788.02	0.681
788.19	0.679
788.37	0.667
788.55	0.667
788.73	0.668
788.91	0.662
789.09	0.645
789.27	0.634
789.44	0.647
789.62	0.655
789.80	0.663
789.98	0.688
790.16	0.674
790.34	0.669
790.51	0.658
790.69	0.678
790.87	0.683
791.05	0.681
791.23	0.675
791.41	0.675
791.58	0.682
791.76	0.662
791.94	0.633
792.12	0.641
792.30	0.645
792.48	0.642
792.65	0.635
792.83	0.641
793.01	0.649
793.19	0.646
793.37	0.632
793.54	0.627
793.72	0.640
793.90	0.639
794.08	0.630
794.26	0.630
794.43	0.638
794.61	0.622
794.79	0.610
794.97	0.609
795.15	0.615
795.32	0.618
795.50	0.609
795.68	0.603
795.86	0.606
796.04	0.607
796.21	0.602
796.39	0.601
796.57	0.614
796.75	0.623
796.92	0.624
797.10	0.628
797.28	0.631
797.46	0.634
797.64	0.636
797.81	0.645
797.99	0.648
798.17	0.651
798.35	0.644
798.52	0.645
798.70	0.640
798.88	0.648
799.06	0.646
799.23	0.649
799.41	0.656
799.59	0.647
799.77	0.635
799.94	0.643
800.12	0.655
800.30	0.673
800.48	0.674
800.65	0.674
800.83	0.664
801.01	0.656
801.19	0.656
801.36	0.653
801.54	0.658
801.72	0.668
801.90	0.654
802.07	0.648
802.25	0.632
802.43	0.618
802.60	0.615
802.78	0.620
802.96	0.626
803.14	0.621
803.31	0.619
803.49	0.618
803.67	0.615
803.84	0.620
804.02	0.613
804.20	0.616
804.38	0.620
804.55	0.617
804.73	0.605
804.91	0.605
805.08	0.616
805.26	0.613
805.44	0.676
805.61	0.679
805.79	0.680
805.97	0.679
806.15	0.671
806.32	0.666
806.50	0.673
806.68	0.675
806.85	0.667
807.03	0.658
807.21	0.673
807.38	0.606
807.56	0.597
807.74	0.603
807.91	0.609
808.09	0.613
808.27	0.632
808.44	0.657
808.62	0.664
808.80	0.666
808.97	0.660
809.15	0.654
809.33	0.671
809.50	0.677
809.68	0.666
809.86	0.673
810.03	0.703
810.21	0.682
810.39	0.664
810.56	0.671
810.74	0.691
810.91	0.762
811.09	0.753
811.27	0.772
811.44	0.778
811.62	0.782
811.80	0.767
811.97	0.736
812.15	0.734
812.33	0.731
812.50	0.715
812.68	0.704
812.85	0.650
813.03	0.652
813.21	0.624
813.38	0.617
813.56	0.618
813.74	0.630
813.91	0.639
814.09	0.669
814.26	0.661
814.44	0.666
814.62	0.655
814.79	0.658
814.97	0.663
815.14	0.664
815.32	0.668
815.50	0.681
815.67	0.682
815.85	0.673
816.02	0.662
816.20	0.670
816.38	0.683
816.55	0.689
816.73	0.689
816.90	0.698
817.08	0.726
817.26	0.734
817.43	0.715
817.61	0.735
817.78	0.753
817.96	0.734
818.13	0.723
818.31	0.725
818.49	0.735
818.66	0.727
818.84	0.714
819.01	0.694
819.19	0.700
819.36	0.704
819.54	0.676
819.71	0.713
819.89	0.725
820.07	0.738
820.24	0.732
820.42	0.734
820.59	0.750
820.77	0.773
820.94	0.764
821.12	0.781
821.29	0.795
821.47	0.801
821.64	0.743
821.82	0.758
822.00	0.753
822.17	0.748
822.35	0.743
822.52	0.743
822.70	0.730
822.87	0.740
823.05	0.720
823.22	0.729
823.40	0.750
823.57	0.770
823.75	0.750
823.92	0.774
824.10	0.793
824.27	0.829
824.45	0.824
824.62	0.880
824.80	0.894
824.97	0.906
825.15	0.894
825.32	0.909
825.50	0.908
825.67	0.923
825.85	0.900
826.02	0.916
826.20	0.933
826.37	1.047
826.55	0.970
826.72	1.135
826.90	1.205
827.07	1.259
827.25	1.204
827.42	1.343
827.60	1.456
827.77	1.612
827.95	1.583
828.12	1.677
828.30	1.357
828.47	1.462
828.65	1.157
828.82	1.200
829.00	1.227
829.17	1.285
829.34	1.294
829.52	1.304
829.69	-0.000
829.87	-0.000
830.04	-0.000
830.22	-0.000
830.39	-0.000
830.57	-0.000
830.74	-0.000
830.92	-0.000
831.09	-0.000
831.26	-0.000
831.44	-0.000
831.61	-0.000
831.79	-0.000
831.96	-0.000
832.14	-0.000
832.31	-0.000
832.49	-0.000
832.66	-0.000
832.83	-0.000
833.01	-0.000
833.18	-0.000
833.36	-0.000
833.53	-0.000
833.70	-0.000
833.88	-0.000
834.05	-0.000
834.23	-0.000
834.40	-0.000
834.58	-0.000
834.75	-0.000
834.92	-0.000
835.10	-0.000
835.27	-0.000
835.45	-0.000
835.62	-0.000
835.79	-0.000
835.97	-0.000
836.14	-0.000
836.32	-0.000
836.49	-0.000
836.66	-0.000
836.84	-0.000
837.01	-0.000
837.18	-0.000
837.36	-0.000
837.53	-0.000
837.71	-0.000
837.88	-0.000
838.05	-0.000
838.23	-0.000
838.40	-0.000
838.58	-0.000
838.75	-0.000
838.92	-0.000
839.10	-0.000
839.27	-0.000
839.44	-0.000
839.62	-0.000
839.79	-0.000
839.96	-0.000
840.14	-0.000
840.31	-0.000
840.48	-0.000
840.66	-0.000
840.83	-0.000
841.01	-0.000
841.18	-0.000
841.35	-0.000
841.53	-0.000
841.70	-0.000
841.87	-0.000
842.05	-0.000
842.22	-0.000
842.39	-0.000
842.57	-0.000
842.74	-0.000
842.91	-0.000
843.09	-0.000
843.26	-0.000
843.43	-0.000
843.60	-0.000
843.78	-0.000
843.95	-0.000
844.12	-0.000
844.30	-0.000
844.47	-0.000
844.64	-0.000
844.82	-0.000
844.99	-0.000
845.16	-0.000
845.34	-0.000
845.51	-0.000
845.68	-0.000
845.85	-0.000
846.03	-0.000
846.20	-0.000
846.37	-0.000
846.55	-0.000
846.72	-0.000
846.89	-0.000
847.06	-0.000
847.24	-0.000
847.41	-0.000
847.58	-0.000
847.76	-0.000
847.93	-0.000
848.10	-0.000
848.27	-0.000
848.45	-0.000
848.62	-0.000
848.79	-0.000
848.97	-0.000
849.14	-0.000
849.31	-0.000
849.48	-0.000
849.66	-0.000
849.83	-0.000
850.00	-0.000
850.17	-0.000
850.35	-0.000
850.52	-0.000
850.69	-0.000
850.86	-0.000
851.04	-0.000
851.21	-0.000
851.38	-0.000
851.55	-0.000
851.72	-0.000
851.90	-0.000
852.07	-0.000
852.24	-0.000
852.41	-0.000
852.59	-0.000
852.76	-0.000
852.93	-0.000
853.10	-0.000
853.28	-0.000
853.45	-0.000
853.62	-0.000
853.79	-0.000
853.96	-0.000
854.14	-0.000
854.31	-0.000
854.48	-0.000
854.65	-0.000
854.82	-0.000
855.00	-0.000
855.17	-0.000
855.34	-0.000
855.51	-0.000
855.68	-0.000
855.86	-0.000
856.03	-0.000
856.20	-0.000
856.37	-0.000
856.54	-0.000
856.72	-0.000
856.89	-0.000
857.06	-0.000
857.23	-0.000
857.40	-0.000
857.57	-0.000
857.75	-0.000
857.92	-0.000
858.09	-0.000
858.26	-0.000
858.43	-0.000
858.60	-0.000
858.78	-0.000
858.95	-0.000
859.12	-0.000
859.29	-0.000
859.46	-0.000
859.63	-0.000
859.81	-0.000
859.98	-0.000
860.15	-0.000
860.32	-0.000
860.49	-0.000
860.66	-0.000
860.83	-0.000
861.01	-0.000
861.18	-0.000
861.35	-0.000
861.52	-0.000
861.69	-0.000
861.86	-0.000
862.03	-0.000
862.21	-0.000
862.38	-0.000
862.55	-0.000
862.72	-0.000
862.89	-0.000
863.06	-0.000
863.23	-0.000
863.40	-0.000
863.58	-0.000
863.75	-0.000
863.92	-0.000
864.09	-0.000
864.26	-0.000
864.43	-0.000
864.60	-0.000
864.77	-0.000
864.94	-0.000
865.11	-0.000
865.29	-0.000
865.46	-0.000
865.63	-0.000
865.80	-0.000
865.97	-0.000
866.14	-0.000
866.31	-0.000
866.48	-0.000
866.65	-0.000
866.82	-0.000
866.99	-0.000
867.16	-0.000
867.34	-0.000
867.51	-0.000
867.68	-0.000
867.85	-0.000
868.02	-0.000
868.19	-0.000
868.36	-0.000
868.53	-0.000
868.70	-0.000
868.87	-0.000
869.04	-0.000
869.21	-0.000
869.38	-0.000
869.55	-0.000
869.72	-0.000
869.89	-0.000
870.06	-0.000
870.24	-0.000
870.41	-0.000
870.58	-0.000
870.75	-0.000
870.92	-0.000
871.09	-0.000
871.26	-0.000
871.43	-0.000
871.60	-0.000
871.77	-0.000
871.94	-0.000
872.11	-0.000
872.28	-0.000
872.45	-0.000
872.62	-0.000
872.79	-0.000
872.96	-0.000
873.13	-0.000
873.30	-0.000
873.47	-0.000
873.64	-0.000
873.81	-0.000
873.98	-0.000
874.15	-0.000
874.32	-0.000
874.49	-0.000
874.66	-0.000
874.83	-0.000
875.00	-0.000
875.17	-0.000
875.34	-0.000
875.51	-0.000
875.68	-0.000
875.85	-0.000
876.02	-0.000
876.19	-0.000
876.36	-0.000
876.53	-0.000
876.70	-0.000
876.87	-0.000
877.04	-0.000
877.21	-0.000
877.38	-0.000
877.55	-0.000
877.72	-0.000
877.89	-0.000
878.06	-0.000
878.23	-0.000
878.39	-0.000
878.56	-0.000
878.73	-0.000
878.90	-0.000
879.07	-0.000
879.24	-0.000
879.41	-0.000
879.58	-0.000
879.75	-0.000
879.92	-0.000
880.09	-0.000
880.26	-0.000
880.43	-0.000
880.60	-0.000
880.77	-0.000
880.94	-0.000
881.11	-0.000
881.27	-0.000
881.44	-0.000
881.61	-0.000
881.78	-0.000
881.95	-0.000
882.12	-0.000
882.29	-0.000
882.46	-0.000
882.63	-0.000
882.80	-0.000
882.97	-0.000
883.14	-0.000
883.30	-0.000
883.47	-0.000
883.64	-0.000
883.81	-0.000
883.98	-0.000
884.15	-0.000
884.32	-0.000
884.49	-0.000
884.66	-0.000
884.82	-0.000
884.99	-0.000
885.16	-0.000
885.33	-0.000
885.50	-0.000
885.67	-0.000
885.84	-0.000
886.01	-0.000
886.17	-0.000
886.34	-0.000
886.51	-0.000
886.68	-0.000
886.85	-0.000
887.02	-0.000
887.19	-0.000
887.36	-0.000
887.52	-0.000
887.69	-0.000
887.86	-0.000
888.03	-0.000
888.20	-0.000
888.37	-0.000
888.54	-0.000
888.70	-0.000
888.87	-0.000
889.04	-0.000
889.21	-0.000
889.38	-0.000
889.55	-0.000
889.71	-0.000
889.88	-0.000
890.05	-0.000
890.22	-0.000
890.39	-0.000
>>>>>End Processed Spectral Data<<<<<
