SpectraSuite Data File
++++++++++++++++++++++++++++++++++++
Date: Fri Jun 19 15:49:24 CEST 2015
User: introlabs
Dark Spectrum Present: Yes
Reference Spectrum Present: Yes
Number of Sampled Component Spectra: 1
Spectrometers: USB4H08886
Integration Time (usec): 745692 (USB4H08886)
Spectra Averaged: 5 (USB4H08886)
Boxcar Smoothing: 5 (USB4H08886)
Correct for Electrical Dark: Yes (USB4H08886)
Strobe/Lamp Enabled: No (USB4H08886)
Correct for Detector Non-linearity: Yes (USB4H08886)
Correct for Stray Light: Yes (USB4H08886)
Number of Pixels in Processed Spectrum: 3648
>>>>>Begin Processed Spectral Data<<<<<
178.14	-0.000
178.36	-0.000
178.57	-0.000
178.79	-0.000
179.01	-0.000
179.22	-0.000
179.44	-0.000
179.65	-0.000
179.87	-0.000
180.08	-0.000
180.30	-0.000
180.52	-0.000
180.73	-0.000
180.95	-0.000
181.16	-0.000
181.38	-0.000
181.59	-0.000
181.81	-0.000
182.03	-0.000
182.24	-0.000
182.46	-0.000
182.67	-0.000
182.89	-0.000
183.10	-0.000
183.32	-0.000
183.54	-0.000
183.75	-0.000
183.97	-0.000
184.18	-0.000
184.40	-0.000
184.61	-0.000
184.83	-0.000
185.04	-0.000
185.26	-0.000
185.48	-0.000
185.69	-0.000
185.91	-0.000
186.12	-0.000
186.34	-0.000
186.55	-0.000
186.77	-0.000
186.98	-0.000
187.20	-0.000
187.42	-0.000
187.63	-0.000
187.85	-0.000
188.06	-0.000
188.28	-0.000
188.49	-0.000
188.71	-0.000
188.92	-0.000
189.14	-0.000
189.36	-0.000
189.57	-0.000
189.79	-0.000
190.00	-0.000
190.22	-0.000
190.43	-0.000
190.65	-0.000
190.86	-0.000
191.08	-0.000
191.29	-0.000
191.51	-0.000
191.72	-0.000
191.94	-0.000
192.16	-0.000
192.37	-0.000
192.59	-0.000
192.80	-0.000
193.02	-0.000
193.23	-0.000
193.45	-0.000
193.66	-0.000
193.88	-0.000
194.09	-0.000
194.31	-0.000
194.52	-0.000
194.74	-0.000
194.95	-0.000
195.17	-0.000
195.38	-0.000
195.60	-0.000
195.81	-0.000
196.03	-0.000
196.25	-0.000
196.46	-0.000
196.68	-0.000
196.89	-0.000
197.11	-0.000
197.32	-0.000
197.54	-0.000
197.75	-0.000
197.97	-0.000
198.18	-0.000
198.40	-0.000
198.61	-0.000
198.83	-0.000
199.04	-0.000
199.26	-0.000
199.47	-0.000
199.69	-0.000
199.90	-0.000
200.12	-0.000
200.33	-0.000
200.55	-0.000
200.76	-0.000
200.98	-0.000
201.19	-0.000
201.41	-0.000
201.62	-0.000
201.84	-0.000
202.05	-0.000
202.27	-0.000
202.48	-0.000
202.70	-0.000
202.91	-0.000
203.13	-0.000
203.34	-0.000
203.56	-0.000
203.77	-0.000
203.99	-0.000
204.20	-0.000
204.42	-0.000
204.63	-0.000
204.85	-0.000
205.06	-0.000
205.28	-0.000
205.49	-0.000
205.71	-0.000
205.92	-0.000
206.14	-0.000
206.35	-0.000
206.56	-0.000
206.78	-0.000
206.99	-0.000
207.21	-0.000
207.42	-0.000
207.64	-0.000
207.85	-0.000
208.07	-0.000
208.28	-0.000
208.50	-0.000
208.71	-0.000
208.93	-0.000
209.14	-0.000
209.36	-0.000
209.57	-0.000
209.79	-0.000
210.00	-0.000
210.22	-0.000
210.43	-0.000
210.64	-0.000
210.86	-0.000
211.07	-0.000
211.29	-0.000
211.50	-0.000
211.72	-0.000
211.93	-0.000
212.15	-0.000
212.36	-0.000
212.58	-0.000
212.79	-0.000
213.01	-0.000
213.22	-0.000
213.43	-0.000
213.65	-0.000
213.86	-0.000
214.08	-0.000
214.29	-0.000
214.51	-0.000
214.72	-0.000
214.94	-0.000
215.15	-0.000
215.36	-0.000
215.58	-0.000
215.79	-0.000
216.01	-0.000
216.22	-0.000
216.44	-0.000
216.65	-0.000
216.87	-0.000
217.08	-0.000
217.29	-0.000
217.51	-0.000
217.72	-0.000
217.94	-0.000
218.15	-0.000
218.37	-0.000
218.58	-0.000
218.80	-0.000
219.01	-0.000
219.22	-0.000
219.44	-0.000
219.65	-0.000
219.87	-0.000
220.08	-0.000
220.30	-0.000
220.51	-0.000
220.72	-0.000
220.94	-0.000
221.15	-0.000
221.37	-0.000
221.58	-0.000
221.79	-0.000
222.01	-0.000
222.22	-0.000
222.44	-0.000
222.65	-0.000
222.87	-0.000
223.08	-0.000
223.29	-0.000
223.51	-0.000
223.72	-0.000
223.94	-0.000
224.15	-0.000
224.36	-0.000
224.58	-0.000
224.79	-0.000
225.01	-0.000
225.22	-0.000
225.44	-0.000
225.65	-0.000
225.86	-0.000
226.08	-0.000
226.29	-0.000
226.51	-0.000
226.72	-0.000
226.93	-0.000
227.15	-0.000
227.36	-0.000
227.58	-0.000
227.79	-0.000
228.00	-0.000
228.22	-0.000
228.43	-0.000
228.65	-0.000
228.86	-0.000
229.07	-0.000
229.29	-0.000
229.50	-0.000
229.72	-0.000
229.93	-0.000
230.14	-0.000
230.36	-0.000
230.57	-0.000
230.78	-0.000
231.00	-0.000
231.21	-0.000
231.43	-0.000
231.64	-0.000
231.85	-0.000
232.07	-0.000
232.28	-0.000
232.50	-0.000
232.71	-0.000
232.92	-0.000
233.14	-0.000
233.35	-0.000
233.56	-0.000
233.78	-0.000
233.99	-0.000
234.21	-0.000
234.42	-0.000
234.63	-0.000
234.85	-0.000
235.06	-0.000
235.27	-0.000
235.49	-0.000
235.70	-0.000
235.91	-0.000
236.13	-0.000
236.34	-0.000
236.56	-0.000
236.77	-0.000
236.98	-0.000
237.20	-0.000
237.41	-0.000
237.62	-0.000
237.84	-0.000
238.05	-0.000
238.26	-0.000
238.48	-0.000
238.69	-0.000
238.91	-0.000
239.12	-0.000
239.33	-0.000
239.55	-0.000
239.76	-0.000
239.97	-0.000
240.19	-0.000
240.40	-0.000
240.61	-0.000
240.83	-0.000
241.04	-0.000
241.25	-0.000
241.47	-0.000
241.68	-0.000
241.89	-0.000
242.11	-0.000
242.32	-0.000
242.53	-0.000
242.75	-0.000
242.96	-0.000
243.17	-0.000
243.39	-0.000
243.60	-0.000
243.81	-0.000
244.03	-0.000
244.24	-0.000
244.45	-0.000
244.67	-0.000
244.88	-0.000
245.09	-0.000
245.31	-0.000
245.52	-0.000
245.73	-0.000
245.95	-0.000
246.16	-0.000
246.37	-0.000
246.59	-0.000
246.80	-0.000
247.01	-0.000
247.23	-0.000
247.44	-0.000
247.65	-0.000
247.87	-0.000
248.08	-0.000
248.29	-0.000
248.51	-0.000
248.72	-0.000
248.93	-0.000
249.15	-0.000
249.36	-0.000
249.57	-0.000
249.78	-0.000
250.00	-0.000
250.21	-0.000
250.42	-0.000
250.64	-0.000
250.85	-0.000
251.06	-0.000
251.28	-0.000
251.49	-0.000
251.70	-0.000
251.92	-0.000
252.13	-0.000
252.34	-0.000
252.55	-0.000
252.77	-0.000
252.98	-0.000
253.19	-0.000
253.41	-0.000
253.62	-0.000
253.83	-0.000
254.05	-0.000
254.26	-0.000
254.47	-0.000
254.68	-0.000
254.90	-0.000
255.11	-0.000
255.32	-0.000
255.54	-0.000
255.75	-0.000
255.96	-0.000
256.17	-0.000
256.39	-0.000
256.60	-0.000
256.81	-0.000
257.03	-0.000
257.24	-0.000
257.45	-0.000
257.66	-0.000
257.88	-0.000
258.09	-0.000
258.30	-0.000
258.51	-0.000
258.73	-0.000
258.94	-0.000
259.15	-0.000
259.37	-0.000
259.58	-0.000
259.79	-0.000
260.00	-0.000
260.22	-0.000
260.43	-0.000
260.64	-0.000
260.85	-0.000
261.07	-0.000
261.28	-0.000
261.49	-0.000
261.71	-0.000
261.92	-0.000
262.13	-0.000
262.34	-0.000
262.56	-0.000
262.77	-0.000
262.98	-0.000
263.19	-0.000
263.41	-0.000
263.62	-0.000
263.83	-0.000
264.04	-0.000
264.26	-0.000
264.47	-0.000
264.68	-0.000
264.89	-0.000
265.11	-0.000
265.32	-0.000
265.53	-0.000
265.74	-0.000
265.96	-0.000
266.17	-0.000
266.38	-0.000
266.59	-0.000
266.81	-0.000
267.02	-0.000
267.23	-0.000
267.44	-0.000
267.65	-0.000
267.87	-0.000
268.08	-0.000
268.29	-0.000
268.50	-0.000
268.72	-0.000
268.93	-0.000
269.14	-0.000
269.35	-0.000
269.57	-0.000
269.78	-0.000
269.99	-0.000
270.20	-0.000
270.41	-0.000
270.63	-0.000
270.84	-0.000
271.05	-0.000
271.26	-0.000
271.48	-0.000
271.69	-0.000
271.90	-0.000
272.11	-0.000
272.32	-0.000
272.54	-0.000
272.75	-0.000
272.96	-0.000
273.17	-0.000
273.39	-0.000
273.60	-0.000
273.81	-0.000
274.02	-0.000
274.23	-0.000
274.45	-0.000
274.66	-0.000
274.87	-0.000
275.08	-0.000
275.29	-0.000
275.51	-0.000
275.72	-0.000
275.93	-0.000
276.14	-0.000
276.35	-0.000
276.57	-0.000
276.78	-0.000
276.99	-0.000
277.20	-0.000
277.41	-0.000
277.63	-0.000
277.84	-0.000
278.05	-0.000
278.26	-0.000
278.47	-0.000
278.69	-0.000
278.90	-0.000
279.11	-0.000
279.32	-0.000
279.53	-0.000
279.74	-0.000
279.96	-0.000
280.17	-0.000
280.38	-0.000
280.59	-0.000
280.80	-0.000
281.02	-0.000
281.23	-0.000
281.44	-0.000
281.65	-0.000
281.86	-0.000
282.07	-0.000
282.29	-0.000
282.50	-0.000
282.71	-0.000
282.92	-0.000
283.13	-0.000
283.35	-0.000
283.56	-0.000
283.77	-0.000
283.98	-0.000
284.19	-0.000
284.40	-0.000
284.62	-0.000
284.83	-0.000
285.04	-0.000
285.25	-0.000
285.46	-0.000
285.67	-0.000
285.88	-0.000
286.10	-0.000
286.31	-0.000
286.52	-0.000
286.73	-0.000
286.94	-0.000
287.15	-0.000
287.37	-0.000
287.58	-0.000
287.79	-0.000
288.00	-0.000
288.21	-0.000
288.42	-0.000
288.63	-0.000
288.85	-0.000
289.06	-0.000
289.27	-0.000
289.48	-0.000
289.69	-0.000
289.90	-0.000
290.11	-0.000
290.33	-0.000
290.54	-0.000
290.75	-0.000
290.96	-0.000
291.17	-0.000
291.38	-0.000
291.59	-0.000
291.81	-0.000
292.02	-0.000
292.23	-0.000
292.44	-0.000
292.65	2.673
292.86	-0.000
293.07	3.739
293.28	2.183
293.50	2.411
293.71	2.911
293.92	2.397
294.13	-0.000
294.34	-0.000
294.55	-0.000
294.76	-0.000
294.97	2.471
295.19	-0.000
295.40	-0.000
295.61	-0.000
295.82	2.437
296.03	2.124
296.24	2.115
296.45	1.758
296.66	1.583
296.87	1.601
297.09	1.637
297.30	1.753
297.51	1.557
297.72	1.539
297.93	1.583
298.14	1.561
298.35	1.543
298.56	1.535
298.77	1.614
298.99	1.598
299.20	1.590
299.41	1.570
299.62	1.519
299.83	1.513
300.04	1.474
300.25	1.472
300.46	1.495
300.67	1.477
300.88	1.442
301.10	1.445
301.31	1.487
301.52	1.439
301.73	1.398
301.94	1.399
302.15	1.404
302.36	1.371
302.57	1.327
302.78	1.327
302.99	1.355
303.20	1.372
303.41	1.304
303.63	1.291
303.84	1.291
304.05	1.295
304.26	1.258
304.47	1.261
304.68	1.255
304.89	1.252
305.10	1.227
305.31	1.218
305.52	1.256
305.73	1.252
305.94	1.223
306.15	1.216
306.37	1.230
306.58	1.236
306.79	1.216
307.00	1.241
307.21	1.269
307.42	1.267
307.63	1.237
307.84	1.204
308.05	1.236
308.26	1.236
308.47	1.219
308.68	1.213
308.89	1.207
309.10	1.204
309.31	1.172
309.52	1.164
309.73	1.171
309.95	1.167
310.16	1.143
310.37	1.133
310.58	1.144
310.79	1.144
311.00	1.144
311.21	1.147
311.42	1.145
311.63	1.137
311.84	1.122
312.05	1.119
312.26	1.137
312.47	1.148
312.68	1.129
312.89	1.114
313.10	1.118
313.31	1.097
313.52	1.101
313.73	1.102
313.94	1.104
314.15	1.090
314.36	1.074
314.57	1.067
314.78	1.055
314.99	1.050
315.21	1.041
315.42	1.045
315.63	1.053
315.84	1.033
316.05	1.023
316.26	1.032
316.47	1.046
316.68	1.045
316.89	1.030
317.10	1.047
317.31	1.050
317.52	1.051
317.73	1.034
317.94	1.035
318.15	1.079
318.36	1.080
318.57	1.065
318.78	1.053
318.99	1.081
319.20	1.078
319.41	1.049
319.62	1.052
319.83	1.064
320.04	1.060
320.25	1.047
320.46	1.009
320.67	1.008
320.88	1.004
321.09	0.994
321.30	0.979
321.51	0.992
321.72	0.991
321.93	0.978
322.14	0.971
322.35	0.994
322.56	0.996
322.77	0.988
322.98	0.999
323.19	1.006
323.40	1.012
323.61	0.996
323.82	0.991
324.03	0.994
324.24	0.992
324.45	0.980
324.66	0.963
324.87	0.959
325.08	0.957
325.29	0.939
325.50	0.936
325.71	0.940
325.92	0.948
326.13	0.935
326.34	0.936
326.55	0.943
326.76	0.943
326.97	0.935
327.18	0.930
327.39	0.952
327.60	0.954
327.80	0.952
328.01	0.950
328.22	0.949
328.43	0.952
328.64	0.942
328.85	0.947
329.06	0.948
329.27	0.946
329.48	0.944
329.69	0.927
329.90	0.935
330.11	0.929
330.32	0.923
330.53	0.917
330.74	0.915
330.95	0.914
331.16	0.903
331.37	0.910
331.58	0.909
331.79	0.908
332.00	0.901
332.21	0.895
332.42	0.898
332.63	0.891
332.83	0.888
333.04	0.891
333.25	0.900
333.46	0.897
333.67	0.885
333.88	0.889
334.09	0.898
334.30	0.895
334.51	0.887
334.72	0.883
334.93	0.885
335.14	0.884
335.35	0.877
335.56	0.873
335.77	0.879
335.98	0.879
336.18	0.873
336.39	0.866
336.60	0.868
336.81	0.867
337.02	0.866
337.23	0.870
337.44	0.873
337.65	0.876
337.86	0.868
338.07	0.863
338.28	0.866
338.49	0.864
338.70	0.858
338.91	0.865
339.11	0.871
339.32	0.869
339.53	0.859
339.74	0.856
339.95	0.851
340.16	0.849
340.37	0.843
340.58	0.841
340.79	0.844
341.00	0.843
341.21	0.834
341.41	0.834
341.62	0.834
341.83	0.835
342.04	0.831
342.25	0.840
342.46	0.843
342.67	0.843
342.88	0.839
343.09	0.838
343.30	0.844
343.50	0.847
343.71	0.839
343.92	0.838
344.13	0.842
344.34	0.842
344.55	0.828
344.76	0.826
344.97	0.829
345.18	0.828
345.38	0.825
345.59	0.820
345.80	0.818
346.01	0.815
346.22	0.812
346.43	0.808
346.64	0.814
346.85	0.814
347.06	0.808
347.26	0.808
347.47	0.811
347.68	0.807
347.89	0.805
348.10	0.800
348.31	0.806
348.52	0.805
348.73	0.802
348.93	0.800
349.14	0.801
349.35	0.800
349.56	0.795
349.77	0.791
349.98	0.794
350.19	0.791
350.39	0.788
350.60	0.784
350.81	0.797
351.02	0.796
351.23	0.793
351.44	0.795
351.65	0.797
351.86	0.795
352.06	0.795
352.27	0.795
352.48	0.796
352.69	0.796
352.90	0.791
353.11	0.779
353.31	0.785
353.52	0.782
353.73	0.775
353.94	0.777
354.15	0.782
354.36	0.781
354.57	0.773
354.77	0.776
354.98	0.775
355.19	0.774
355.40	0.774
355.61	0.779
355.82	0.783
356.02	0.783
356.23	0.777
356.44	0.778
356.65	0.781
356.86	0.781
357.07	0.775
357.27	0.778
357.48	0.779
357.69	0.775
357.90	0.760
358.11	0.757
358.32	0.759
358.52	0.761
358.73	0.752
358.94	0.755
359.15	0.758
359.36	0.760
359.56	0.756
359.77	0.753
359.98	0.761
360.19	0.760
360.40	0.758
360.61	0.760
360.81	0.758
361.02	0.759
361.23	0.751
361.44	0.750
361.65	0.750
361.85	0.750
362.06	0.748
362.27	0.749
362.48	0.749
362.69	0.750
362.89	0.744
363.10	0.746
363.31	0.750
363.52	0.752
363.73	0.748
363.93	0.747
364.14	0.748
364.35	0.749
364.56	0.741
364.77	0.743
364.97	0.745
365.18	0.746
365.39	0.742
365.60	0.739
365.81	0.740
366.01	0.739
366.22	0.737
366.43	0.736
366.64	0.738
366.84	0.743
367.05	0.740
367.26	0.739
367.47	0.739
367.68	0.739
367.88	0.737
368.09	0.734
368.30	0.737
368.51	0.736
368.71	0.736
368.92	0.740
369.13	0.738
369.34	0.737
369.55	0.736
369.75	0.737
369.96	0.743
370.17	0.743
370.38	0.740
370.58	0.740
370.79	0.744
371.00	0.742
371.21	0.735
371.41	0.740
371.62	0.744
371.83	0.740
372.04	0.738
372.24	0.732
372.45	0.732
372.66	0.732
372.87	0.730
373.07	0.728
373.28	0.728
373.49	0.731
373.70	0.721
373.90	0.720
374.11	0.728
374.32	0.728
374.53	0.727
374.73	0.727
374.94	0.730
375.15	0.730
375.36	0.728
375.56	0.736
375.77	0.735
375.98	0.736
376.19	0.734
376.39	0.729
376.60	0.732
376.81	0.733
377.02	0.732
377.22	0.731
377.43	0.731
377.64	0.731
377.84	0.722
378.05	0.727
378.26	0.732
378.47	0.732
378.67	0.729
378.88	0.726
379.09	0.726
379.30	0.727
379.50	0.725
379.71	0.727
379.92	0.730
380.12	0.730
380.33	0.723
380.54	0.720
380.75	0.725
380.95	0.726
381.16	0.725
381.37	0.725
381.57	0.725
381.78	0.726
381.99	0.726
382.20	0.725
382.40	0.728
382.61	0.729
382.82	0.726
383.02	0.720
383.23	0.723
383.44	0.723
383.64	0.721
383.85	0.724
384.06	0.726
384.27	0.723
384.47	0.722
384.68	0.722
384.89	0.727
385.09	0.726
385.30	0.727
385.51	0.725
385.71	0.728
385.92	0.730
386.13	0.729
386.33	0.732
386.54	0.732
386.75	0.732
386.95	0.728
387.16	0.724
387.37	0.726
387.58	0.725
387.78	0.724
387.99	0.722
388.20	0.723
388.40	0.720
388.61	0.716
388.82	0.720
389.02	0.722
389.23	0.722
389.44	0.722
389.64	0.722
389.85	0.733
390.06	0.732
390.26	0.733
390.47	0.733
390.68	0.734
390.88	0.733
391.09	0.729
391.30	0.728
391.50	0.728
391.71	0.729
391.92	0.726
392.12	0.719
392.33	0.720
392.53	0.721
392.74	0.721
392.95	0.721
393.15	0.723
393.36	0.724
393.57	0.722
393.77	0.725
393.98	0.726
394.19	0.726
394.39	0.726
394.60	0.727
394.81	0.728
395.01	0.726
395.22	0.725
395.43	0.726
395.63	0.731
395.84	0.733
396.04	0.729
396.25	0.732
396.46	0.734
396.66	0.732
396.87	0.730
397.08	0.728
397.28	0.730
397.49	0.731
397.69	0.728
397.90	0.723
398.11	0.724
398.31	0.724
398.52	0.721
398.73	0.722
398.93	0.721
399.14	0.720
399.34	0.720
399.55	0.721
399.76	0.721
399.96	0.722
400.17	0.721
400.37	0.720
400.58	0.726
400.79	0.729
400.99	0.727
401.20	0.733
401.41	0.735
401.61	0.735
401.82	0.741
402.02	0.740
402.23	0.741
402.44	0.741
402.64	0.740
402.85	0.734
403.05	0.732
403.26	0.731
403.47	0.725
403.67	0.725
403.88	0.725
404.08	0.719
404.29	0.718
404.50	0.718
404.70	0.718
404.91	0.717
405.11	0.715
405.32	0.716
405.52	0.716
405.73	0.715
405.94	0.714
406.14	0.716
406.35	0.718
406.55	0.718
406.76	0.717
406.97	0.718
407.17	0.720
407.38	0.720
407.58	0.719
407.79	0.722
407.99	0.724
408.20	0.725
408.41	0.721
408.61	0.719
408.82	0.720
409.02	0.719
409.23	0.717
409.43	0.715
409.64	0.717
409.84	0.716
410.05	0.713
410.26	0.712
410.46	0.710
410.67	0.710
410.87	0.712
411.08	0.713
411.28	0.714
411.49	0.716
411.69	0.714
411.90	0.715
412.11	0.716
412.31	0.717
412.52	0.716
412.72	0.717
412.93	0.717
413.13	0.717
413.34	0.714
413.54	0.715
413.75	0.717
413.95	0.717
414.16	0.714
414.37	0.717
414.57	0.717
414.78	0.719
414.98	0.717
415.19	0.719
415.39	0.715
415.60	0.718
415.80	0.717
416.01	0.715
416.21	0.716
416.42	0.716
416.62	0.712
416.83	0.711
417.03	0.711
417.24	0.711
417.44	0.709
417.65	0.709
417.86	0.709
418.06	0.707
418.27	0.706
418.47	0.707
418.68	0.708
418.88	0.708
419.09	0.708
419.29	0.708
419.50	0.709
419.70	0.708
419.91	0.707
420.11	0.705
420.32	0.707
420.52	0.706
420.73	0.705
420.93	0.706
421.14	0.707
421.34	0.705
421.55	0.702
421.75	0.702
421.96	0.703
422.16	0.702
422.37	0.702
422.57	0.699
422.78	0.700
422.98	0.696
423.19	0.695
423.39	0.693
423.60	0.697
423.80	0.699
424.01	0.697
424.21	0.700
424.42	0.701
424.62	0.700
424.83	0.700
425.03	0.701
425.23	0.703
425.44	0.703
425.64	0.703
425.85	0.701
426.05	0.702
426.26	0.702
426.46	0.699
426.67	0.698
426.87	0.702
427.08	0.703
427.28	0.701
427.49	0.702
427.69	0.702
427.90	0.701
428.10	0.700
428.31	0.700
428.51	0.702
428.71	0.701
428.92	0.702
429.12	0.699
429.33	0.699
429.53	0.703
429.74	0.707
429.94	0.707
430.15	0.706
430.35	0.706
430.56	0.702
430.76	0.701
430.96	0.701
431.17	0.699
431.37	0.696
431.58	0.694
431.78	0.690
431.99	0.683
432.19	0.685
432.40	0.687
432.60	0.687
432.80	0.690
433.01	0.689
433.21	0.688
433.42	0.690
433.62	0.690
433.83	0.690
434.03	0.693
434.23	0.696
434.44	0.695
434.64	0.693
434.85	0.698
435.05	0.699
435.26	0.699
435.46	0.699
435.66	0.698
435.87	0.698
436.07	0.698
436.28	0.694
436.48	0.690
436.69	0.689
436.89	0.689
437.09	0.683
437.30	0.681
437.50	0.681
437.71	0.693
437.91	0.692
438.11	0.693
438.32	0.697
438.52	0.698
438.73	0.697
438.93	0.696
439.13	0.696
439.34	0.699
439.54	0.697
439.75	0.697
439.95	0.686
440.15	0.691
440.36	0.689
440.56	0.686
440.77	0.686
440.97	0.686
441.17	0.685
441.38	0.686
441.58	0.683
441.79	0.683
441.99	0.682
442.19	0.680
442.40	0.677
442.60	0.677
442.81	0.675
443.01	0.676
443.21	0.676
443.42	0.676
443.62	0.674
443.82	0.674
444.03	0.675
444.23	0.675
444.44	0.675
444.64	0.675
444.84	0.676
445.05	0.675
445.25	0.674
445.45	0.674
445.66	0.676
445.86	0.675
446.06	0.676
446.27	0.676
446.47	0.678
446.68	0.676
446.88	0.675
447.08	0.674
447.29	0.676
447.49	0.675
447.69	0.675
447.90	0.673
448.10	0.676
448.30	0.674
448.51	0.676
448.71	0.674
448.91	0.676
449.12	0.674
449.32	0.676
449.52	0.675
449.73	0.679
449.93	0.678
450.14	0.679
450.34	0.678
450.54	0.680
450.75	0.677
450.95	0.676
451.15	0.676
451.36	0.678
451.56	0.675
451.76	0.674
451.97	0.671
452.17	0.672
452.37	0.670
452.58	0.667
452.78	0.667
452.98	0.669
453.19	0.668
453.39	0.669
453.59	0.668
453.79	0.668
454.00	0.668
454.20	0.668
454.40	0.668
454.61	0.669
454.81	0.670
455.01	0.668
455.22	0.669
455.42	0.670
455.62	0.668
455.83	0.668
456.03	0.671
456.23	0.672
456.44	0.672
456.64	0.672
456.84	0.672
457.04	0.672
457.25	0.672
457.45	0.668
457.65	0.667
457.86	0.669
458.06	0.667
458.26	0.663
458.47	0.663
458.67	0.664
458.87	0.664
459.07	0.662
459.28	0.664
459.48	0.666
459.68	0.666
459.89	0.665
460.09	0.664
460.29	0.664
460.49	0.665
460.70	0.664
460.90	0.663
461.10	0.664
461.31	0.664
461.51	0.661
461.71	0.663
461.91	0.664
462.12	0.663
462.32	0.662
462.52	0.663
462.72	0.666
462.93	0.666
463.13	0.665
463.33	0.666
463.53	0.667
463.74	0.667
463.94	0.662
464.14	0.663
464.35	0.664
464.55	0.665
464.75	0.663
464.95	0.660
465.16	0.662
465.36	0.660
465.56	0.659
465.76	0.659
465.97	0.659
466.17	0.659
466.37	0.658
466.57	0.658
466.78	0.659
466.98	0.659
467.18	0.657
467.38	0.655
467.59	0.657
467.79	0.658
467.99	0.658
468.19	0.659
468.39	0.662
468.60	0.662
468.80	0.660
469.00	0.662
469.20	0.663
469.41	0.663
469.61	0.663
469.81	0.663
470.01	0.662
470.22	0.662
470.42	0.661
470.62	0.659
470.82	0.659
471.02	0.659
471.23	0.657
471.43	0.657
471.63	0.659
471.83	0.659
472.04	0.658
472.24	0.657
472.44	0.662
472.64	0.662
472.84	0.661
473.05	0.661
473.25	0.663
473.45	0.662
473.65	0.660
473.85	0.661
474.06	0.662
474.26	0.662
474.46	0.664
474.66	0.660
474.86	0.660
475.07	0.660
475.27	0.659
475.47	0.656
475.67	0.657
475.87	0.659
476.08	0.656
476.28	0.656
476.48	0.657
476.68	0.655
476.88	0.653
477.09	0.654
477.29	0.656
477.49	0.656
477.69	0.655
477.89	0.655
478.09	0.654
478.30	0.657
478.50	0.655
478.70	0.654
478.90	0.655
479.10	0.657
479.31	0.659
479.51	0.657
479.71	0.658
479.91	0.658
480.11	0.657
480.31	0.657
480.52	0.656
480.72	0.655
480.92	0.654
481.12	0.653
481.32	0.650
481.52	0.648
481.72	0.648
481.93	0.652
482.13	0.652
482.33	0.652
482.53	0.650
482.73	0.651
482.93	0.652
483.14	0.651
483.34	0.651
483.54	0.652
483.74	0.651
483.94	0.650
484.14	0.646
484.34	0.646
484.55	0.647
484.75	0.646
484.95	0.644
485.15	0.643
485.35	0.643
485.55	0.643
485.75	0.641
485.96	0.641
486.16	0.642
486.36	0.641
486.56	0.640
486.76	0.640
486.96	0.640
487.16	0.639
487.36	0.638
487.57	0.638
487.77	0.638
487.97	0.639
488.17	0.637
488.37	0.636
488.57	0.636
488.77	0.636
488.97	0.635
489.18	0.634
489.38	0.636
489.58	0.637
489.78	0.636
489.98	0.636
490.18	0.635
490.38	0.637
490.58	0.636
490.78	0.637
490.98	0.638
491.19	0.639
491.39	0.638
491.59	0.637
491.79	0.641
491.99	0.641
492.19	0.641
492.39	0.644
492.59	0.644
492.79	0.646
492.99	0.646
493.20	0.646
493.40	0.646
493.60	0.648
493.80	0.646
494.00	0.644
494.20	0.644
494.40	0.643
494.60	0.641
494.80	0.644
495.00	0.643
495.20	0.642
495.40	0.641
495.61	0.643
495.81	0.642
496.01	0.645
496.21	0.646
496.41	0.645
496.61	0.645
496.81	0.644
497.01	0.640
497.21	0.639
497.41	0.639
497.61	0.638
497.81	0.636
498.01	0.636
498.21	0.634
498.41	0.632
498.61	0.633
498.82	0.634
499.02	0.637
499.22	0.637
499.42	0.637
499.62	0.638
499.82	0.639
500.02	0.641
500.22	0.640
500.42	0.642
500.62	0.642
500.82	0.642
501.02	0.640
501.22	0.640
501.42	0.639
501.62	0.642
501.82	0.641
502.02	0.641
502.22	0.641
502.42	0.642
502.62	0.640
502.82	0.640
503.02	0.641
503.22	0.640
503.42	0.639
503.63	0.639
503.83	0.636
504.03	0.635
504.23	0.634
504.43	0.634
504.63	0.635
504.83	0.635
505.03	0.634
505.23	0.635
505.43	0.637
505.63	0.637
505.83	0.637
506.03	0.638
506.23	0.639
506.43	0.640
506.63	0.639
506.83	0.638
507.03	0.640
507.23	0.641
507.43	0.638
507.63	0.639
507.83	0.639
508.03	0.639
508.23	0.639
508.43	0.638
508.63	0.640
508.83	0.640
509.03	0.641
509.23	0.640
509.43	0.640
509.63	0.640
509.83	0.639
510.03	0.643
510.23	0.644
510.43	0.644
510.63	0.644
510.83	0.645
511.03	0.646
511.23	0.643
511.43	0.643
511.63	0.645
511.83	0.647
512.03	0.647
512.22	0.644
512.42	0.643
512.62	0.643
512.82	0.643
513.02	0.643
513.22	0.642
513.42	0.644
513.62	0.646
513.82	0.644
514.02	0.644
514.22	0.645
514.42	0.645
514.62	0.645
514.82	0.645
515.02	0.647
515.22	0.650
515.42	0.650
515.62	0.652
515.82	0.651
516.02	0.652
516.22	0.652
516.42	0.654
516.62	0.656
516.82	0.657
517.01	0.656
517.21	0.655
517.41	0.658
517.61	0.658
517.81	0.654
518.01	0.653
518.21	0.653
518.41	0.651
518.61	0.650
518.81	0.650
519.01	0.651
519.21	0.651
519.41	0.650
519.61	0.645
519.81	0.646
520.00	0.647
520.20	0.648
520.40	0.651
520.60	0.652
520.80	0.651
521.00	0.652
521.20	0.652
521.40	0.656
521.60	0.657
521.80	0.656
522.00	0.656
522.20	0.658
522.39	0.657
522.59	0.654
522.79	0.656
522.99	0.658
523.19	0.656
523.39	0.654
523.59	0.653
523.79	0.656
523.99	0.659
524.19	0.658
524.38	0.657
524.58	0.659
524.78	0.659
524.98	0.658
525.18	0.660
525.38	0.660
525.58	0.660
525.78	0.658
525.98	0.657
526.18	0.657
526.37	0.657
526.57	0.658
526.77	0.658
526.97	0.658
527.17	0.658
527.37	0.655
527.57	0.658
527.77	0.659
527.96	0.659
528.16	0.658
528.36	0.658
528.56	0.661
528.76	0.658
528.96	0.658
529.16	0.659
529.36	0.661
529.55	0.661
529.75	0.658
529.95	0.658
530.15	0.659
530.35	0.662
530.55	0.660
530.75	0.660
530.94	0.661
531.14	0.661
531.34	0.660
531.54	0.658
531.74	0.661
531.94	0.665
532.13	0.663
532.33	0.665
532.53	0.663
532.73	0.662
532.93	0.661
533.13	0.662
533.33	0.662
533.52	0.663
533.72	0.666
533.92	0.664
534.12	0.662
534.32	0.662
534.52	0.660
534.71	0.662
534.91	0.664
535.11	0.666
535.31	0.664
535.51	0.666
535.71	0.668
535.90	0.665
536.10	0.666
536.30	0.668
536.50	0.668
536.70	0.668
536.89	0.666
537.09	0.666
537.29	0.668
537.49	0.669
537.69	0.667
537.89	0.668
538.08	0.667
538.28	0.666
538.48	0.666
538.68	0.667
538.88	0.669
539.07	0.669
539.27	0.668
539.47	0.666
539.67	0.666
539.87	0.667
540.06	0.664
540.26	0.665
540.46	0.667
540.66	0.664
540.86	0.662
541.05	0.663
541.25	0.664
541.45	0.664
541.65	0.663
541.84	0.665
542.04	0.665
542.24	0.666
542.44	0.666
542.64	0.667
542.83	0.670
543.03	0.670
543.23	0.668
543.43	0.669
543.62	0.670
543.82	0.671
544.02	0.670
544.22	0.670
544.42	0.673
544.61	0.673
544.81	0.670
545.01	0.668
545.21	0.671
545.40	0.670
545.60	0.669
545.80	0.672
546.00	0.671
546.19	0.670
546.39	0.670
546.59	0.668
546.79	0.669
546.98	0.669
547.18	0.669
547.38	0.670
547.58	0.672
547.77	0.673
547.97	0.669
548.17	0.670
548.37	0.671
548.56	0.670
548.76	0.670
548.96	0.671
549.16	0.673
549.35	0.673
549.55	0.670
549.75	0.671
549.95	0.673
550.14	0.673
550.34	0.672
550.54	0.677
550.73	0.681
550.93	0.681
551.13	0.679
551.33	0.678
551.52	0.678
551.72	0.678
551.92	0.677
552.12	0.678
552.31	0.679
552.51	0.679
552.71	0.674
552.90	0.674
553.10	0.675
553.30	0.675
553.50	0.674
553.69	0.676
553.89	0.676
554.09	0.676
554.28	0.673
554.48	0.674
554.68	0.676
554.87	0.675
555.07	0.672
555.27	0.672
555.47	0.673
555.66	0.674
555.86	0.672
556.06	0.675
556.25	0.675
556.45	0.683
556.65	0.682
556.84	0.685
557.04	0.688
557.24	0.690
557.43	0.690
557.63	0.693
557.83	0.695
558.02	0.695
558.22	0.699
558.42	0.700
558.61	0.693
558.81	0.693
559.01	0.689
559.21	0.689
559.40	0.690
559.60	0.690
559.80	0.687
559.99	0.688
560.19	0.690
560.39	0.684
560.58	0.683
560.78	0.682
560.97	0.685
561.17	0.684
561.37	0.682
561.56	0.683
561.76	0.684
561.96	0.683
562.15	0.682
562.35	0.684
562.55	0.685
562.74	0.684
562.94	0.683
563.14	0.681
563.33	0.682
563.53	0.682
563.73	0.680
563.92	0.682
564.12	0.684
564.31	0.686
564.51	0.684
564.71	0.686
564.90	0.688
565.10	0.689
565.30	0.692
565.49	0.693
565.69	0.695
565.89	0.695
566.08	0.693
566.28	0.695
566.47	0.696
566.67	0.694
566.87	0.692
567.06	0.694
567.26	0.701
567.46	0.697
567.65	0.696
567.85	0.698
568.04	0.700
568.24	0.700
568.44	0.697
568.63	0.695
568.83	0.696
569.02	0.695
569.22	0.691
569.42	0.687
569.61	0.689
569.81	0.687
570.00	0.685
570.20	0.686
570.40	0.687
570.59	0.687
570.79	0.685
570.98	0.684
571.18	0.685
571.38	0.684
571.57	0.682
571.77	0.680
571.96	0.684
572.16	0.681
572.35	0.677
572.55	0.678
572.75	0.675
572.94	0.675
573.14	0.673
573.33	0.673
573.53	0.673
573.73	0.673
573.92	0.671
574.12	0.669
574.31	0.672
574.51	0.673
574.70	0.671
574.90	0.673
575.09	0.675
575.29	0.675
575.49	0.673
575.68	0.674
575.88	0.675
576.07	0.676
576.27	0.674
576.46	0.672
576.66	0.671
576.86	0.670
577.05	0.668
577.25	0.666
577.44	0.667
577.64	0.667
577.83	0.665
578.03	0.667
578.22	0.666
578.42	0.665
578.61	0.664
578.81	0.664
579.00	0.665
579.20	0.664
579.40	0.663
579.59	0.661
579.79	0.662
579.98	0.661
580.18	0.660
580.37	0.660
580.57	0.662
580.76	0.667
580.96	0.665
581.15	0.666
581.35	0.668
581.54	0.667
581.74	0.668
581.93	0.670
582.13	0.671
582.32	0.668
582.52	0.666
582.71	0.665
582.91	0.661
583.10	0.661
583.30	0.660
583.49	0.659
583.69	0.663
583.88	0.663
584.08	0.662
584.27	0.665
584.47	0.668
584.66	0.670
584.86	0.669
585.05	0.671
585.25	0.674
585.44	0.674
585.64	0.672
585.83	0.669
586.03	0.669
586.22	0.667
586.42	0.663
586.61	0.664
586.81	0.665
587.00	0.665
587.20	0.663
587.39	0.663
587.59	0.664
587.78	0.665
587.98	0.665
588.17	0.666
588.37	0.668
588.56	0.670
588.76	0.666
588.95	0.666
589.15	0.670
589.34	0.672
589.54	0.671
589.73	0.672
589.92	0.675
590.12	0.675
590.31	0.674
590.51	0.680
590.70	0.681
590.90	0.682
591.09	0.681
591.29	0.680
591.48	0.680
591.68	0.681
591.87	0.680
592.06	0.679
592.26	0.681
592.45	0.680
592.65	0.674
592.84	0.674
593.04	0.676
593.23	0.678
593.43	0.675
593.62	0.675
593.81	0.674
594.01	0.673
594.20	0.671
594.40	0.669
594.59	0.671
594.79	0.671
594.98	0.670
595.17	0.669
595.37	0.669
595.56	0.672
595.76	0.672
595.95	0.675
596.14	0.677
596.34	0.678
596.53	0.678
596.73	0.680
596.92	0.681
597.12	0.685
597.31	0.685
597.50	0.684
597.70	0.685
597.89	0.684
598.09	0.681
598.28	0.682
598.47	0.684
598.67	0.683
598.86	0.679
599.06	0.681
599.25	0.680
599.44	0.678
599.64	0.676
599.83	0.673
600.03	0.675
600.22	0.675
600.41	0.675
600.61	0.673
600.80	0.674
601.00	0.674
601.19	0.670
601.38	0.669
601.58	0.672
601.77	0.673
601.96	0.675
602.16	0.676
602.35	0.684
602.55	0.683
602.74	0.684
602.93	0.686
603.13	0.692
603.32	0.694
603.51	0.694
603.71	0.698
603.90	0.700
604.09	0.700
604.29	0.698
604.48	0.693
604.68	0.693
604.87	0.692
605.06	0.688
605.26	0.685
605.45	0.685
605.64	0.683
605.84	0.679
606.03	0.677
606.22	0.676
606.42	0.675
606.61	0.672
606.80	0.671
607.00	0.673
607.19	0.673
607.38	0.671
607.58	0.673
607.77	0.674
607.96	0.674
608.16	0.673
608.35	0.676
608.54	0.679
608.74	0.682
608.93	0.686
609.12	0.689
609.32	0.691
609.51	0.694
609.70	0.693
609.90	0.696
610.09	0.700
610.28	0.705
610.48	0.701
610.67	0.702
610.86	0.703
611.06	0.698
611.25	0.695
611.44	0.697
611.64	0.697
611.83	0.699
612.02	0.696
612.21	0.695
612.41	0.693
612.60	0.692
612.79	0.689
612.99	0.689
613.18	0.691
613.37	0.689
613.57	0.687
613.76	0.688
613.95	0.685
614.14	0.685
614.34	0.683
614.53	0.683
614.72	0.685
614.92	0.685
615.11	0.683
615.30	0.679
615.49	0.680
615.69	0.682
615.88	0.679
616.07	0.679
616.26	0.681
616.46	0.681
616.65	0.679
616.84	0.677
617.04	0.678
617.23	0.681
617.42	0.682
617.61	0.686
617.81	0.686
618.00	0.687
618.19	0.686
618.38	0.690
618.58	0.693
618.77	0.694
618.96	0.694
619.15	0.696
619.35	0.698
619.54	0.699
619.73	0.695
619.92	0.697
620.12	0.702
620.31	0.703
620.50	0.699
620.69	0.699
620.89	0.701
621.08	0.702
621.27	0.703
621.46	0.702
621.66	0.705
621.85	0.705
622.04	0.702
622.23	0.703
622.43	0.703
622.62	0.703
622.81	0.702
623.00	0.702
623.19	0.705
623.39	0.703
623.58	0.700
623.77	0.700
623.96	0.702
624.16	0.701
624.35	0.696
624.54	0.697
624.73	0.701
624.92	0.698
625.12	0.696
625.31	0.696
625.50	0.699
625.69	0.700
625.88	0.696
626.08	0.695
626.27	0.696
626.46	0.696
626.65	0.694
626.84	0.695
627.04	0.699
627.23	0.700
627.42	0.697
627.61	0.698
627.80	0.701
628.00	0.702
628.19	0.700
628.38	0.703
628.57	0.705
628.76	0.705
628.96	0.701
629.15	0.702
629.34	0.704
629.53	0.705
629.72	0.700
629.91	0.700
630.11	0.704
630.30	0.703
630.49	0.707
630.68	0.708
630.87	0.711
631.06	0.714
631.26	0.709
631.45	0.710
631.64	0.717
631.83	0.719
632.02	0.717
632.21	0.716
632.41	0.722
632.60	0.717
632.79	0.715
632.98	0.716
633.17	0.716
633.36	0.719
633.55	0.717
633.75	0.713
633.94	0.714
634.13	0.714
634.32	0.712
634.51	0.707
634.70	0.708
634.89	0.708
635.09	0.704
635.28	0.705
635.47	0.706
635.66	0.707
635.85	0.704
636.04	0.707
636.23	0.711
636.43	0.711
636.62	0.711
636.81	0.710
637.00	0.712
637.19	0.715
637.38	0.711
637.57	0.711
637.76	0.712
637.95	0.711
638.15	0.707
638.34	0.704
638.53	0.707
638.72	0.709
638.91	0.707
639.10	0.705
639.29	0.704
639.48	0.705
639.67	0.705
639.87	0.705
640.06	0.709
640.25	0.710
640.44	0.711
640.63	0.711
640.82	0.713
641.01	0.713
641.20	0.713
641.39	0.716
641.58	0.717
641.78	0.717
641.97	0.713
642.16	0.726
642.35	0.726
642.54	0.726
642.73	0.720
642.92	0.719
643.11	0.721
643.30	0.720
643.49	0.716
643.68	0.718
643.87	0.718
644.06	0.719
644.25	0.701
644.45	0.704
644.64	0.704
644.83	0.705
645.02	0.702
645.21	0.702
645.40	0.703
645.59	0.703
645.78	0.697
645.97	0.700
646.16	0.700
646.35	0.700
646.54	0.697
646.73	0.698
646.92	0.699
647.11	0.698
647.30	0.695
647.49	0.697
647.68	0.697
647.88	0.696
648.07	0.690
648.26	0.693
648.45	0.694
648.64	0.691
648.83	0.690
649.02	0.692
649.21	0.702
649.40	0.701
649.59	0.698
649.78	0.698
649.97	0.711
650.16	0.710
650.35	0.704
650.54	0.707
650.73	0.714
650.92	0.710
651.11	0.704
651.30	0.702
651.49	0.705
651.68	0.706
651.87	0.704
652.06	0.694
652.25	0.698
652.44	0.703
652.63	0.704
652.82	0.707
653.01	0.709
653.20	0.708
653.39	0.698
653.58	0.695
653.77	0.694
653.96	0.688
654.15	0.681
654.34	0.678
654.53	0.672
654.72	0.664
654.91	0.653
655.10	0.648
655.29	0.646
655.48	0.643
655.67	0.638
655.86	0.635
656.05	0.634
656.24	0.633
656.43	0.629
656.62	0.628
656.81	0.627
657.00	0.623
657.19	0.618
657.38	0.617
657.57	0.615
657.76	0.616
657.95	0.613
658.14	0.616
658.33	0.617
658.51	0.621
658.70	0.621
658.89	0.623
659.08	0.634
659.27	0.643
659.46	0.645
659.65	0.652
659.84	0.656
660.03	0.660
660.22	0.660
660.41	0.664
660.60	0.663
660.79	0.665
660.98	0.671
661.17	0.670
661.36	0.668
661.55	0.669
661.74	0.668
661.92	0.670
662.11	0.672
662.30	0.671
662.49	0.665
662.68	0.664
662.87	0.666
663.06	0.660
663.25	0.662
663.44	0.662
663.63	0.663
663.82	0.661
664.01	0.657
664.20	0.655
664.38	0.657
664.57	0.658
664.76	0.659
664.95	0.660
665.14	0.663
665.33	0.658
665.52	0.666
665.71	0.670
665.90	0.670
666.09	0.671
666.28	0.670
666.46	0.670
666.65	0.669
666.84	0.668
667.03	0.662
667.22	0.661
667.41	0.664
667.60	0.654
667.79	0.648
667.98	0.650
668.16	0.650
668.35	0.649
668.54	0.645
668.73	0.646
668.92	0.646
669.11	0.646
669.30	0.641
669.49	0.638
669.67	0.638
669.86	0.641
670.05	0.638
670.24	0.636
670.43	0.633
670.62	0.632
670.81	0.627
671.00	0.628
671.18	0.627
671.37	0.626
671.56	0.625
671.75	0.624
671.94	0.620
672.13	0.618
672.32	0.613
672.50	0.612
672.69	0.612
672.88	0.613
673.07	0.609
673.26	0.610
673.45	0.611
673.63	0.610
673.82	0.608
674.01	0.609
674.20	0.608
674.39	0.609
674.58	0.608
674.76	0.609
674.95	0.607
675.14	0.607
675.33	0.602
675.52	0.601
675.71	0.601
675.89	0.600
676.08	0.597
676.27	0.596
676.46	0.596
676.65	0.596
676.84	0.596
677.02	0.598
677.21	0.600
677.40	0.599
677.59	0.597
677.78	0.598
677.96	0.600
678.15	0.599
678.34	0.598
678.53	0.599
678.72	0.598
678.90	0.595
679.09	0.591
679.28	0.587
679.47	0.588
679.66	0.587
679.84	0.585
680.03	0.582
680.22	0.580
680.41	0.581
680.60	0.578
680.78	0.577
680.97	0.579
681.16	0.579
681.35	0.578
681.53	0.577
681.72	0.578
681.91	0.579
682.10	0.578
682.29	0.580
682.47	0.578
682.66	0.577
682.85	0.576
683.04	0.574
683.22	0.575
683.41	0.576
683.60	0.574
683.79	0.575
683.97	0.574
684.16	0.573
684.35	0.570
684.54	0.571
684.72	0.572
684.91	0.573
685.10	0.571
685.29	0.573
685.47	0.570
685.66	0.568
685.85	0.565
686.04	0.564
686.22	0.566
686.41	0.568
686.60	0.565
686.79	0.568
686.97	0.568
687.16	0.570
687.35	0.568
687.54	0.571
687.72	0.575
687.91	0.575
688.10	0.577
688.29	0.577
688.47	0.575
688.66	0.575
688.85	0.573
689.03	0.571
689.22	0.575
689.41	0.575
689.60	0.571
689.78	0.568
689.97	0.568
690.16	0.566
690.34	0.562
690.53	0.562
690.72	0.562
690.91	0.559
691.09	0.557
691.28	0.551
691.47	0.549
691.65	0.548
691.84	0.546
692.03	0.545
692.21	0.543
692.40	0.543
692.59	0.540
692.77	0.539
692.96	0.540
693.15	0.540
693.34	0.538
693.52	0.538
693.71	0.538
693.90	0.540
694.08	0.540
694.27	0.541
694.46	0.549
694.64	0.550
694.83	0.550
695.02	0.549
695.20	0.549
695.39	0.548
695.58	0.549
695.76	0.549
695.95	0.548
696.14	0.548
696.32	0.546
696.51	0.537
696.70	0.536
696.88	0.538
697.07	0.537
697.26	0.538
697.44	0.538
697.63	0.537
697.81	0.535
698.00	0.534
698.19	0.533
698.37	0.533
698.56	0.533
698.75	0.532
698.93	0.531
699.12	0.531
699.31	0.530
699.49	0.531
699.68	0.532
699.87	0.534
700.05	0.534
700.24	0.533
700.42	0.534
700.61	0.534
700.80	0.533
700.98	0.533
701.17	0.534
701.36	0.533
701.54	0.532
701.73	0.534
701.91	0.531
702.10	0.530
702.29	0.528
702.47	0.528
702.66	0.529
702.84	0.530
703.03	0.528
703.22	0.530
703.40	0.529
703.59	0.531
703.77	0.530
703.96	0.530
704.15	0.531
704.33	0.531
704.52	0.531
704.70	0.530
704.89	0.530
705.08	0.529
705.26	0.525
705.45	0.525
705.63	0.524
705.82	0.521
706.00	0.520
706.19	0.520
706.38	0.520
706.56	0.520
706.75	0.518
706.93	0.517
707.12	0.518
707.30	0.518
707.49	0.515
707.68	0.514
707.86	0.512
708.05	0.512
708.23	0.509
708.42	0.509
708.60	0.511
708.79	0.511
708.98	0.510
709.16	0.509
709.35	0.511
709.53	0.514
709.72	0.513
709.90	0.515
710.09	0.517
710.27	0.520
710.46	0.524
710.64	0.522
710.83	0.524
711.02	0.526
711.20	0.525
711.39	0.524
711.57	0.521
711.76	0.523
711.94	0.521
712.13	0.523
712.31	0.522
712.50	0.517
712.68	0.515
712.87	0.516
713.05	0.516
713.24	0.516
713.42	0.516
713.61	0.516
713.79	0.517
713.98	0.517
714.16	0.517
714.35	0.517
714.54	0.518
714.72	0.518
714.91	0.517
715.09	0.522
715.28	0.524
715.46	0.524
715.65	0.522
715.83	0.521
716.02	0.523
716.20	0.520
716.39	0.519
716.57	0.521
716.76	0.522
716.94	0.521
717.12	0.515
717.31	0.516
717.49	0.519
717.68	0.522
717.86	0.522
718.05	0.524
718.23	0.525
718.42	0.527
718.60	0.528
718.79	0.536
718.97	0.538
719.16	0.538
719.34	0.537
719.53	0.536
719.71	0.535
719.90	0.536
720.08	0.534
720.27	0.534
720.45	0.534
720.63	0.533
720.82	0.527
721.00	0.530
721.19	0.532
721.37	0.531
721.56	0.531
721.74	0.534
721.93	0.542
722.11	0.547
722.30	0.547
722.48	0.551
722.66	0.552
722.85	0.551
723.03	0.552
723.22	0.551
723.40	0.553
723.59	0.554
723.77	0.558
723.95	0.552
724.14	0.554
724.32	0.556
724.51	0.556
724.69	0.556
724.88	0.556
725.06	0.555
725.24	0.555
725.43	0.557
725.61	0.559
725.80	0.553
725.98	0.552
726.16	0.549
726.35	0.554
726.53	0.554
726.72	0.554
726.90	0.565
727.09	0.565
727.27	0.571
727.45	0.568
727.64	0.577
727.82	0.585
728.01	0.589
728.19	0.586
728.37	0.590
728.56	0.593
728.74	0.599
728.92	0.587
729.11	0.589
729.29	0.587
729.48	0.589
729.66	0.580
729.84	0.579
730.03	0.581
730.21	0.585
730.40	0.577
730.58	0.579
730.76	0.577
730.95	0.579
731.13	0.581
731.31	0.593
731.50	0.601
731.68	0.605
731.86	0.603
732.05	0.616
732.23	0.617
732.42	0.621
732.60	0.625
732.78	0.631
732.97	0.646
733.15	0.651
733.33	0.642
733.52	0.648
733.70	0.657
733.88	0.667
734.07	0.654
734.25	0.678
734.43	0.685
734.62	0.688
734.80	0.685
734.98	0.676
735.17	0.683
735.35	0.688
735.53	0.677
735.72	0.680
735.90	0.698
736.08	0.717
736.27	0.697
736.45	0.705
736.63	0.712
736.82	0.721
737.00	0.724
737.18	0.734
737.37	0.762
737.55	0.783
737.73	0.776
737.92	0.777
738.10	0.770
738.28	0.788
738.46	0.775
738.65	0.789
738.83	0.804
739.01	0.852
739.20	0.841
739.38	0.827
739.56	0.817
739.75	0.822
739.93	0.796
740.11	0.818
740.29	0.817
740.48	0.827
740.66	0.805
740.84	0.803
741.03	0.766
741.21	0.778
741.39	0.762
741.57	0.776
741.76	0.789
741.94	0.796
742.12	0.769
742.31	0.774
742.49	0.788
742.67	0.814
742.85	0.827
743.04	0.835
743.22	0.842
743.40	0.888
743.58	0.872
743.77	0.884
743.95	0.908
744.13	0.950
744.31	0.936
744.50	0.934
744.68	0.924
744.86	0.899
745.04	0.911
745.23	0.967
745.41	0.944
745.59	0.944
745.77	0.918
745.96	0.908
746.14	0.910
746.32	0.910
746.50	0.904
746.69	0.894
746.87	0.901
747.05	0.888
747.23	0.827
747.42	0.817
747.60	0.838
747.78	0.843
747.96	0.869
748.14	0.833
748.33	0.856
748.51	0.849
748.69	0.844
748.87	0.868
749.06	0.859
749.24	0.854
749.42	0.848
749.60	0.834
749.78	0.838
749.97	0.801
750.15	0.793
750.33	0.792
750.51	0.811
750.69	0.818
750.88	0.826
751.06	0.834
751.24	0.855
751.42	0.848
751.60	0.846
751.79	0.907
751.97	0.943
752.15	0.947
752.33	0.922
752.51	0.979
752.69	0.986
752.88	0.957
753.06	1.002
753.24	0.985
753.42	1.006
753.60	1.146
753.78	1.030
753.97	1.052
754.15	1.058
754.33	1.084
754.51	0.979
754.69	0.969
754.87	0.991
755.06	0.932
755.24	0.935
755.42	0.950
755.60	0.856
755.78	0.865
755.96	0.816
756.15	0.818
756.33	0.818
756.51	0.836
756.69	0.825
756.87	0.795
757.05	0.806
757.23	0.791
757.42	0.763
757.60	0.760
757.78	0.752
757.96	0.752
758.14	0.740
758.32	0.729
758.50	0.738
758.69	0.736
758.87	0.731
759.05	0.734
759.23	0.742
759.41	0.741
759.59	0.737
759.77	0.751
759.95	0.772
760.13	0.814
760.32	0.813
760.50	0.805
760.68	0.824
760.86	0.823
761.04	0.802
761.22	0.804
761.40	0.842
761.58	0.845
761.76	0.828
761.95	0.811
762.13	0.773
762.31	0.775
762.49	0.753
762.67	0.771
762.85	0.780
763.03	0.776
763.21	0.763
763.39	0.747
763.57	0.748
763.75	0.742
763.94	0.732
764.12	0.731
764.30	0.748
764.48	0.753
764.66	0.722
764.84	0.723
765.02	0.756
765.20	0.763
765.38	0.746
765.56	0.751
765.74	0.785
765.92	0.783
766.10	0.790
766.28	0.784
766.46	0.805
766.65	0.805
766.83	0.791
767.01	0.774
767.19	0.778
767.37	0.777
767.55	0.767
767.73	0.750
767.91	0.752
768.09	0.742
768.27	0.733
768.45	0.722
768.63	0.726
768.81	0.730
768.99	0.709
769.17	0.725
769.35	0.736
769.53	0.734
769.71	0.717
769.89	0.723
770.07	0.726
770.25	0.711
770.43	0.697
770.61	0.715
770.79	0.721
770.97	0.732
771.15	0.711
771.33	0.712
771.51	0.713
771.69	0.723
771.87	0.729
772.05	0.733
772.24	0.742
772.42	0.747
772.60	0.729
772.78	0.778
772.96	0.798
773.14	0.794
773.32	0.779
773.49	0.783
773.67	0.782
773.85	0.765
774.03	0.760
774.21	0.785
774.39	0.791
774.57	0.812
774.75	0.755
774.93	0.750
775.11	0.766
775.29	0.771
775.47	0.774
775.65	0.781
775.83	0.796
776.01	0.809
776.19	0.773
776.37	0.772
776.55	0.770
776.73	0.765
776.91	0.764
777.09	0.749
777.27	0.745
777.45	0.735
777.63	0.719
777.81	0.717
777.99	0.707
778.17	0.706
778.35	0.691
778.53	0.682
778.71	0.684
778.89	0.673
779.07	0.665
779.24	0.670
779.42	0.670
779.60	0.686
779.78	0.682
779.96	0.683
780.14	0.687
780.32	0.706
780.50	0.689
780.68	0.688
780.86	0.682
781.04	0.696
781.22	0.702
781.40	0.711
781.58	0.701
781.75	0.695
781.93	0.683
782.11	0.681
782.29	0.668
782.47	0.669
782.65	0.659
782.83	0.682
783.01	0.675
783.19	0.668
783.37	0.658
783.55	0.660
783.72	0.674
783.90	0.686
784.08	0.683
784.26	0.693
784.44	0.711
784.62	0.715
784.80	0.687
784.98	0.694
785.16	0.700
785.33	0.713
785.51	0.703
785.69	0.690
785.87	0.686
786.05	0.695
786.23	0.692
786.41	0.689
786.59	0.694
786.77	0.695
786.94	0.684
787.12	0.683
787.30	0.682
787.48	0.679
787.66	0.672
787.84	0.674
788.02	0.664
788.19	0.662
788.37	0.653
788.55	0.652
788.73	0.652
788.91	0.647
789.09	0.635
789.27	0.625
789.44	0.634
789.62	0.640
789.80	0.648
789.98	0.669
790.16	0.656
790.34	0.651
790.51	0.641
790.69	0.656
790.87	0.662
791.05	0.662
791.23	0.660
791.41	0.662
791.58	0.665
791.76	0.648
791.94	0.623
792.12	0.632
792.30	0.634
792.48	0.633
792.65	0.629
792.83	0.633
793.01	0.636
793.19	0.633
793.37	0.618
793.54	0.615
793.72	0.623
793.90	0.621
794.08	0.611
794.26	0.610
794.43	0.616
794.61	0.602
794.79	0.594
794.97	0.592
795.15	0.595
795.32	0.599
795.50	0.590
795.68	0.586
795.86	0.590
796.04	0.591
796.21	0.588
796.39	0.588
796.57	0.601
796.75	0.607
796.92	0.610
797.10	0.614
797.28	0.613
797.46	0.616
797.64	0.618
797.81	0.625
797.99	0.628
798.17	0.632
798.35	0.625
798.52	0.627
798.70	0.624
798.88	0.634
799.06	0.634
799.23	0.640
799.41	0.648
799.59	0.641
799.77	0.633
799.94	0.640
800.12	0.645
800.30	0.662
800.48	0.663
800.65	0.663
800.83	0.650
801.01	0.643
801.19	0.643
801.36	0.638
801.54	0.639
801.72	0.646
801.90	0.635
802.07	0.631
802.25	0.616
802.43	0.602
802.60	0.600
802.78	0.608
802.96	0.610
803.14	0.604
803.31	0.605
803.49	0.607
803.67	0.604
803.84	0.610
804.02	0.604
804.20	0.607
804.38	0.610
804.55	0.610
804.73	0.598
804.91	0.601
805.08	0.611
805.26	0.607
805.44	0.668
805.61	0.668
805.79	0.666
805.97	0.665
806.15	0.660
806.32	0.656
806.50	0.658
806.68	0.658
806.85	0.650
807.03	0.640
807.21	0.653
807.38	0.590
807.56	0.583
807.74	0.592
807.91	0.597
808.09	0.600
808.27	0.616
808.44	0.642
808.62	0.648
808.80	0.650
808.97	0.648
809.15	0.643
809.33	0.656
809.50	0.663
809.68	0.651
809.86	0.657
810.03	0.683
810.21	0.666
810.39	0.650
810.56	0.656
810.74	0.676
810.91	0.742
811.09	0.734
811.27	0.755
811.44	0.758
811.62	0.759
811.80	0.746
811.97	0.717
812.15	0.717
812.33	0.711
812.50	0.700
812.68	0.688
812.85	0.634
813.03	0.635
813.21	0.607
813.38	0.603
813.56	0.604
813.74	0.612
813.91	0.621
814.09	0.644
814.26	0.638
814.44	0.642
814.62	0.633
814.79	0.636
814.97	0.639
815.14	0.643
815.32	0.647
815.50	0.662
815.67	0.665
815.85	0.656
816.02	0.650
816.20	0.657
816.38	0.666
816.55	0.672
816.73	0.675
816.90	0.682
817.08	0.706
817.26	0.710
817.43	0.694
817.61	0.715
817.78	0.730
817.96	0.709
818.13	0.702
818.31	0.702
818.49	0.711
818.66	0.702
818.84	0.692
819.01	0.674
819.19	0.677
819.36	0.680
819.54	0.655
819.71	0.693
819.89	0.702
820.07	0.714
820.24	0.712
820.42	0.712
820.59	0.728
820.77	0.749
820.94	0.742
821.12	0.761
821.29	0.771
821.47	0.772
821.64	0.719
821.82	0.732
822.00	0.729
822.17	0.726
822.35	0.722
822.52	0.723
822.70	0.710
822.87	0.720
823.05	0.700
823.22	0.712
823.40	0.732
823.57	0.752
823.75	0.738
823.92	0.758
824.10	0.771
824.27	0.808
824.45	0.803
824.62	0.859
824.80	0.872
824.97	0.884
825.15	0.875
825.32	0.890
825.50	0.890
825.67	0.899
825.85	0.885
826.02	0.905
826.20	0.916
826.37	1.020
826.55	0.960
826.72	1.120
826.90	1.178
827.07	1.232
827.25	1.186
827.42	1.302
827.60	1.386
827.77	1.500
827.95	1.472
828.12	1.560
828.30	1.300
828.47	1.372
828.65	1.101
828.82	1.134
829.00	1.156
829.17	1.203
829.34	1.218
829.52	1.261
829.69	-0.000
829.87	-0.000
830.04	-0.000
830.22	-0.000
830.39	-0.000
830.57	-0.000
830.74	-0.000
830.92	-0.000
831.09	-0.000
831.26	-0.000
831.44	-0.000
831.61	-0.000
831.79	-0.000
831.96	-0.000
832.14	-0.000
832.31	-0.000
832.49	-0.000
832.66	-0.000
832.83	-0.000
833.01	-0.000
833.18	-0.000
833.36	-0.000
833.53	-0.000
833.70	-0.000
833.88	-0.000
834.05	-0.000
834.23	-0.000
834.40	-0.000
834.58	-0.000
834.75	-0.000
834.92	-0.000
835.10	-0.000
835.27	-0.000
835.45	-0.000
835.62	-0.000
835.79	-0.000
835.97	-0.000
836.14	-0.000
836.32	-0.000
836.49	-0.000
836.66	-0.000
836.84	-0.000
837.01	-0.000
837.18	-0.000
837.36	-0.000
837.53	-0.000
837.71	-0.000
837.88	-0.000
838.05	-0.000
838.23	-0.000
838.40	-0.000
838.58	-0.000
838.75	-0.000
838.92	-0.000
839.10	-0.000
839.27	-0.000
839.44	-0.000
839.62	-0.000
839.79	-0.000
839.96	-0.000
840.14	-0.000
840.31	-0.000
840.48	-0.000
840.66	-0.000
840.83	-0.000
841.01	-0.000
841.18	-0.000
841.35	-0.000
841.53	-0.000
841.70	-0.000
841.87	-0.000
842.05	-0.000
842.22	-0.000
842.39	-0.000
842.57	-0.000
842.74	-0.000
842.91	-0.000
843.09	-0.000
843.26	-0.000
843.43	-0.000
843.60	-0.000
843.78	-0.000
843.95	-0.000
844.12	-0.000
844.30	-0.000
844.47	-0.000
844.64	-0.000
844.82	-0.000
844.99	-0.000
845.16	-0.000
845.34	-0.000
845.51	-0.000
845.68	-0.000
845.85	-0.000
846.03	-0.000
846.20	-0.000
846.37	-0.000
846.55	-0.000
846.72	-0.000
846.89	-0.000
847.06	-0.000
847.24	-0.000
847.41	-0.000
847.58	-0.000
847.76	-0.000
847.93	-0.000
848.10	-0.000
848.27	-0.000
848.45	-0.000
848.62	-0.000
848.79	-0.000
848.97	-0.000
849.14	-0.000
849.31	-0.000
849.48	-0.000
849.66	-0.000
849.83	-0.000
850.00	-0.000
850.17	-0.000
850.35	-0.000
850.52	-0.000
850.69	-0.000
850.86	-0.000
851.04	-0.000
851.21	-0.000
851.38	-0.000
851.55	-0.000
851.72	-0.000
851.90	-0.000
852.07	-0.000
852.24	-0.000
852.41	-0.000
852.59	-0.000
852.76	-0.000
852.93	-0.000
853.10	-0.000
853.28	-0.000
853.45	-0.000
853.62	-0.000
853.79	-0.000
853.96	-0.000
854.14	-0.000
854.31	-0.000
854.48	-0.000
854.65	-0.000
854.82	-0.000
855.00	-0.000
855.17	-0.000
855.34	-0.000
855.51	-0.000
855.68	-0.000
855.86	-0.000
856.03	-0.000
856.20	-0.000
856.37	-0.000
856.54	-0.000
856.72	-0.000
856.89	-0.000
857.06	-0.000
857.23	-0.000
857.40	-0.000
857.57	-0.000
857.75	-0.000
857.92	-0.000
858.09	-0.000
858.26	-0.000
858.43	-0.000
858.60	-0.000
858.78	-0.000
858.95	-0.000
859.12	-0.000
859.29	-0.000
859.46	-0.000
859.63	-0.000
859.81	-0.000
859.98	-0.000
860.15	-0.000
860.32	-0.000
860.49	-0.000
860.66	-0.000
860.83	-0.000
861.01	-0.000
861.18	-0.000
861.35	-0.000
861.52	-0.000
861.69	-0.000
861.86	-0.000
862.03	-0.000
862.21	-0.000
862.38	-0.000
862.55	-0.000
862.72	-0.000
862.89	-0.000
863.06	-0.000
863.23	-0.000
863.40	-0.000
863.58	-0.000
863.75	-0.000
863.92	-0.000
864.09	-0.000
864.26	-0.000
864.43	-0.000
864.60	-0.000
864.77	-0.000
864.94	-0.000
865.11	-0.000
865.29	-0.000
865.46	-0.000
865.63	-0.000
865.80	-0.000
865.97	-0.000
866.14	-0.000
866.31	-0.000
866.48	-0.000
866.65	-0.000
866.82	-0.000
866.99	-0.000
867.16	-0.000
867.34	-0.000
867.51	-0.000
867.68	-0.000
867.85	-0.000
868.02	-0.000
868.19	-0.000
868.36	-0.000
868.53	-0.000
868.70	-0.000
868.87	-0.000
869.04	-0.000
869.21	-0.000
869.38	-0.000
869.55	-0.000
869.72	-0.000
869.89	-0.000
870.06	-0.000
870.24	-0.000
870.41	-0.000
870.58	-0.000
870.75	-0.000
870.92	-0.000
871.09	-0.000
871.26	-0.000
871.43	-0.000
871.60	-0.000
871.77	-0.000
871.94	-0.000
872.11	-0.000
872.28	-0.000
872.45	-0.000
872.62	-0.000
872.79	-0.000
872.96	-0.000
873.13	-0.000
873.30	-0.000
873.47	-0.000
873.64	-0.000
873.81	-0.000
873.98	-0.000
874.15	-0.000
874.32	-0.000
874.49	-0.000
874.66	-0.000
874.83	-0.000
875.00	-0.000
875.17	-0.000
875.34	-0.000
875.51	-0.000
875.68	-0.000
875.85	-0.000
876.02	-0.000
876.19	-0.000
876.36	-0.000
876.53	-0.000
876.70	-0.000
876.87	-0.000
877.04	-0.000
877.21	-0.000
877.38	-0.000
877.55	-0.000
877.72	-0.000
877.89	-0.000
878.06	-0.000
878.23	-0.000
878.39	-0.000
878.56	-0.000
878.73	-0.000
878.90	-0.000
879.07	-0.000
879.24	-0.000
879.41	-0.000
879.58	-0.000
879.75	-0.000
879.92	-0.000
880.09	-0.000
880.26	-0.000
880.43	-0.000
880.60	-0.000
880.77	-0.000
880.94	-0.000
881.11	-0.000
881.27	-0.000
881.44	-0.000
881.61	-0.000
881.78	-0.000
881.95	-0.000
882.12	-0.000
882.29	-0.000
882.46	-0.000
882.63	-0.000
882.80	-0.000
882.97	-0.000
883.14	-0.000
883.30	-0.000
883.47	-0.000
883.64	-0.000
883.81	-0.000
883.98	-0.000
884.15	-0.000
884.32	-0.000
884.49	-0.000
884.66	-0.000
884.82	-0.000
884.99	-0.000
885.16	-0.000
885.33	-0.000
885.50	-0.000
885.67	-0.000
885.84	-0.000
886.01	-0.000
886.17	-0.000
886.34	-0.000
886.51	-0.000
886.68	-0.000
886.85	-0.000
887.02	-0.000
887.19	-0.000
887.36	-0.000
887.52	-0.000
887.69	-0.000
887.86	-0.000
888.03	-0.000
888.20	-0.000
888.37	-0.000
888.54	-0.000
888.70	-0.000
888.87	-0.000
889.04	-0.000
889.21	-0.000
889.38	-0.000
889.55	-0.000
889.71	-0.000
889.88	-0.000
890.05	-0.000
890.22	-0.000
890.39	-0.000
>>>>>End Processed Spectral Data<<<<<
