SpectraSuite Data File
++++++++++++++++++++++++++++++++++++
Date: Fri Jun 19 15:35:41 CEST 2015
User: introlabs
Dark Spectrum Present: Yes
Reference Spectrum Present: Yes
Number of Sampled Component Spectra: 1
Spectrometers: USB4H08886
Integration Time (usec): 745692 (USB4H08886)
Spectra Averaged: 5 (USB4H08886)
Boxcar Smoothing: 5 (USB4H08886)
Correct for Electrical Dark: Yes (USB4H08886)
Strobe/Lamp Enabled: No (USB4H08886)
Correct for Detector Non-linearity: Yes (USB4H08886)
Correct for Stray Light: Yes (USB4H08886)
Number of Pixels in Processed Spectrum: 3648
>>>>>Begin Processed Spectral Data<<<<<
178.14	-0.000
178.36	-0.000
178.57	-0.000
178.79	-0.000
179.01	-0.000
179.22	-0.000
179.44	-0.000
179.65	-0.000
179.87	-0.000
180.08	-0.000
180.30	-0.000
180.52	-0.000
180.73	-0.000
180.95	-0.000
181.16	-0.000
181.38	-0.000
181.59	-0.000
181.81	-0.000
182.03	-0.000
182.24	-0.000
182.46	-0.000
182.67	-0.000
182.89	-0.000
183.10	-0.000
183.32	-0.000
183.54	-0.000
183.75	-0.000
183.97	-0.000
184.18	-0.000
184.40	-0.000
184.61	-0.000
184.83	-0.000
185.04	-0.000
185.26	-0.000
185.48	-0.000
185.69	-0.000
185.91	-0.000
186.12	-0.000
186.34	-0.000
186.55	-0.000
186.77	-0.000
186.98	-0.000
187.20	-0.000
187.42	-0.000
187.63	-0.000
187.85	-0.000
188.06	-0.000
188.28	-0.000
188.49	-0.000
188.71	-0.000
188.92	-0.000
189.14	-0.000
189.36	-0.000
189.57	-0.000
189.79	-0.000
190.00	-0.000
190.22	-0.000
190.43	-0.000
190.65	-0.000
190.86	-0.000
191.08	-0.000
191.29	-0.000
191.51	-0.000
191.72	-0.000
191.94	-0.000
192.16	-0.000
192.37	-0.000
192.59	-0.000
192.80	-0.000
193.02	-0.000
193.23	-0.000
193.45	-0.000
193.66	-0.000
193.88	-0.000
194.09	-0.000
194.31	-0.000
194.52	-0.000
194.74	-0.000
194.95	-0.000
195.17	-0.000
195.38	-0.000
195.60	-0.000
195.81	-0.000
196.03	-0.000
196.25	-0.000
196.46	-0.000
196.68	-0.000
196.89	-0.000
197.11	-0.000
197.32	-0.000
197.54	-0.000
197.75	-0.000
197.97	-0.000
198.18	-0.000
198.40	-0.000
198.61	-0.000
198.83	-0.000
199.04	-0.000
199.26	-0.000
199.47	-0.000
199.69	-0.000
199.90	-0.000
200.12	-0.000
200.33	-0.000
200.55	-0.000
200.76	-0.000
200.98	-0.000
201.19	-0.000
201.41	-0.000
201.62	-0.000
201.84	-0.000
202.05	-0.000
202.27	-0.000
202.48	-0.000
202.70	-0.000
202.91	-0.000
203.13	-0.000
203.34	-0.000
203.56	-0.000
203.77	-0.000
203.99	-0.000
204.20	-0.000
204.42	-0.000
204.63	-0.000
204.85	-0.000
205.06	-0.000
205.28	-0.000
205.49	-0.000
205.71	-0.000
205.92	-0.000
206.14	-0.000
206.35	-0.000
206.56	-0.000
206.78	-0.000
206.99	-0.000
207.21	-0.000
207.42	-0.000
207.64	-0.000
207.85	-0.000
208.07	-0.000
208.28	-0.000
208.50	-0.000
208.71	-0.000
208.93	-0.000
209.14	-0.000
209.36	-0.000
209.57	-0.000
209.79	-0.000
210.00	-0.000
210.22	-0.000
210.43	-0.000
210.64	-0.000
210.86	-0.000
211.07	-0.000
211.29	-0.000
211.50	-0.000
211.72	-0.000
211.93	-0.000
212.15	-0.000
212.36	-0.000
212.58	-0.000
212.79	-0.000
213.01	-0.000
213.22	-0.000
213.43	-0.000
213.65	-0.000
213.86	-0.000
214.08	-0.000
214.29	-0.000
214.51	-0.000
214.72	-0.000
214.94	-0.000
215.15	-0.000
215.36	-0.000
215.58	-0.000
215.79	-0.000
216.01	-0.000
216.22	-0.000
216.44	-0.000
216.65	-0.000
216.87	-0.000
217.08	-0.000
217.29	-0.000
217.51	-0.000
217.72	-0.000
217.94	-0.000
218.15	-0.000
218.37	-0.000
218.58	-0.000
218.80	-0.000
219.01	-0.000
219.22	-0.000
219.44	-0.000
219.65	-0.000
219.87	-0.000
220.08	-0.000
220.30	-0.000
220.51	-0.000
220.72	-0.000
220.94	-0.000
221.15	-0.000
221.37	-0.000
221.58	-0.000
221.79	-0.000
222.01	-0.000
222.22	-0.000
222.44	-0.000
222.65	-0.000
222.87	-0.000
223.08	-0.000
223.29	-0.000
223.51	-0.000
223.72	-0.000
223.94	-0.000
224.15	-0.000
224.36	-0.000
224.58	-0.000
224.79	-0.000
225.01	-0.000
225.22	-0.000
225.44	-0.000
225.65	-0.000
225.86	-0.000
226.08	-0.000
226.29	-0.000
226.51	-0.000
226.72	-0.000
226.93	-0.000
227.15	-0.000
227.36	-0.000
227.58	-0.000
227.79	-0.000
228.00	-0.000
228.22	-0.000
228.43	-0.000
228.65	-0.000
228.86	-0.000
229.07	-0.000
229.29	-0.000
229.50	-0.000
229.72	-0.000
229.93	-0.000
230.14	-0.000
230.36	-0.000
230.57	-0.000
230.78	-0.000
231.00	-0.000
231.21	-0.000
231.43	-0.000
231.64	-0.000
231.85	-0.000
232.07	-0.000
232.28	-0.000
232.50	-0.000
232.71	-0.000
232.92	-0.000
233.14	-0.000
233.35	-0.000
233.56	-0.000
233.78	-0.000
233.99	-0.000
234.21	-0.000
234.42	-0.000
234.63	-0.000
234.85	-0.000
235.06	-0.000
235.27	-0.000
235.49	-0.000
235.70	-0.000
235.91	-0.000
236.13	-0.000
236.34	-0.000
236.56	-0.000
236.77	-0.000
236.98	-0.000
237.20	-0.000
237.41	-0.000
237.62	-0.000
237.84	-0.000
238.05	-0.000
238.26	-0.000
238.48	-0.000
238.69	-0.000
238.91	-0.000
239.12	-0.000
239.33	-0.000
239.55	-0.000
239.76	-0.000
239.97	-0.000
240.19	-0.000
240.40	-0.000
240.61	-0.000
240.83	-0.000
241.04	-0.000
241.25	-0.000
241.47	-0.000
241.68	-0.000
241.89	-0.000
242.11	-0.000
242.32	-0.000
242.53	-0.000
242.75	-0.000
242.96	-0.000
243.17	-0.000
243.39	-0.000
243.60	-0.000
243.81	-0.000
244.03	-0.000
244.24	-0.000
244.45	-0.000
244.67	-0.000
244.88	-0.000
245.09	-0.000
245.31	-0.000
245.52	-0.000
245.73	-0.000
245.95	-0.000
246.16	-0.000
246.37	-0.000
246.59	-0.000
246.80	-0.000
247.01	-0.000
247.23	-0.000
247.44	-0.000
247.65	-0.000
247.87	-0.000
248.08	-0.000
248.29	-0.000
248.51	-0.000
248.72	-0.000
248.93	-0.000
249.15	-0.000
249.36	-0.000
249.57	-0.000
249.78	-0.000
250.00	-0.000
250.21	-0.000
250.42	-0.000
250.64	-0.000
250.85	-0.000
251.06	-0.000
251.28	-0.000
251.49	-0.000
251.70	-0.000
251.92	-0.000
252.13	-0.000
252.34	-0.000
252.55	-0.000
252.77	-0.000
252.98	-0.000
253.19	-0.000
253.41	-0.000
253.62	-0.000
253.83	-0.000
254.05	-0.000
254.26	-0.000
254.47	-0.000
254.68	-0.000
254.90	-0.000
255.11	-0.000
255.32	-0.000
255.54	-0.000
255.75	-0.000
255.96	-0.000
256.17	-0.000
256.39	-0.000
256.60	-0.000
256.81	-0.000
257.03	-0.000
257.24	-0.000
257.45	-0.000
257.66	-0.000
257.88	-0.000
258.09	-0.000
258.30	-0.000
258.51	-0.000
258.73	-0.000
258.94	-0.000
259.15	-0.000
259.37	-0.000
259.58	-0.000
259.79	-0.000
260.00	-0.000
260.22	-0.000
260.43	-0.000
260.64	-0.000
260.85	-0.000
261.07	-0.000
261.28	-0.000
261.49	-0.000
261.71	-0.000
261.92	-0.000
262.13	-0.000
262.34	-0.000
262.56	-0.000
262.77	-0.000
262.98	-0.000
263.19	-0.000
263.41	-0.000
263.62	-0.000
263.83	-0.000
264.04	-0.000
264.26	-0.000
264.47	-0.000
264.68	-0.000
264.89	-0.000
265.11	-0.000
265.32	-0.000
265.53	-0.000
265.74	-0.000
265.96	-0.000
266.17	-0.000
266.38	-0.000
266.59	-0.000
266.81	-0.000
267.02	-0.000
267.23	-0.000
267.44	-0.000
267.65	-0.000
267.87	-0.000
268.08	-0.000
268.29	-0.000
268.50	-0.000
268.72	-0.000
268.93	-0.000
269.14	-0.000
269.35	-0.000
269.57	-0.000
269.78	-0.000
269.99	-0.000
270.20	-0.000
270.41	-0.000
270.63	-0.000
270.84	-0.000
271.05	-0.000
271.26	-0.000
271.48	-0.000
271.69	-0.000
271.90	-0.000
272.11	-0.000
272.32	-0.000
272.54	-0.000
272.75	-0.000
272.96	-0.000
273.17	-0.000
273.39	-0.000
273.60	-0.000
273.81	-0.000
274.02	-0.000
274.23	-0.000
274.45	-0.000
274.66	-0.000
274.87	-0.000
275.08	-0.000
275.29	-0.000
275.51	-0.000
275.72	-0.000
275.93	-0.000
276.14	-0.000
276.35	-0.000
276.57	-0.000
276.78	-0.000
276.99	-0.000
277.20	-0.000
277.41	-0.000
277.63	-0.000
277.84	-0.000
278.05	-0.000
278.26	-0.000
278.47	-0.000
278.69	-0.000
278.90	-0.000
279.11	-0.000
279.32	-0.000
279.53	-0.000
279.74	-0.000
279.96	-0.000
280.17	-0.000
280.38	-0.000
280.59	-0.000
280.80	-0.000
281.02	-0.000
281.23	-0.000
281.44	-0.000
281.65	-0.000
281.86	-0.000
282.07	-0.000
282.29	-0.000
282.50	-0.000
282.71	-0.000
282.92	-0.000
283.13	-0.000
283.35	-0.000
283.56	-0.000
283.77	-0.000
283.98	-0.000
284.19	-0.000
284.40	-0.000
284.62	-0.000
284.83	-0.000
285.04	-0.000
285.25	-0.000
285.46	-0.000
285.67	-0.000
285.88	-0.000
286.10	-0.000
286.31	-0.000
286.52	-0.000
286.73	-0.000
286.94	-0.000
287.15	-0.000
287.37	-0.000
287.58	-0.000
287.79	-0.000
288.00	-0.000
288.21	-0.000
288.42	-0.000
288.63	-0.000
288.85	-0.000
289.06	-0.000
289.27	-0.000
289.48	-0.000
289.69	-0.000
289.90	-0.000
290.11	-0.000
290.33	-0.000
290.54	-0.000
290.75	-0.000
290.96	-0.000
291.17	-0.000
291.38	-0.000
291.59	-0.000
291.81	-0.000
292.02	-0.000
292.23	-0.000
292.44	-0.000
292.65	-0.000
292.86	-0.000
293.07	-0.000
293.28	-0.000
293.50	-0.000
293.71	-0.000
293.92	-0.000
294.13	-0.000
294.34	-0.000
294.55	-0.000
294.76	-0.000
294.97	-0.000
295.19	-0.000
295.40	-0.000
295.61	-0.000
295.82	-0.000
296.03	3.571
296.24	-0.000
296.45	1.996
296.66	1.717
296.87	1.745
297.09	1.791
297.30	1.952
297.51	1.664
297.72	1.629
297.93	1.696
298.14	1.671
298.35	1.628
298.56	1.617
298.77	1.724
298.99	1.707
299.20	1.684
299.41	1.668
299.62	1.618
299.83	1.612
300.04	1.562
300.25	1.549
300.46	1.572
300.67	1.559
300.88	1.513
301.10	1.508
301.31	1.564
301.52	1.510
301.73	1.466
301.94	1.477
302.15	1.486
302.36	1.444
302.57	1.396
302.78	1.409
302.99	1.439
303.20	1.459
303.41	1.382
303.63	1.368
303.84	1.369
304.05	1.364
304.26	1.313
304.47	1.316
304.68	1.311
304.89	1.302
305.10	1.266
305.31	1.251
305.52	1.286
305.73	1.279
305.94	1.244
306.15	1.240
306.37	1.262
306.58	1.266
306.79	1.242
307.00	1.269
307.21	1.299
307.42	1.291
307.63	1.264
307.84	1.231
308.05	1.263
308.26	1.265
308.47	1.245
308.68	1.237
308.89	1.238
309.10	1.236
309.31	1.198
309.52	1.192
309.73	1.204
309.95	1.200
310.16	1.176
310.37	1.166
310.58	1.181
310.79	1.179
311.00	1.179
311.21	1.178
311.42	1.179
311.63	1.175
311.84	1.160
312.05	1.159
312.26	1.179
312.47	1.190
312.68	1.167
312.89	1.151
313.10	1.155
313.31	1.128
313.52	1.129
313.73	1.127
313.94	1.127
314.15	1.112
314.36	1.091
314.57	1.085
314.78	1.074
314.99	1.070
315.21	1.061
315.42	1.067
315.63	1.078
315.84	1.058
316.05	1.047
316.26	1.055
316.47	1.071
316.68	1.069
316.89	1.049
317.10	1.068
317.31	1.072
317.52	1.073
317.73	1.055
317.94	1.053
318.15	1.092
318.36	1.094
318.57	1.079
318.78	1.068
318.99	1.100
319.20	1.100
319.41	1.068
319.62	1.071
319.83	1.081
320.04	1.075
320.25	1.062
320.46	1.031
320.67	1.033
320.88	1.029
321.09	1.017
321.30	1.002
321.51	1.015
321.72	1.012
321.93	0.996
322.14	0.989
322.35	1.015
322.56	1.018
322.77	1.006
322.98	1.017
323.19	1.024
323.40	1.030
323.61	1.010
323.82	1.005
324.03	1.010
324.24	1.010
324.45	0.999
324.66	0.980
324.87	0.977
325.08	0.978
325.29	0.959
325.50	0.950
325.71	0.952
325.92	0.961
326.13	0.948
326.34	0.949
326.55	0.956
326.76	0.955
326.97	0.946
327.18	0.938
327.39	0.961
327.60	0.962
327.80	0.964
328.01	0.965
328.22	0.964
328.43	0.967
328.64	0.957
328.85	0.962
329.06	0.961
329.27	0.961
329.48	0.959
329.69	0.941
329.90	0.950
330.11	0.944
330.32	0.938
330.53	0.930
330.74	0.930
330.95	0.929
331.16	0.914
331.37	0.922
331.58	0.920
331.79	0.920
332.00	0.912
332.21	0.906
332.42	0.908
332.63	0.899
332.83	0.896
333.04	0.898
333.25	0.910
333.46	0.909
333.67	0.897
333.88	0.900
334.09	0.909
334.30	0.905
334.51	0.898
334.72	0.895
334.93	0.897
335.14	0.896
335.35	0.888
335.56	0.883
335.77	0.891
335.98	0.888
336.18	0.884
336.39	0.877
336.60	0.881
336.81	0.878
337.02	0.877
337.23	0.882
337.44	0.884
337.65	0.886
337.86	0.877
338.07	0.872
338.28	0.876
338.49	0.873
338.70	0.867
338.91	0.872
339.11	0.879
339.32	0.874
339.53	0.864
339.74	0.861
339.95	0.859
340.16	0.857
340.37	0.850
340.58	0.848
340.79	0.850
341.00	0.849
341.21	0.841
341.41	0.841
341.62	0.842
341.83	0.842
342.04	0.838
342.25	0.848
342.46	0.851
342.67	0.850
342.88	0.845
343.09	0.845
343.30	0.852
343.50	0.854
343.71	0.845
343.92	0.844
344.13	0.849
344.34	0.848
344.55	0.833
344.76	0.832
344.97	0.836
345.18	0.835
345.38	0.833
345.59	0.828
345.80	0.826
346.01	0.825
346.22	0.821
346.43	0.816
346.64	0.824
346.85	0.823
347.06	0.815
347.26	0.815
347.47	0.819
347.68	0.814
347.89	0.812
348.10	0.807
348.31	0.814
348.52	0.813
348.73	0.811
348.93	0.808
349.14	0.810
349.35	0.810
349.56	0.803
349.77	0.797
349.98	0.803
350.19	0.799
350.39	0.795
350.60	0.790
350.81	0.805
351.02	0.803
351.23	0.799
351.44	0.801
351.65	0.803
351.86	0.802
352.06	0.802
352.27	0.802
352.48	0.803
352.69	0.802
352.90	0.797
353.11	0.783
353.31	0.790
353.52	0.786
353.73	0.778
353.94	0.780
354.15	0.785
354.36	0.783
354.57	0.775
354.77	0.777
354.98	0.776
355.19	0.775
355.40	0.775
355.61	0.781
355.82	0.785
356.02	0.784
356.23	0.777
356.44	0.779
356.65	0.782
356.86	0.782
357.07	0.777
357.27	0.780
357.48	0.782
357.69	0.779
357.90	0.765
358.11	0.760
358.32	0.764
358.52	0.767
358.73	0.758
358.94	0.760
359.15	0.764
359.36	0.765
359.56	0.759
359.77	0.756
359.98	0.761
360.19	0.761
360.40	0.758
360.61	0.759
360.81	0.758
361.02	0.758
361.23	0.751
361.44	0.750
361.65	0.751
361.85	0.751
362.06	0.750
362.27	0.751
362.48	0.751
362.69	0.754
362.89	0.748
363.10	0.749
363.31	0.753
363.52	0.756
363.73	0.751
363.93	0.750
364.14	0.752
364.35	0.754
364.56	0.745
364.77	0.746
364.97	0.747
365.18	0.748
365.39	0.743
365.60	0.740
365.81	0.740
366.01	0.741
366.22	0.739
366.43	0.737
366.64	0.738
366.84	0.745
367.05	0.742
367.26	0.742
367.47	0.744
367.68	0.744
367.88	0.742
368.09	0.740
368.30	0.741
368.51	0.742
368.71	0.741
368.92	0.746
369.13	0.743
369.34	0.742
369.55	0.741
369.75	0.741
369.96	0.747
370.17	0.747
370.38	0.744
370.58	0.744
370.79	0.748
371.00	0.747
371.21	0.739
371.41	0.745
371.62	0.748
371.83	0.744
372.04	0.742
372.24	0.736
372.45	0.736
372.66	0.736
372.87	0.732
373.07	0.730
373.28	0.731
373.49	0.733
373.70	0.724
373.90	0.723
374.11	0.731
374.32	0.730
374.53	0.730
374.73	0.730
374.94	0.733
375.15	0.733
375.36	0.731
375.56	0.738
375.77	0.739
375.98	0.739
376.19	0.737
376.39	0.731
376.60	0.734
376.81	0.734
377.02	0.732
377.22	0.731
377.43	0.731
377.64	0.731
377.84	0.722
378.05	0.726
378.26	0.732
378.47	0.731
378.67	0.728
378.88	0.726
379.09	0.726
379.30	0.726
379.50	0.724
379.71	0.726
379.92	0.729
380.12	0.729
380.33	0.721
380.54	0.717
380.75	0.723
380.95	0.723
381.16	0.722
381.37	0.722
381.57	0.724
381.78	0.725
381.99	0.725
382.20	0.724
382.40	0.727
382.61	0.727
382.82	0.725
383.02	0.719
383.23	0.722
383.44	0.722
383.64	0.721
383.85	0.723
384.06	0.725
384.27	0.723
384.47	0.723
384.68	0.722
384.89	0.728
385.09	0.727
385.30	0.728
385.51	0.727
385.71	0.730
385.92	0.730
386.13	0.729
386.33	0.731
386.54	0.732
386.75	0.730
386.95	0.727
387.16	0.722
387.37	0.724
387.58	0.724
387.78	0.722
387.99	0.719
388.20	0.721
388.40	0.718
388.61	0.714
388.82	0.717
389.02	0.720
389.23	0.720
389.44	0.719
389.64	0.720
389.85	0.731
390.06	0.730
390.26	0.732
390.47	0.731
390.68	0.734
390.88	0.733
391.09	0.728
391.30	0.728
391.50	0.728
391.71	0.728
391.92	0.725
392.12	0.717
392.33	0.719
392.53	0.718
392.74	0.718
392.95	0.717
393.15	0.720
393.36	0.721
393.57	0.720
393.77	0.723
393.98	0.724
394.19	0.724
394.39	0.723
394.60	0.724
394.81	0.726
395.01	0.724
395.22	0.723
395.43	0.723
395.63	0.728
395.84	0.730
396.04	0.726
396.25	0.728
396.46	0.730
396.66	0.729
396.87	0.726
397.08	0.723
397.28	0.725
397.49	0.727
397.69	0.724
397.90	0.719
398.11	0.720
398.31	0.720
398.52	0.717
398.73	0.718
398.93	0.717
399.14	0.718
399.34	0.718
399.55	0.718
399.76	0.718
399.96	0.718
400.17	0.718
400.37	0.716
400.58	0.723
400.79	0.724
400.99	0.722
401.20	0.728
401.41	0.730
401.61	0.731
401.82	0.737
402.02	0.737
402.23	0.738
402.44	0.738
402.64	0.738
402.85	0.732
403.05	0.732
403.26	0.731
403.47	0.725
403.67	0.723
403.88	0.723
404.08	0.717
404.29	0.716
404.50	0.716
404.70	0.716
404.91	0.715
405.11	0.712
405.32	0.712
405.52	0.712
405.73	0.712
405.94	0.711
406.14	0.714
406.35	0.716
406.55	0.716
406.76	0.714
406.97	0.715
407.17	0.718
407.38	0.717
407.58	0.716
407.79	0.719
407.99	0.721
408.20	0.722
408.41	0.718
408.61	0.716
408.82	0.717
409.02	0.717
409.23	0.715
409.43	0.714
409.64	0.715
409.84	0.715
410.05	0.711
410.26	0.710
410.46	0.709
410.67	0.708
410.87	0.710
411.08	0.712
411.28	0.712
411.49	0.714
411.69	0.712
411.90	0.714
412.11	0.715
412.31	0.716
412.52	0.714
412.72	0.715
412.93	0.716
413.13	0.715
413.34	0.711
413.54	0.712
413.75	0.714
413.95	0.714
414.16	0.711
414.37	0.713
414.57	0.714
414.78	0.716
414.98	0.714
415.19	0.715
415.39	0.712
415.60	0.714
415.80	0.714
416.01	0.712
416.21	0.714
416.42	0.714
416.62	0.709
416.83	0.709
417.03	0.709
417.24	0.709
417.44	0.707
417.65	0.707
417.86	0.706
418.06	0.704
418.27	0.702
418.47	0.704
418.68	0.704
418.88	0.705
419.09	0.703
419.29	0.703
419.50	0.704
419.70	0.704
419.91	0.702
420.11	0.701
420.32	0.703
420.52	0.703
420.73	0.702
420.93	0.702
421.14	0.704
421.34	0.703
421.55	0.700
421.75	0.699
421.96	0.701
422.16	0.701
422.37	0.700
422.57	0.697
422.78	0.699
422.98	0.695
423.19	0.694
423.39	0.692
423.60	0.695
423.80	0.696
424.01	0.695
424.21	0.697
424.42	0.698
424.62	0.698
424.83	0.697
425.03	0.697
425.23	0.699
425.44	0.699
425.64	0.699
425.85	0.698
426.05	0.699
426.26	0.699
426.46	0.696
426.67	0.695
426.87	0.700
427.08	0.700
427.28	0.698
427.49	0.699
427.69	0.700
427.90	0.698
428.10	0.695
428.31	0.695
428.51	0.696
428.71	0.696
428.92	0.696
429.12	0.693
429.33	0.693
429.53	0.697
429.74	0.702
429.94	0.702
430.15	0.702
430.35	0.702
430.56	0.699
430.76	0.698
430.96	0.698
431.17	0.696
431.37	0.693
431.58	0.691
431.78	0.688
431.99	0.680
432.19	0.683
432.40	0.685
432.60	0.685
432.80	0.687
433.01	0.686
433.21	0.686
433.42	0.688
433.62	0.689
433.83	0.688
434.03	0.691
434.23	0.694
434.44	0.693
434.64	0.690
434.85	0.695
435.05	0.696
435.26	0.695
435.46	0.694
435.66	0.693
435.87	0.693
436.07	0.694
436.28	0.689
436.48	0.686
436.69	0.686
436.89	0.686
437.09	0.680
437.30	0.678
437.50	0.679
437.71	0.690
437.91	0.690
438.11	0.690
438.32	0.694
438.52	0.694
438.73	0.693
438.93	0.691
439.13	0.690
439.34	0.694
439.54	0.692
439.75	0.692
439.95	0.682
440.15	0.686
440.36	0.686
440.56	0.683
440.77	0.684
440.97	0.684
441.17	0.683
441.38	0.684
441.58	0.681
441.79	0.681
441.99	0.679
442.19	0.678
442.40	0.675
442.60	0.675
442.81	0.673
443.01	0.673
443.21	0.674
443.42	0.673
443.62	0.672
443.82	0.672
444.03	0.673
444.23	0.673
444.44	0.674
444.64	0.672
444.84	0.673
445.05	0.673
445.25	0.670
445.45	0.670
445.66	0.672
445.86	0.670
446.06	0.672
446.27	0.671
446.47	0.674
446.68	0.672
446.88	0.671
447.08	0.671
447.29	0.673
447.49	0.673
447.69	0.673
447.90	0.672
448.10	0.675
448.30	0.672
448.51	0.674
448.71	0.671
448.91	0.673
449.12	0.671
449.32	0.672
449.52	0.671
449.73	0.674
449.93	0.673
450.14	0.673
450.34	0.673
450.54	0.675
450.75	0.672
450.95	0.672
451.15	0.671
451.36	0.674
451.56	0.671
451.76	0.670
451.97	0.667
452.17	0.668
452.37	0.666
452.58	0.663
452.78	0.662
452.98	0.665
453.19	0.664
453.39	0.664
453.59	0.663
453.79	0.663
454.00	0.663
454.20	0.663
454.40	0.663
454.61	0.666
454.81	0.666
455.01	0.665
455.22	0.666
455.42	0.667
455.62	0.666
455.83	0.666
456.03	0.669
456.23	0.670
456.44	0.670
456.64	0.670
456.84	0.670
457.04	0.670
457.25	0.670
457.45	0.667
457.65	0.665
457.86	0.666
458.06	0.665
458.26	0.661
458.47	0.661
458.67	0.662
458.87	0.662
459.07	0.660
459.28	0.662
459.48	0.664
459.68	0.665
459.89	0.664
460.09	0.662
460.29	0.663
460.49	0.664
460.70	0.663
460.90	0.663
461.10	0.663
461.31	0.662
461.51	0.659
461.71	0.660
461.91	0.661
462.12	0.661
462.32	0.660
462.52	0.660
462.72	0.663
462.93	0.663
463.13	0.661
463.33	0.662
463.53	0.665
463.74	0.664
463.94	0.660
464.14	0.661
464.35	0.662
464.55	0.662
464.75	0.661
464.95	0.659
465.16	0.661
465.36	0.660
465.56	0.659
465.76	0.658
465.97	0.658
466.17	0.659
466.37	0.656
466.57	0.657
466.78	0.658
466.98	0.657
467.18	0.655
467.38	0.653
467.59	0.654
467.79	0.656
467.99	0.654
468.19	0.655
468.39	0.658
468.60	0.658
468.80	0.656
469.00	0.658
469.20	0.659
469.41	0.659
469.61	0.659
469.81	0.659
470.01	0.659
470.22	0.660
470.42	0.658
470.62	0.656
470.82	0.656
471.02	0.656
471.23	0.653
471.43	0.654
471.63	0.657
471.83	0.656
472.04	0.655
472.24	0.653
472.44	0.658
472.64	0.658
472.84	0.657
473.05	0.656
473.25	0.660
473.45	0.659
473.65	0.657
473.85	0.658
474.06	0.659
474.26	0.659
474.46	0.660
474.66	0.657
474.86	0.657
475.07	0.657
475.27	0.656
475.47	0.654
475.67	0.654
475.87	0.656
476.08	0.653
476.28	0.654
476.48	0.655
476.68	0.653
476.88	0.651
477.09	0.653
477.29	0.654
477.49	0.654
477.69	0.653
477.89	0.653
478.09	0.652
478.30	0.654
478.50	0.652
478.70	0.652
478.90	0.652
479.10	0.655
479.31	0.655
479.51	0.653
479.71	0.654
479.91	0.653
480.11	0.652
480.31	0.653
480.52	0.651
480.72	0.651
480.92	0.650
481.12	0.649
481.32	0.646
481.52	0.644
481.72	0.644
481.93	0.647
482.13	0.648
482.33	0.648
482.53	0.645
482.73	0.646
482.93	0.647
483.14	0.647
483.34	0.646
483.54	0.647
483.74	0.647
483.94	0.646
484.14	0.642
484.34	0.642
484.55	0.643
484.75	0.643
484.95	0.641
485.15	0.641
485.35	0.641
485.55	0.640
485.75	0.639
485.96	0.639
486.16	0.640
486.36	0.639
486.56	0.637
486.76	0.637
486.96	0.637
487.16	0.637
487.36	0.635
487.57	0.635
487.77	0.635
487.97	0.636
488.17	0.634
488.37	0.633
488.57	0.634
488.77	0.634
488.97	0.632
489.18	0.632
489.38	0.634
489.58	0.635
489.78	0.635
489.98	0.634
490.18	0.634
490.38	0.635
490.58	0.634
490.78	0.635
490.98	0.637
491.19	0.637
491.39	0.636
491.59	0.635
491.79	0.638
491.99	0.638
492.19	0.638
492.39	0.641
492.59	0.641
492.79	0.643
492.99	0.643
493.20	0.643
493.40	0.643
493.60	0.644
493.80	0.643
494.00	0.640
494.20	0.641
494.40	0.641
494.60	0.638
494.80	0.642
495.00	0.642
495.20	0.640
495.40	0.639
495.61	0.640
495.81	0.640
496.01	0.643
496.21	0.644
496.41	0.643
496.61	0.644
496.81	0.643
497.01	0.637
497.21	0.637
497.41	0.637
497.61	0.636
497.81	0.634
498.01	0.634
498.21	0.632
498.41	0.631
498.61	0.631
498.82	0.632
499.02	0.634
499.22	0.635
499.42	0.635
499.62	0.636
499.82	0.637
500.02	0.638
500.22	0.637
500.42	0.639
500.62	0.639
500.82	0.639
501.02	0.637
501.22	0.638
501.42	0.637
501.62	0.640
501.82	0.639
502.02	0.640
502.22	0.639
502.42	0.641
502.62	0.639
502.82	0.639
503.02	0.640
503.22	0.639
503.42	0.637
503.63	0.637
503.83	0.634
504.03	0.633
504.23	0.631
504.43	0.632
504.63	0.632
504.83	0.632
505.03	0.631
505.23	0.632
505.43	0.634
505.63	0.634
505.83	0.634
506.03	0.636
506.23	0.638
506.43	0.638
506.63	0.637
506.83	0.636
507.03	0.638
507.23	0.638
507.43	0.636
507.63	0.636
507.83	0.636
508.03	0.637
508.23	0.636
508.43	0.636
508.63	0.637
508.83	0.637
509.03	0.638
509.23	0.637
509.43	0.638
509.63	0.638
509.83	0.637
510.03	0.640
510.23	0.641
510.43	0.642
510.63	0.642
510.83	0.642
511.03	0.643
511.23	0.641
511.43	0.642
511.63	0.643
511.83	0.645
512.03	0.645
512.22	0.642
512.42	0.641
512.62	0.642
512.82	0.641
513.02	0.640
513.22	0.640
513.42	0.642
513.62	0.645
513.82	0.642
514.02	0.642
514.22	0.643
514.42	0.644
514.62	0.644
514.82	0.644
515.02	0.647
515.22	0.650
515.42	0.649
515.62	0.651
515.82	0.651
516.02	0.652
516.22	0.652
516.42	0.653
516.62	0.654
516.82	0.655
517.01	0.654
517.21	0.652
517.41	0.656
517.61	0.656
517.81	0.652
518.01	0.651
518.21	0.651
518.41	0.649
518.61	0.649
518.81	0.649
519.01	0.650
519.21	0.650
519.41	0.649
519.61	0.643
519.81	0.645
520.00	0.646
520.20	0.647
520.40	0.650
520.60	0.651
520.80	0.650
521.00	0.650
521.20	0.650
521.40	0.655
521.60	0.656
521.80	0.656
522.00	0.656
522.20	0.658
522.39	0.657
522.59	0.654
522.79	0.655
522.99	0.658
523.19	0.656
523.39	0.654
523.59	0.652
523.79	0.654
523.99	0.656
524.19	0.656
524.38	0.654
524.58	0.655
524.78	0.655
524.98	0.654
525.18	0.656
525.38	0.657
525.58	0.658
525.78	0.656
525.98	0.654
526.18	0.654
526.37	0.653
526.57	0.655
526.77	0.656
526.97	0.657
527.17	0.657
527.37	0.653
527.57	0.655
527.77	0.657
527.96	0.656
528.16	0.656
528.36	0.657
528.56	0.659
528.76	0.656
528.96	0.655
529.16	0.656
529.36	0.659
529.55	0.659
529.75	0.656
529.95	0.656
530.15	0.657
530.35	0.659
530.55	0.657
530.75	0.658
530.94	0.659
531.14	0.660
531.34	0.658
531.54	0.656
531.74	0.659
531.94	0.662
532.13	0.660
532.33	0.663
532.53	0.661
532.73	0.661
532.93	0.659
533.13	0.660
533.33	0.660
533.52	0.661
533.72	0.665
533.92	0.663
534.12	0.661
534.32	0.661
534.52	0.659
534.71	0.661
534.91	0.663
535.11	0.665
535.31	0.663
535.51	0.664
535.71	0.665
535.90	0.662
536.10	0.664
536.30	0.666
536.50	0.667
536.70	0.667
536.89	0.665
537.09	0.665
537.29	0.665
537.49	0.666
537.69	0.664
537.89	0.665
538.08	0.665
538.28	0.663
538.48	0.664
538.68	0.665
538.88	0.667
539.07	0.666
539.27	0.665
539.47	0.664
539.67	0.664
539.87	0.665
540.06	0.663
540.26	0.664
540.46	0.665
540.66	0.662
540.86	0.661
541.05	0.661
541.25	0.662
541.45	0.663
541.65	0.662
541.84	0.664
542.04	0.665
542.24	0.665
542.44	0.664
542.64	0.665
542.83	0.668
543.03	0.668
543.23	0.666
543.43	0.667
543.62	0.668
543.82	0.668
544.02	0.666
544.22	0.667
544.42	0.670
544.61	0.671
544.81	0.668
545.01	0.666
545.21	0.668
545.40	0.668
545.60	0.666
545.80	0.669
546.00	0.669
546.19	0.668
546.39	0.666
546.59	0.663
546.79	0.665
546.98	0.665
547.18	0.665
547.38	0.666
547.58	0.668
547.77	0.669
547.97	0.666
548.17	0.667
548.37	0.668
548.56	0.668
548.76	0.669
548.96	0.670
549.16	0.672
549.35	0.671
549.55	0.669
549.75	0.670
549.95	0.673
550.14	0.673
550.34	0.673
550.54	0.677
550.73	0.681
550.93	0.681
551.13	0.679
551.33	0.677
551.52	0.678
551.72	0.679
551.92	0.677
552.12	0.678
552.31	0.678
552.51	0.678
552.71	0.674
552.90	0.673
553.10	0.674
553.30	0.674
553.50	0.674
553.69	0.676
553.89	0.676
554.09	0.675
554.28	0.672
554.48	0.674
554.68	0.675
554.87	0.675
555.07	0.672
555.27	0.672
555.47	0.673
555.66	0.674
555.86	0.673
556.06	0.675
556.25	0.676
556.45	0.684
556.65	0.683
556.84	0.686
557.04	0.690
557.24	0.691
557.43	0.691
557.63	0.693
557.83	0.695
558.02	0.696
558.22	0.700
558.42	0.700
558.61	0.693
558.81	0.693
559.01	0.689
559.21	0.688
559.40	0.689
559.60	0.689
559.80	0.686
559.99	0.687
560.19	0.689
560.39	0.683
560.58	0.681
560.78	0.681
560.97	0.685
561.17	0.684
561.37	0.682
561.56	0.683
561.76	0.684
561.96	0.683
562.15	0.680
562.35	0.682
562.55	0.683
562.74	0.682
562.94	0.681
563.14	0.679
563.33	0.679
563.53	0.680
563.73	0.677
563.92	0.679
564.12	0.681
564.31	0.684
564.51	0.683
564.71	0.685
564.90	0.688
565.10	0.690
565.30	0.693
565.49	0.694
565.69	0.696
565.89	0.696
566.08	0.694
566.28	0.696
566.47	0.696
566.67	0.694
566.87	0.692
567.06	0.693
567.26	0.698
567.46	0.693
567.65	0.693
567.85	0.695
568.04	0.697
568.24	0.696
568.44	0.694
568.63	0.693
568.83	0.694
569.02	0.693
569.22	0.688
569.42	0.684
569.61	0.687
569.81	0.686
570.00	0.684
570.20	0.685
570.40	0.687
570.59	0.686
570.79	0.684
570.98	0.683
571.18	0.684
571.38	0.684
571.57	0.682
571.77	0.679
571.96	0.683
572.16	0.680
572.35	0.675
572.55	0.676
572.75	0.674
572.94	0.673
573.14	0.671
573.33	0.671
573.53	0.672
573.73	0.671
573.92	0.670
574.12	0.668
574.31	0.671
574.51	0.671
574.70	0.668
574.90	0.670
575.09	0.672
575.29	0.672
575.49	0.670
575.68	0.670
575.88	0.671
576.07	0.672
576.27	0.670
576.46	0.668
576.66	0.667
576.86	0.667
577.05	0.665
577.25	0.663
577.44	0.664
577.64	0.664
577.83	0.662
578.03	0.664
578.22	0.663
578.42	0.663
578.61	0.661
578.81	0.662
579.00	0.662
579.20	0.662
579.40	0.660
579.59	0.659
579.79	0.660
579.98	0.660
580.18	0.659
580.37	0.660
580.57	0.661
580.76	0.666
580.96	0.664
581.15	0.665
581.35	0.667
581.54	0.667
581.74	0.666
581.93	0.667
582.13	0.667
582.32	0.664
582.52	0.663
582.71	0.662
582.91	0.658
583.10	0.657
583.30	0.656
583.49	0.655
583.69	0.659
583.88	0.660
584.08	0.660
584.27	0.663
584.47	0.666
584.66	0.667
584.86	0.666
585.05	0.668
585.25	0.671
585.44	0.670
585.64	0.669
585.83	0.666
586.03	0.666
586.22	0.664
586.42	0.660
586.61	0.661
586.81	0.663
587.00	0.663
587.20	0.661
587.39	0.661
587.59	0.663
587.78	0.664
587.98	0.665
588.17	0.666
588.37	0.668
588.56	0.670
588.76	0.666
588.95	0.666
589.15	0.670
589.34	0.672
589.54	0.671
589.73	0.672
589.92	0.675
590.12	0.675
590.31	0.674
590.51	0.679
590.70	0.681
590.90	0.681
591.09	0.679
591.29	0.678
591.48	0.677
591.68	0.678
591.87	0.677
592.06	0.677
592.26	0.679
592.45	0.678
592.65	0.672
592.84	0.672
593.04	0.674
593.23	0.676
593.43	0.674
593.62	0.673
593.81	0.673
594.01	0.672
594.20	0.669
594.40	0.668
594.59	0.669
594.79	0.670
594.98	0.668
595.17	0.667
595.37	0.668
595.56	0.670
595.76	0.670
595.95	0.671
596.14	0.674
596.34	0.676
596.53	0.675
596.73	0.676
596.92	0.678
597.12	0.680
597.31	0.681
597.50	0.680
597.70	0.682
597.89	0.681
598.09	0.678
598.28	0.680
598.47	0.681
598.67	0.680
598.86	0.677
599.06	0.679
599.25	0.678
599.44	0.676
599.64	0.673
599.83	0.670
600.03	0.673
600.22	0.674
600.41	0.673
600.61	0.671
600.80	0.673
601.00	0.673
601.19	0.669
601.38	0.668
601.58	0.670
601.77	0.672
601.96	0.674
602.16	0.674
602.35	0.682
602.55	0.680
602.74	0.682
602.93	0.683
603.13	0.688
603.32	0.690
603.51	0.690
603.71	0.694
603.90	0.695
604.09	0.696
604.29	0.694
604.48	0.689
604.68	0.691
604.87	0.689
605.06	0.685
605.26	0.682
605.45	0.682
605.64	0.681
605.84	0.676
606.03	0.675
606.22	0.674
606.42	0.673
606.61	0.669
606.80	0.670
607.00	0.671
607.19	0.671
607.38	0.670
607.58	0.671
607.77	0.673
607.96	0.673
608.16	0.672
608.35	0.676
608.54	0.678
608.74	0.681
608.93	0.685
609.12	0.688
609.32	0.690
609.51	0.694
609.70	0.693
609.90	0.695
610.09	0.700
610.28	0.705
610.48	0.699
610.67	0.701
610.86	0.703
611.06	0.698
611.25	0.695
611.44	0.696
611.64	0.696
611.83	0.698
612.02	0.695
612.21	0.693
612.41	0.692
612.60	0.690
612.79	0.687
612.99	0.687
613.18	0.689
613.37	0.687
613.57	0.684
613.76	0.686
613.95	0.683
614.14	0.683
614.34	0.680
614.53	0.680
614.72	0.683
614.92	0.683
615.11	0.679
615.30	0.675
615.49	0.676
615.69	0.679
615.88	0.675
616.07	0.676
616.26	0.677
616.46	0.678
616.65	0.675
616.84	0.673
617.04	0.675
617.23	0.678
617.42	0.679
617.61	0.683
617.81	0.683
618.00	0.687
618.19	0.686
618.38	0.692
618.58	0.696
618.77	0.697
618.96	0.697
619.15	0.698
619.35	0.700
619.54	0.701
619.73	0.698
619.92	0.700
620.12	0.703
620.31	0.703
620.50	0.697
620.69	0.697
620.89	0.700
621.08	0.700
621.27	0.701
621.46	0.701
621.66	0.703
621.85	0.703
622.04	0.700
622.23	0.701
622.43	0.702
622.62	0.701
622.81	0.701
623.00	0.701
623.19	0.704
623.39	0.702
623.58	0.700
623.77	0.698
623.96	0.700
624.16	0.699
624.35	0.694
624.54	0.697
624.73	0.701
624.92	0.699
625.12	0.696
625.31	0.696
625.50	0.698
625.69	0.698
625.88	0.695
626.08	0.695
626.27	0.696
626.46	0.697
626.65	0.694
626.84	0.693
627.04	0.698
627.23	0.698
627.42	0.695
627.61	0.698
627.80	0.700
628.00	0.700
628.19	0.699
628.38	0.702
628.57	0.704
628.76	0.703
628.96	0.701
629.15	0.701
629.34	0.704
629.53	0.704
629.72	0.699
629.91	0.700
630.11	0.703
630.30	0.703
630.49	0.706
630.68	0.706
630.87	0.709
631.06	0.710
631.26	0.706
631.45	0.707
631.64	0.714
631.83	0.715
632.02	0.712
632.21	0.712
632.41	0.718
632.60	0.713
632.79	0.712
632.98	0.713
633.17	0.715
633.36	0.717
633.55	0.715
633.75	0.711
633.94	0.713
634.13	0.713
634.32	0.711
634.51	0.705
634.70	0.707
634.89	0.707
635.09	0.703
635.28	0.703
635.47	0.704
635.66	0.706
635.85	0.702
636.04	0.704
636.23	0.708
636.43	0.708
636.62	0.708
636.81	0.707
637.00	0.708
637.19	0.712
637.38	0.708
637.57	0.708
637.76	0.710
637.95	0.710
638.15	0.706
638.34	0.703
638.53	0.705
638.72	0.708
638.91	0.706
639.10	0.705
639.29	0.704
639.48	0.706
639.67	0.706
639.87	0.704
640.06	0.710
640.25	0.710
640.44	0.711
640.63	0.712
640.82	0.713
641.01	0.713
641.20	0.712
641.39	0.714
641.58	0.715
641.78	0.714
641.97	0.711
642.16	0.723
642.35	0.724
642.54	0.723
642.73	0.717
642.92	0.716
643.11	0.719
643.30	0.719
643.49	0.715
643.68	0.717
643.87	0.718
644.06	0.719
644.25	0.701
644.45	0.703
644.64	0.704
644.83	0.705
645.02	0.702
645.21	0.700
645.40	0.701
645.59	0.702
645.78	0.697
645.97	0.699
646.16	0.700
646.35	0.699
646.54	0.698
646.73	0.699
646.92	0.701
647.11	0.701
647.30	0.698
647.49	0.699
647.68	0.698
647.88	0.697
648.07	0.691
648.26	0.694
648.45	0.695
648.64	0.692
648.83	0.689
649.02	0.692
649.21	0.701
649.40	0.700
649.59	0.695
649.78	0.696
649.97	0.710
650.16	0.709
650.35	0.703
650.54	0.705
650.73	0.712
650.92	0.709
651.11	0.702
651.30	0.700
651.49	0.705
651.68	0.705
651.87	0.702
652.06	0.691
652.25	0.695
652.44	0.698
652.63	0.698
652.82	0.700
653.01	0.701
653.20	0.700
653.39	0.689
653.58	0.686
653.77	0.686
653.96	0.681
654.15	0.674
654.34	0.672
654.53	0.667
654.72	0.661
654.91	0.651
655.10	0.647
655.29	0.645
655.48	0.642
655.67	0.637
655.86	0.635
656.05	0.633
656.24	0.632
656.43	0.627
656.62	0.626
656.81	0.625
657.00	0.621
657.19	0.617
657.38	0.616
657.57	0.615
657.76	0.617
657.95	0.614
658.14	0.617
658.33	0.619
658.51	0.623
658.70	0.623
658.89	0.625
659.08	0.635
659.27	0.644
659.46	0.645
659.65	0.652
659.84	0.655
660.03	0.658
660.22	0.660
660.41	0.664
660.60	0.663
660.79	0.665
660.98	0.670
661.17	0.669
661.36	0.668
661.55	0.669
661.74	0.667
661.92	0.669
662.11	0.671
662.30	0.669
662.49	0.664
662.68	0.663
662.87	0.666
663.06	0.661
663.25	0.662
663.44	0.663
663.63	0.664
663.82	0.663
664.01	0.659
664.20	0.657
664.38	0.658
664.57	0.659
664.76	0.659
664.95	0.659
665.14	0.663
665.33	0.658
665.52	0.665
665.71	0.668
665.90	0.667
666.09	0.668
666.28	0.666
666.46	0.666
666.65	0.666
666.84	0.663
667.03	0.658
667.22	0.657
667.41	0.659
667.60	0.650
667.79	0.644
667.98	0.646
668.16	0.647
668.35	0.647
668.54	0.642
668.73	0.644
668.92	0.645
669.11	0.644
669.30	0.639
669.49	0.635
669.67	0.636
669.86	0.639
670.05	0.636
670.24	0.633
670.43	0.631
670.62	0.630
670.81	0.626
671.00	0.627
671.18	0.626
671.37	0.626
671.56	0.624
671.75	0.624
671.94	0.620
672.13	0.618
672.32	0.614
672.50	0.614
672.69	0.614
672.88	0.614
673.07	0.610
673.26	0.612
673.45	0.612
673.63	0.612
673.82	0.609
674.01	0.610
674.20	0.609
674.39	0.609
674.58	0.608
674.76	0.609
674.95	0.607
675.14	0.607
675.33	0.603
675.52	0.602
675.71	0.602
675.89	0.601
676.08	0.597
676.27	0.597
676.46	0.597
676.65	0.597
676.84	0.596
677.02	0.597
677.21	0.599
677.40	0.599
677.59	0.597
677.78	0.598
677.96	0.600
678.15	0.599
678.34	0.597
678.53	0.598
678.72	0.597
678.90	0.594
679.09	0.590
679.28	0.587
679.47	0.587
679.66	0.586
679.84	0.582
680.03	0.580
680.22	0.579
680.41	0.580
680.60	0.577
680.78	0.577
680.97	0.579
681.16	0.580
681.35	0.578
681.53	0.577
681.72	0.578
681.91	0.581
682.10	0.579
682.29	0.582
682.47	0.579
682.66	0.577
682.85	0.575
683.04	0.573
683.22	0.573
683.41	0.575
683.60	0.574
683.79	0.575
683.97	0.574
684.16	0.572
684.35	0.569
684.54	0.570
684.72	0.571
684.91	0.572
685.10	0.571
685.29	0.571
685.47	0.569
685.66	0.567
685.85	0.564
686.04	0.564
686.22	0.567
686.41	0.569
686.60	0.567
686.79	0.570
686.97	0.570
687.16	0.572
687.35	0.569
687.54	0.573
687.72	0.576
687.91	0.575
688.10	0.577
688.29	0.577
688.47	0.574
688.66	0.575
688.85	0.571
689.03	0.569
689.22	0.574
689.41	0.574
689.60	0.570
689.78	0.567
689.97	0.568
690.16	0.565
690.34	0.562
690.53	0.562
690.72	0.561
690.91	0.559
691.09	0.557
691.28	0.551
691.47	0.549
691.65	0.548
691.84	0.545
692.03	0.544
692.21	0.542
692.40	0.541
692.59	0.539
692.77	0.537
692.96	0.539
693.15	0.540
693.34	0.537
693.52	0.537
693.71	0.538
693.90	0.539
694.08	0.539
694.27	0.540
694.46	0.549
694.64	0.550
694.83	0.550
695.02	0.549
695.20	0.548
695.39	0.548
695.58	0.548
695.76	0.548
695.95	0.548
696.14	0.547
696.32	0.545
696.51	0.536
696.70	0.535
696.88	0.536
697.07	0.535
697.26	0.536
697.44	0.538
697.63	0.537
697.81	0.535
698.00	0.534
698.19	0.533
698.37	0.533
698.56	0.533
698.75	0.532
698.93	0.532
699.12	0.531
699.31	0.530
699.49	0.529
699.68	0.530
699.87	0.532
700.05	0.533
700.24	0.532
700.42	0.533
700.61	0.533
700.80	0.531
700.98	0.532
701.17	0.533
701.36	0.532
701.54	0.531
701.73	0.532
701.91	0.530
702.10	0.529
702.29	0.528
702.47	0.527
702.66	0.528
702.84	0.528
703.03	0.527
703.22	0.528
703.40	0.528
703.59	0.530
703.77	0.530
703.96	0.530
704.15	0.530
704.33	0.530
704.52	0.530
704.70	0.529
704.89	0.529
705.08	0.528
705.26	0.524
705.45	0.523
705.63	0.522
705.82	0.519
706.00	0.518
706.19	0.518
706.38	0.518
706.56	0.517
706.75	0.515
706.93	0.514
707.12	0.516
707.30	0.516
707.49	0.515
707.68	0.513
707.86	0.512
708.05	0.512
708.23	0.509
708.42	0.509
708.60	0.512
708.79	0.511
708.98	0.509
709.16	0.508
709.35	0.510
709.53	0.514
709.72	0.513
709.90	0.515
710.09	0.517
710.27	0.518
710.46	0.522
710.64	0.520
710.83	0.522
711.02	0.524
711.20	0.523
711.39	0.521
711.57	0.519
711.76	0.520
711.94	0.518
712.13	0.520
712.31	0.519
712.50	0.515
712.68	0.514
712.87	0.515
713.05	0.516
713.24	0.516
713.42	0.515
713.61	0.517
713.79	0.518
713.98	0.518
714.16	0.519
714.35	0.518
714.54	0.519
714.72	0.518
714.91	0.516
715.09	0.521
715.28	0.524
715.46	0.524
715.65	0.522
715.83	0.521
716.02	0.523
716.20	0.519
716.39	0.519
716.57	0.520
716.76	0.522
716.94	0.522
717.12	0.515
717.31	0.517
717.49	0.519
717.68	0.521
717.86	0.521
718.05	0.523
718.23	0.525
718.42	0.527
718.60	0.529
718.79	0.537
718.97	0.539
719.16	0.539
719.34	0.536
719.53	0.536
719.71	0.535
719.90	0.537
720.08	0.534
720.27	0.533
720.45	0.533
720.63	0.532
720.82	0.526
721.00	0.529
721.19	0.532
721.37	0.532
721.56	0.533
721.74	0.535
721.93	0.543
722.11	0.548
722.30	0.549
722.48	0.553
722.66	0.554
722.85	0.553
723.03	0.554
723.22	0.552
723.40	0.555
723.59	0.555
723.77	0.560
723.95	0.553
724.14	0.556
724.32	0.557
724.51	0.556
724.69	0.557
724.88	0.557
725.06	0.555
725.24	0.557
725.43	0.558
725.61	0.560
725.80	0.554
725.98	0.554
726.16	0.551
726.35	0.555
726.53	0.554
726.72	0.554
726.90	0.563
727.09	0.564
727.27	0.568
727.45	0.566
727.64	0.575
727.82	0.582
728.01	0.585
728.19	0.582
728.37	0.587
728.56	0.592
728.74	0.598
728.92	0.587
729.11	0.590
729.29	0.588
729.48	0.590
729.66	0.580
729.84	0.581
730.03	0.584
730.21	0.586
730.40	0.577
730.58	0.577
730.76	0.576
730.95	0.579
731.13	0.579
731.31	0.593
731.50	0.601
731.68	0.604
731.86	0.600
732.05	0.613
732.23	0.615
732.42	0.618
732.60	0.622
732.78	0.627
732.97	0.643
733.15	0.651
733.33	0.640
733.52	0.645
733.70	0.654
733.88	0.663
734.07	0.651
734.25	0.675
734.43	0.681
734.62	0.684
734.80	0.679
734.98	0.672
735.17	0.676
735.35	0.681
735.53	0.670
735.72	0.674
735.90	0.692
736.08	0.710
736.27	0.688
736.45	0.698
736.63	0.705
736.82	0.716
737.00	0.717
737.18	0.724
737.37	0.754
737.55	0.777
737.73	0.772
737.92	0.777
738.10	0.772
738.28	0.795
738.46	0.782
738.65	0.795
738.83	0.810
739.01	0.858
739.20	0.851
739.38	0.833
739.56	0.822
739.75	0.826
739.93	0.795
740.11	0.818
740.29	0.813
740.48	0.822
740.66	0.802
740.84	0.803
741.03	0.765
741.21	0.777
741.39	0.763
741.57	0.773
741.76	0.785
741.94	0.792
742.12	0.762
742.31	0.770
742.49	0.783
742.67	0.807
742.85	0.818
743.04	0.829
743.22	0.835
743.40	0.882
743.58	0.872
743.77	0.891
743.95	0.918
744.13	0.962
744.31	0.947
744.50	0.941
744.68	0.938
744.86	0.913
745.04	0.920
745.23	0.976
745.41	0.957
745.59	0.960
745.77	0.926
745.96	0.915
746.14	0.918
746.32	0.917
746.50	0.915
746.69	0.901
746.87	0.909
747.05	0.894
747.23	0.828
747.42	0.815
747.60	0.834
747.78	0.839
747.96	0.866
748.14	0.830
748.33	0.852
748.51	0.847
748.69	0.842
748.87	0.869
749.06	0.865
749.24	0.865
749.42	0.853
749.60	0.840
749.78	0.847
749.97	0.808
750.15	0.802
750.33	0.801
750.51	0.823
750.69	0.825
750.88	0.827
751.06	0.835
751.24	0.855
751.42	0.846
751.60	0.841
751.79	0.901
751.97	0.937
752.15	0.936
752.33	0.909
752.51	0.960
752.69	0.969
752.88	0.943
753.06	0.990
753.24	0.973
753.42	1.003
753.60	1.137
753.78	1.021
753.97	1.044
754.15	1.054
754.33	1.078
754.51	0.980
754.69	0.966
754.87	0.991
755.06	0.928
755.24	0.931
755.42	0.941
755.60	0.851
755.78	0.863
755.96	0.814
756.15	0.816
756.33	0.821
756.51	0.839
756.69	0.829
756.87	0.799
757.05	0.812
757.23	0.799
757.42	0.773
757.60	0.773
757.78	0.761
757.96	0.760
758.14	0.746
758.32	0.734
758.50	0.744
758.69	0.743
758.87	0.735
759.05	0.738
759.23	0.743
759.41	0.741
759.59	0.734
759.77	0.752
759.95	0.774
760.13	0.819
760.32	0.818
760.50	0.811
760.68	0.831
760.86	0.832
761.04	0.813
761.22	0.816
761.40	0.856
761.58	0.860
761.76	0.838
761.95	0.821
762.13	0.779
762.31	0.782
762.49	0.754
762.67	0.768
762.85	0.781
763.03	0.776
763.21	0.761
763.39	0.743
763.57	0.744
763.75	0.738
763.94	0.727
764.12	0.730
764.30	0.748
764.48	0.753
764.66	0.720
764.84	0.716
765.02	0.748
765.20	0.756
765.38	0.740
765.56	0.744
765.74	0.780
765.92	0.779
766.10	0.783
766.28	0.778
766.46	0.802
766.65	0.804
766.83	0.794
767.01	0.777
767.19	0.779
767.37	0.779
767.55	0.769
767.73	0.750
767.91	0.752
768.09	0.744
768.27	0.734
768.45	0.725
768.63	0.729
768.81	0.731
768.99	0.710
769.17	0.732
769.35	0.742
769.53	0.742
769.71	0.725
769.89	0.731
770.07	0.733
770.25	0.718
770.43	0.700
770.61	0.720
770.79	0.727
770.97	0.735
771.15	0.710
771.33	0.713
771.51	0.713
771.69	0.721
771.87	0.728
772.05	0.732
772.24	0.736
772.42	0.744
772.60	0.726
772.78	0.775
772.96	0.797
773.14	0.792
773.32	0.772
773.49	0.779
773.67	0.777
773.85	0.760
774.03	0.751
774.21	0.782
774.39	0.792
774.57	0.813
774.75	0.751
774.93	0.748
775.11	0.768
775.29	0.774
775.47	0.774
775.65	0.785
775.83	0.800
776.01	0.822
776.19	0.782
776.37	0.781
776.55	0.779
776.73	0.776
776.91	0.773
777.09	0.757
777.27	0.753
777.45	0.744
777.63	0.726
777.81	0.723
777.99	0.707
778.17	0.703
778.35	0.687
778.53	0.675
778.71	0.679
778.89	0.667
779.07	0.659
779.24	0.665
779.42	0.668
779.60	0.683
779.78	0.680
779.96	0.686
780.14	0.693
780.32	0.712
780.50	0.697
780.68	0.696
780.86	0.689
781.04	0.705
781.22	0.711
781.40	0.717
781.58	0.708
781.75	0.702
781.93	0.685
782.11	0.687
782.29	0.674
782.47	0.674
782.65	0.665
782.83	0.690
783.01	0.682
783.19	0.675
783.37	0.663
783.55	0.663
783.72	0.678
783.90	0.690
784.08	0.684
784.26	0.691
784.44	0.710
784.62	0.712
784.80	0.683
784.98	0.688
785.16	0.692
785.33	0.707
785.51	0.698
785.69	0.686
785.87	0.684
786.05	0.694
786.23	0.692
786.41	0.687
786.59	0.692
786.77	0.693
786.94	0.684
787.12	0.688
787.30	0.687
787.48	0.685
787.66	0.674
787.84	0.676
788.02	0.667
788.19	0.666
788.37	0.656
788.55	0.659
788.73	0.658
788.91	0.653
789.09	0.638
789.27	0.628
789.44	0.638
789.62	0.644
789.80	0.651
789.98	0.671
790.16	0.658
790.34	0.653
790.51	0.642
790.69	0.660
790.87	0.665
791.05	0.663
791.23	0.658
791.41	0.657
791.58	0.662
791.76	0.645
791.94	0.620
792.12	0.630
792.30	0.631
792.48	0.630
792.65	0.624
792.83	0.631
793.01	0.637
793.19	0.636
793.37	0.622
793.54	0.620
793.72	0.628
793.90	0.627
794.08	0.618
794.26	0.619
794.43	0.626
794.61	0.611
794.79	0.599
794.97	0.596
795.15	0.599
795.32	0.603
795.50	0.593
795.68	0.589
795.86	0.591
796.04	0.591
796.21	0.585
796.39	0.582
796.57	0.594
796.75	0.603
796.92	0.606
797.10	0.608
797.28	0.610
797.46	0.612
797.64	0.615
797.81	0.622
797.99	0.625
798.17	0.629
798.35	0.625
798.52	0.629
798.70	0.624
798.88	0.632
799.06	0.635
799.23	0.638
799.41	0.645
799.59	0.639
799.77	0.631
799.94	0.637
800.12	0.645
800.30	0.661
800.48	0.660
800.65	0.661
800.83	0.651
801.01	0.643
801.19	0.643
801.36	0.640
801.54	0.642
801.72	0.650
801.90	0.639
802.07	0.636
802.25	0.622
802.43	0.609
802.60	0.605
802.78	0.610
802.96	0.614
803.14	0.608
803.31	0.608
803.49	0.607
803.67	0.606
803.84	0.611
804.02	0.603
804.20	0.605
804.38	0.607
804.55	0.606
804.73	0.596
804.91	0.597
805.08	0.608
805.26	0.605
805.44	0.667
805.61	0.666
805.79	0.663
805.97	0.664
806.15	0.657
806.32	0.653
806.50	0.659
806.68	0.659
806.85	0.652
807.03	0.644
807.21	0.659
807.38	0.596
807.56	0.588
807.74	0.597
807.91	0.601
808.09	0.605
808.27	0.622
808.44	0.645
808.62	0.650
808.80	0.651
808.97	0.648
809.15	0.642
809.33	0.656
809.50	0.663
809.68	0.652
809.86	0.660
810.03	0.685
810.21	0.668
810.39	0.653
810.56	0.660
810.74	0.681
810.91	0.746
811.09	0.738
811.27	0.756
811.44	0.759
811.62	0.760
811.80	0.745
811.97	0.719
812.15	0.718
812.33	0.711
812.50	0.698
812.68	0.688
812.85	0.635
813.03	0.635
813.21	0.610
813.38	0.605
813.56	0.607
813.74	0.617
813.91	0.625
814.09	0.650
814.26	0.644
814.44	0.649
814.62	0.641
814.79	0.644
814.97	0.647
815.14	0.649
815.32	0.652
815.50	0.668
815.67	0.668
815.85	0.660
816.02	0.652
816.20	0.659
816.38	0.670
816.55	0.675
816.73	0.675
816.90	0.683
817.08	0.711
817.26	0.716
817.43	0.698
817.61	0.722
817.78	0.737
817.96	0.718
818.13	0.709
818.31	0.710
818.49	0.719
818.66	0.711
818.84	0.702
819.01	0.682
819.19	0.686
819.36	0.689
819.54	0.662
819.71	0.699
819.89	0.711
820.07	0.721
820.24	0.716
820.42	0.719
820.59	0.733
820.77	0.753
820.94	0.748
821.12	0.765
821.29	0.776
821.47	0.777
821.64	0.720
821.82	0.732
822.00	0.732
822.17	0.731
822.35	0.723
822.52	0.726
822.70	0.716
822.87	0.723
823.05	0.705
823.22	0.717
823.40	0.740
823.57	0.765
823.75	0.748
823.92	0.768
824.10	0.780
824.27	0.817
824.45	0.807
824.62	0.862
824.80	0.877
824.97	0.889
825.15	0.883
825.32	0.899
825.50	0.897
825.67	0.915
825.85	0.895
826.02	0.913
826.20	0.931
826.37	1.041
826.55	0.966
826.72	1.128
826.90	1.183
827.07	1.220
827.25	1.163
827.42	1.275
827.60	1.352
827.77	1.466
827.95	1.439
828.12	1.506
828.30	1.271
828.47	1.353
828.65	1.100
828.82	1.137
829.00	1.163
829.17	1.234
829.34	1.242
829.52	1.267
829.69	-0.000
829.87	-0.000
830.04	-0.000
830.22	-0.000
830.39	-0.000
830.57	-0.000
830.74	-0.000
830.92	-0.000
831.09	-0.000
831.26	-0.000
831.44	-0.000
831.61	-0.000
831.79	-0.000
831.96	-0.000
832.14	-0.000
832.31	-0.000
832.49	-0.000
832.66	-0.000
832.83	-0.000
833.01	-0.000
833.18	-0.000
833.36	-0.000
833.53	-0.000
833.70	-0.000
833.88	-0.000
834.05	-0.000
834.23	-0.000
834.40	-0.000
834.58	-0.000
834.75	-0.000
834.92	-0.000
835.10	-0.000
835.27	-0.000
835.45	-0.000
835.62	-0.000
835.79	-0.000
835.97	-0.000
836.14	-0.000
836.32	-0.000
836.49	-0.000
836.66	-0.000
836.84	-0.000
837.01	-0.000
837.18	-0.000
837.36	-0.000
837.53	-0.000
837.71	-0.000
837.88	-0.000
838.05	-0.000
838.23	-0.000
838.40	-0.000
838.58	-0.000
838.75	-0.000
838.92	-0.000
839.10	-0.000
839.27	-0.000
839.44	-0.000
839.62	-0.000
839.79	-0.000
839.96	-0.000
840.14	-0.000
840.31	-0.000
840.48	-0.000
840.66	-0.000
840.83	-0.000
841.01	-0.000
841.18	-0.000
841.35	-0.000
841.53	-0.000
841.70	-0.000
841.87	-0.000
842.05	-0.000
842.22	-0.000
842.39	-0.000
842.57	-0.000
842.74	-0.000
842.91	-0.000
843.09	-0.000
843.26	-0.000
843.43	-0.000
843.60	-0.000
843.78	-0.000
843.95	-0.000
844.12	-0.000
844.30	-0.000
844.47	-0.000
844.64	-0.000
844.82	-0.000
844.99	-0.000
845.16	-0.000
845.34	-0.000
845.51	-0.000
845.68	-0.000
845.85	-0.000
846.03	-0.000
846.20	-0.000
846.37	-0.000
846.55	-0.000
846.72	-0.000
846.89	-0.000
847.06	-0.000
847.24	-0.000
847.41	-0.000
847.58	-0.000
847.76	-0.000
847.93	-0.000
848.10	-0.000
848.27	-0.000
848.45	-0.000
848.62	-0.000
848.79	-0.000
848.97	-0.000
849.14	-0.000
849.31	-0.000
849.48	-0.000
849.66	-0.000
849.83	-0.000
850.00	-0.000
850.17	-0.000
850.35	-0.000
850.52	-0.000
850.69	-0.000
850.86	-0.000
851.04	-0.000
851.21	-0.000
851.38	-0.000
851.55	-0.000
851.72	-0.000
851.90	-0.000
852.07	-0.000
852.24	-0.000
852.41	-0.000
852.59	-0.000
852.76	-0.000
852.93	-0.000
853.10	-0.000
853.28	-0.000
853.45	-0.000
853.62	-0.000
853.79	-0.000
853.96	-0.000
854.14	-0.000
854.31	-0.000
854.48	-0.000
854.65	-0.000
854.82	-0.000
855.00	-0.000
855.17	-0.000
855.34	-0.000
855.51	-0.000
855.68	-0.000
855.86	-0.000
856.03	-0.000
856.20	-0.000
856.37	-0.000
856.54	-0.000
856.72	-0.000
856.89	-0.000
857.06	-0.000
857.23	-0.000
857.40	-0.000
857.57	-0.000
857.75	-0.000
857.92	-0.000
858.09	-0.000
858.26	-0.000
858.43	-0.000
858.60	-0.000
858.78	-0.000
858.95	-0.000
859.12	-0.000
859.29	-0.000
859.46	-0.000
859.63	-0.000
859.81	-0.000
859.98	-0.000
860.15	-0.000
860.32	-0.000
860.49	-0.000
860.66	-0.000
860.83	-0.000
861.01	-0.000
861.18	-0.000
861.35	-0.000
861.52	-0.000
861.69	-0.000
861.86	-0.000
862.03	-0.000
862.21	-0.000
862.38	-0.000
862.55	-0.000
862.72	-0.000
862.89	-0.000
863.06	-0.000
863.23	-0.000
863.40	-0.000
863.58	-0.000
863.75	-0.000
863.92	-0.000
864.09	-0.000
864.26	-0.000
864.43	-0.000
864.60	-0.000
864.77	-0.000
864.94	-0.000
865.11	-0.000
865.29	-0.000
865.46	-0.000
865.63	-0.000
865.80	-0.000
865.97	-0.000
866.14	-0.000
866.31	-0.000
866.48	-0.000
866.65	-0.000
866.82	-0.000
866.99	-0.000
867.16	-0.000
867.34	-0.000
867.51	-0.000
867.68	-0.000
867.85	-0.000
868.02	-0.000
868.19	-0.000
868.36	-0.000
868.53	-0.000
868.70	-0.000
868.87	-0.000
869.04	-0.000
869.21	-0.000
869.38	-0.000
869.55	-0.000
869.72	-0.000
869.89	-0.000
870.06	-0.000
870.24	-0.000
870.41	-0.000
870.58	-0.000
870.75	-0.000
870.92	-0.000
871.09	-0.000
871.26	-0.000
871.43	-0.000
871.60	-0.000
871.77	-0.000
871.94	-0.000
872.11	-0.000
872.28	-0.000
872.45	-0.000
872.62	-0.000
872.79	-0.000
872.96	-0.000
873.13	-0.000
873.30	-0.000
873.47	-0.000
873.64	-0.000
873.81	-0.000
873.98	-0.000
874.15	-0.000
874.32	-0.000
874.49	-0.000
874.66	-0.000
874.83	-0.000
875.00	-0.000
875.17	-0.000
875.34	-0.000
875.51	-0.000
875.68	-0.000
875.85	-0.000
876.02	-0.000
876.19	-0.000
876.36	-0.000
876.53	-0.000
876.70	-0.000
876.87	-0.000
877.04	-0.000
877.21	-0.000
877.38	-0.000
877.55	-0.000
877.72	-0.000
877.89	-0.000
878.06	-0.000
878.23	-0.000
878.39	-0.000
878.56	-0.000
878.73	-0.000
878.90	-0.000
879.07	-0.000
879.24	-0.000
879.41	-0.000
879.58	-0.000
879.75	-0.000
879.92	-0.000
880.09	-0.000
880.26	-0.000
880.43	-0.000
880.60	-0.000
880.77	-0.000
880.94	-0.000
881.11	-0.000
881.27	-0.000
881.44	-0.000
881.61	-0.000
881.78	-0.000
881.95	-0.000
882.12	-0.000
882.29	-0.000
882.46	-0.000
882.63	-0.000
882.80	-0.000
882.97	-0.000
883.14	-0.000
883.30	-0.000
883.47	-0.000
883.64	-0.000
883.81	-0.000
883.98	-0.000
884.15	-0.000
884.32	-0.000
884.49	-0.000
884.66	-0.000
884.82	-0.000
884.99	-0.000
885.16	-0.000
885.33	-0.000
885.50	-0.000
885.67	-0.000
885.84	-0.000
886.01	-0.000
886.17	-0.000
886.34	-0.000
886.51	-0.000
886.68	-0.000
886.85	-0.000
887.02	-0.000
887.19	-0.000
887.36	-0.000
887.52	-0.000
887.69	-0.000
887.86	-0.000
888.03	-0.000
888.20	-0.000
888.37	-0.000
888.54	-0.000
888.70	-0.000
888.87	-0.000
889.04	-0.000
889.21	-0.000
889.38	-0.000
889.55	-0.000
889.71	-0.000
889.88	-0.000
890.05	-0.000
890.22	-0.000
890.39	-0.000
>>>>>End Processed Spectral Data<<<<<
