SpectraSuite Data File
++++++++++++++++++++++++++++++++++++
Date: Fri Jun 19 14:11:02 CEST 2015
User: introlabs
Dark Spectrum Present: Yes
Reference Spectrum Present: Yes
Number of Sampled Component Spectra: 1
Spectrometers: USB4H08886
Integration Time (usec): 745692 (USB4H08886)
Spectra Averaged: 5 (USB4H08886)
Boxcar Smoothing: 5 (USB4H08886)
Correct for Electrical Dark: Yes (USB4H08886)
Strobe/Lamp Enabled: No (USB4H08886)
Correct for Detector Non-linearity: Yes (USB4H08886)
Correct for Stray Light: Yes (USB4H08886)
Number of Pixels in Processed Spectrum: 3648
>>>>>Begin Processed Spectral Data<<<<<
178.14	-0.000
178.36	-0.000
178.57	-0.000
178.79	-0.000
179.01	-0.000
179.22	-0.000
179.44	-0.000
179.65	-0.000
179.87	-0.000
180.08	-0.000
180.30	-0.000
180.52	-0.000
180.73	-0.000
180.95	-0.000
181.16	-0.000
181.38	-0.000
181.59	-0.000
181.81	-0.000
182.03	-0.000
182.24	-0.000
182.46	-0.000
182.67	-0.000
182.89	-0.000
183.10	-0.000
183.32	-0.000
183.54	-0.000
183.75	-0.000
183.97	-0.000
184.18	-0.000
184.40	-0.000
184.61	-0.000
184.83	-0.000
185.04	-0.000
185.26	-0.000
185.48	-0.000
185.69	-0.000
185.91	-0.000
186.12	-0.000
186.34	-0.000
186.55	-0.000
186.77	-0.000
186.98	-0.000
187.20	-0.000
187.42	-0.000
187.63	-0.000
187.85	-0.000
188.06	-0.000
188.28	-0.000
188.49	-0.000
188.71	-0.000
188.92	-0.000
189.14	-0.000
189.36	-0.000
189.57	-0.000
189.79	-0.000
190.00	-0.000
190.22	-0.000
190.43	-0.000
190.65	-0.000
190.86	-0.000
191.08	-0.000
191.29	-0.000
191.51	-0.000
191.72	-0.000
191.94	-0.000
192.16	-0.000
192.37	-0.000
192.59	-0.000
192.80	-0.000
193.02	-0.000
193.23	-0.000
193.45	-0.000
193.66	-0.000
193.88	-0.000
194.09	-0.000
194.31	-0.000
194.52	-0.000
194.74	-0.000
194.95	-0.000
195.17	-0.000
195.38	-0.000
195.60	-0.000
195.81	-0.000
196.03	-0.000
196.25	-0.000
196.46	-0.000
196.68	-0.000
196.89	-0.000
197.11	-0.000
197.32	-0.000
197.54	-0.000
197.75	-0.000
197.97	-0.000
198.18	-0.000
198.40	-0.000
198.61	-0.000
198.83	-0.000
199.04	-0.000
199.26	-0.000
199.47	-0.000
199.69	-0.000
199.90	-0.000
200.12	-0.000
200.33	-0.000
200.55	-0.000
200.76	-0.000
200.98	-0.000
201.19	-0.000
201.41	-0.000
201.62	-0.000
201.84	-0.000
202.05	-0.000
202.27	-0.000
202.48	-0.000
202.70	-0.000
202.91	-0.000
203.13	-0.000
203.34	-0.000
203.56	-0.000
203.77	-0.000
203.99	-0.000
204.20	-0.000
204.42	-0.000
204.63	-0.000
204.85	-0.000
205.06	-0.000
205.28	-0.000
205.49	-0.000
205.71	-0.000
205.92	-0.000
206.14	-0.000
206.35	-0.000
206.56	-0.000
206.78	-0.000
206.99	-0.000
207.21	-0.000
207.42	-0.000
207.64	-0.000
207.85	-0.000
208.07	-0.000
208.28	-0.000
208.50	-0.000
208.71	-0.000
208.93	-0.000
209.14	-0.000
209.36	-0.000
209.57	-0.000
209.79	-0.000
210.00	-0.000
210.22	-0.000
210.43	-0.000
210.64	-0.000
210.86	-0.000
211.07	-0.000
211.29	-0.000
211.50	-0.000
211.72	-0.000
211.93	-0.000
212.15	-0.000
212.36	-0.000
212.58	-0.000
212.79	-0.000
213.01	-0.000
213.22	-0.000
213.43	-0.000
213.65	-0.000
213.86	-0.000
214.08	-0.000
214.29	-0.000
214.51	-0.000
214.72	-0.000
214.94	-0.000
215.15	-0.000
215.36	-0.000
215.58	-0.000
215.79	-0.000
216.01	-0.000
216.22	-0.000
216.44	-0.000
216.65	-0.000
216.87	-0.000
217.08	-0.000
217.29	-0.000
217.51	-0.000
217.72	-0.000
217.94	-0.000
218.15	-0.000
218.37	-0.000
218.58	-0.000
218.80	-0.000
219.01	-0.000
219.22	-0.000
219.44	-0.000
219.65	-0.000
219.87	-0.000
220.08	-0.000
220.30	-0.000
220.51	-0.000
220.72	-0.000
220.94	-0.000
221.15	-0.000
221.37	-0.000
221.58	-0.000
221.79	-0.000
222.01	-0.000
222.22	-0.000
222.44	-0.000
222.65	-0.000
222.87	-0.000
223.08	-0.000
223.29	-0.000
223.51	-0.000
223.72	-0.000
223.94	-0.000
224.15	-0.000
224.36	-0.000
224.58	-0.000
224.79	-0.000
225.01	-0.000
225.22	-0.000
225.44	-0.000
225.65	-0.000
225.86	-0.000
226.08	-0.000
226.29	-0.000
226.51	-0.000
226.72	-0.000
226.93	-0.000
227.15	-0.000
227.36	-0.000
227.58	-0.000
227.79	-0.000
228.00	-0.000
228.22	-0.000
228.43	-0.000
228.65	-0.000
228.86	-0.000
229.07	-0.000
229.29	-0.000
229.50	-0.000
229.72	-0.000
229.93	-0.000
230.14	-0.000
230.36	-0.000
230.57	-0.000
230.78	-0.000
231.00	-0.000
231.21	-0.000
231.43	-0.000
231.64	-0.000
231.85	-0.000
232.07	-0.000
232.28	-0.000
232.50	-0.000
232.71	-0.000
232.92	-0.000
233.14	-0.000
233.35	-0.000
233.56	-0.000
233.78	-0.000
233.99	-0.000
234.21	-0.000
234.42	-0.000
234.63	-0.000
234.85	-0.000
235.06	-0.000
235.27	-0.000
235.49	-0.000
235.70	-0.000
235.91	-0.000
236.13	-0.000
236.34	-0.000
236.56	-0.000
236.77	-0.000
236.98	-0.000
237.20	-0.000
237.41	-0.000
237.62	-0.000
237.84	-0.000
238.05	-0.000
238.26	-0.000
238.48	-0.000
238.69	-0.000
238.91	-0.000
239.12	-0.000
239.33	-0.000
239.55	-0.000
239.76	-0.000
239.97	-0.000
240.19	-0.000
240.40	-0.000
240.61	-0.000
240.83	-0.000
241.04	-0.000
241.25	-0.000
241.47	-0.000
241.68	-0.000
241.89	-0.000
242.11	-0.000
242.32	-0.000
242.53	-0.000
242.75	-0.000
242.96	-0.000
243.17	-0.000
243.39	-0.000
243.60	-0.000
243.81	-0.000
244.03	-0.000
244.24	-0.000
244.45	-0.000
244.67	-0.000
244.88	-0.000
245.09	-0.000
245.31	-0.000
245.52	-0.000
245.73	-0.000
245.95	-0.000
246.16	-0.000
246.37	-0.000
246.59	-0.000
246.80	-0.000
247.01	-0.000
247.23	-0.000
247.44	-0.000
247.65	-0.000
247.87	-0.000
248.08	-0.000
248.29	-0.000
248.51	-0.000
248.72	-0.000
248.93	-0.000
249.15	-0.000
249.36	-0.000
249.57	-0.000
249.78	-0.000
250.00	-0.000
250.21	-0.000
250.42	-0.000
250.64	-0.000
250.85	-0.000
251.06	-0.000
251.28	-0.000
251.49	-0.000
251.70	-0.000
251.92	-0.000
252.13	-0.000
252.34	-0.000
252.55	-0.000
252.77	-0.000
252.98	-0.000
253.19	-0.000
253.41	-0.000
253.62	-0.000
253.83	-0.000
254.05	-0.000
254.26	-0.000
254.47	-0.000
254.68	-0.000
254.90	-0.000
255.11	-0.000
255.32	-0.000
255.54	-0.000
255.75	-0.000
255.96	-0.000
256.17	-0.000
256.39	-0.000
256.60	-0.000
256.81	-0.000
257.03	-0.000
257.24	-0.000
257.45	-0.000
257.66	-0.000
257.88	-0.000
258.09	-0.000
258.30	-0.000
258.51	-0.000
258.73	-0.000
258.94	-0.000
259.15	-0.000
259.37	-0.000
259.58	-0.000
259.79	-0.000
260.00	-0.000
260.22	-0.000
260.43	-0.000
260.64	-0.000
260.85	-0.000
261.07	-0.000
261.28	-0.000
261.49	-0.000
261.71	-0.000
261.92	-0.000
262.13	-0.000
262.34	-0.000
262.56	-0.000
262.77	-0.000
262.98	-0.000
263.19	-0.000
263.41	-0.000
263.62	-0.000
263.83	-0.000
264.04	-0.000
264.26	-0.000
264.47	-0.000
264.68	-0.000
264.89	-0.000
265.11	-0.000
265.32	-0.000
265.53	-0.000
265.74	-0.000
265.96	-0.000
266.17	-0.000
266.38	-0.000
266.59	-0.000
266.81	-0.000
267.02	-0.000
267.23	-0.000
267.44	-0.000
267.65	-0.000
267.87	-0.000
268.08	-0.000
268.29	-0.000
268.50	-0.000
268.72	-0.000
268.93	-0.000
269.14	-0.000
269.35	-0.000
269.57	-0.000
269.78	-0.000
269.99	-0.000
270.20	-0.000
270.41	-0.000
270.63	-0.000
270.84	-0.000
271.05	-0.000
271.26	-0.000
271.48	-0.000
271.69	-0.000
271.90	-0.000
272.11	-0.000
272.32	-0.000
272.54	-0.000
272.75	-0.000
272.96	-0.000
273.17	-0.000
273.39	-0.000
273.60	-0.000
273.81	-0.000
274.02	-0.000
274.23	-0.000
274.45	-0.000
274.66	-0.000
274.87	-0.000
275.08	-0.000
275.29	-0.000
275.51	-0.000
275.72	-0.000
275.93	-0.000
276.14	-0.000
276.35	-0.000
276.57	-0.000
276.78	-0.000
276.99	-0.000
277.20	-0.000
277.41	-0.000
277.63	-0.000
277.84	-0.000
278.05	-0.000
278.26	-0.000
278.47	-0.000
278.69	-0.000
278.90	-0.000
279.11	-0.000
279.32	-0.000
279.53	-0.000
279.74	-0.000
279.96	-0.000
280.17	-0.000
280.38	-0.000
280.59	-0.000
280.80	-0.000
281.02	-0.000
281.23	-0.000
281.44	-0.000
281.65	-0.000
281.86	-0.000
282.07	-0.000
282.29	-0.000
282.50	-0.000
282.71	-0.000
282.92	-0.000
283.13	-0.000
283.35	-0.000
283.56	-0.000
283.77	-0.000
283.98	-0.000
284.19	-0.000
284.40	-0.000
284.62	-0.000
284.83	-0.000
285.04	-0.000
285.25	-0.000
285.46	-0.000
285.67	-0.000
285.88	-0.000
286.10	-0.000
286.31	-0.000
286.52	-0.000
286.73	-0.000
286.94	-0.000
287.15	-0.000
287.37	-0.000
287.58	-0.000
287.79	-0.000
288.00	-0.000
288.21	-0.000
288.42	-0.000
288.63	-0.000
288.85	-0.000
289.06	-0.000
289.27	-0.000
289.48	-0.000
289.69	-0.000
289.90	-0.000
290.11	-0.000
290.33	-0.000
290.54	-0.000
290.75	-0.000
290.96	-0.000
291.17	-0.000
291.38	-0.000
291.59	-0.000
291.81	-0.000
292.02	-0.000
292.23	-0.000
292.44	-0.000
292.65	-0.000
292.86	-0.000
293.07	-0.000
293.28	-0.000
293.50	-0.000
293.71	-0.000
293.92	-0.000
294.13	-0.000
294.34	-0.000
294.55	-0.000
294.76	-0.000
294.97	-0.000
295.19	-0.000
295.40	-0.000
295.61	-0.000
295.82	-0.000
296.03	2.931
296.24	-0.000
296.45	2.013
296.66	1.708
296.87	1.704
297.09	1.764
297.30	1.926
297.51	1.616
297.72	1.578
297.93	1.647
298.14	1.617
298.35	1.578
298.56	1.559
298.77	1.657
298.99	1.638
299.20	1.629
299.41	1.602
299.62	1.570
299.83	1.568
300.04	1.513
300.25	1.512
300.46	1.543
300.67	1.521
300.88	1.473
301.10	1.472
301.31	1.540
301.52	1.488
301.73	1.445
301.94	1.446
302.15	1.457
302.36	1.415
302.57	1.357
302.78	1.368
302.99	1.407
303.20	1.433
303.41	1.354
303.63	1.333
303.84	1.338
304.05	1.334
304.26	1.278
304.47	1.286
304.68	1.291
304.89	1.280
305.10	1.244
305.31	1.232
305.52	1.265
305.73	1.259
305.94	1.221
306.15	1.216
306.37	1.240
306.58	1.246
306.79	1.216
307.00	1.237
307.21	1.274
307.42	1.268
307.63	1.234
307.84	1.201
308.05	1.236
308.26	1.240
308.47	1.217
308.68	1.210
308.89	1.214
309.10	1.211
309.31	1.175
309.52	1.166
309.73	1.180
309.95	1.177
310.16	1.154
310.37	1.140
310.58	1.156
310.79	1.153
311.00	1.150
311.21	1.151
311.42	1.155
311.63	1.147
311.84	1.129
312.05	1.126
312.26	1.148
312.47	1.159
312.68	1.138
312.89	1.125
313.10	1.133
313.31	1.107
313.52	1.106
313.73	1.108
313.94	1.111
314.15	1.095
314.36	1.074
314.57	1.067
314.78	1.055
314.99	1.049
315.21	1.037
315.42	1.040
315.63	1.054
315.84	1.036
316.05	1.023
316.26	1.029
316.47	1.048
316.68	1.045
316.89	1.026
317.10	1.046
317.31	1.050
317.52	1.050
317.73	1.029
317.94	1.027
318.15	1.065
318.36	1.062
318.57	1.046
318.78	1.036
318.99	1.069
319.20	1.065
319.41	1.034
319.62	1.037
319.83	1.049
320.04	1.047
320.25	1.033
320.46	1.002
320.67	1.005
320.88	1.001
321.09	0.988
321.30	0.974
321.51	0.988
321.72	0.986
321.93	0.972
322.14	0.966
322.35	0.991
322.56	0.993
322.77	0.981
322.98	0.993
323.19	1.003
323.40	1.010
323.61	0.988
323.82	0.984
324.03	0.990
324.24	0.987
324.45	0.975
324.66	0.956
324.87	0.954
325.08	0.954
325.29	0.935
325.50	0.930
325.71	0.933
325.92	0.942
326.13	0.929
326.34	0.929
326.55	0.937
326.76	0.935
326.97	0.925
327.18	0.920
327.39	0.946
327.60	0.948
327.80	0.945
328.01	0.944
328.22	0.944
328.43	0.948
328.64	0.936
328.85	0.938
329.06	0.940
329.27	0.940
329.48	0.937
329.69	0.916
329.90	0.926
330.11	0.920
330.32	0.912
330.53	0.907
330.74	0.906
330.95	0.904
331.16	0.890
331.37	0.899
331.58	0.897
331.79	0.896
332.00	0.889
332.21	0.882
332.42	0.886
332.63	0.879
332.83	0.875
333.04	0.878
333.25	0.890
333.46	0.888
333.67	0.874
333.88	0.879
334.09	0.889
334.30	0.886
334.51	0.877
334.72	0.873
334.93	0.875
335.14	0.874
335.35	0.867
335.56	0.864
335.77	0.872
335.98	0.870
336.18	0.863
336.39	0.856
336.60	0.860
336.81	0.858
337.02	0.857
337.23	0.862
337.44	0.864
337.65	0.865
337.86	0.854
338.07	0.850
338.28	0.855
338.49	0.852
338.70	0.845
338.91	0.852
339.11	0.859
339.32	0.856
339.53	0.844
339.74	0.841
339.95	0.837
340.16	0.836
340.37	0.827
340.58	0.827
340.79	0.831
341.00	0.830
341.21	0.819
341.41	0.820
341.62	0.821
341.83	0.823
342.04	0.819
342.25	0.830
342.46	0.834
342.67	0.833
342.88	0.825
343.09	0.824
343.30	0.831
343.50	0.834
343.71	0.825
343.92	0.824
344.13	0.828
344.34	0.828
344.55	0.812
344.76	0.811
344.97	0.817
345.18	0.817
345.38	0.814
345.59	0.809
345.80	0.809
346.01	0.807
346.22	0.803
346.43	0.797
346.64	0.805
346.85	0.805
347.06	0.797
347.26	0.797
347.47	0.800
347.68	0.797
347.89	0.792
348.10	0.787
348.31	0.793
348.52	0.792
348.73	0.790
348.93	0.786
349.14	0.790
349.35	0.788
349.56	0.782
349.77	0.778
349.98	0.783
350.19	0.781
350.39	0.776
350.60	0.772
350.81	0.787
351.02	0.786
351.23	0.781
351.44	0.782
351.65	0.785
351.86	0.783
352.06	0.782
352.27	0.782
352.48	0.784
352.69	0.783
352.90	0.778
353.11	0.765
353.31	0.772
353.52	0.769
353.73	0.762
353.94	0.763
354.15	0.769
354.36	0.769
354.57	0.761
354.77	0.763
354.98	0.762
355.19	0.761
355.40	0.761
355.61	0.766
355.82	0.771
356.02	0.770
356.23	0.763
356.44	0.765
356.65	0.768
356.86	0.769
357.07	0.763
357.27	0.766
357.48	0.770
357.69	0.765
357.90	0.751
358.11	0.748
358.32	0.751
358.52	0.754
358.73	0.744
358.94	0.747
359.15	0.752
359.36	0.752
359.56	0.747
359.77	0.744
359.98	0.752
360.19	0.752
360.40	0.748
360.61	0.749
360.81	0.748
361.02	0.748
361.23	0.740
361.44	0.737
361.65	0.738
361.85	0.738
362.06	0.735
362.27	0.737
362.48	0.737
362.69	0.739
362.89	0.733
363.10	0.734
363.31	0.739
363.52	0.742
363.73	0.738
363.93	0.739
364.14	0.742
364.35	0.743
364.56	0.734
364.77	0.736
364.97	0.738
365.18	0.738
365.39	0.733
365.60	0.730
365.81	0.731
366.01	0.731
366.22	0.727
366.43	0.726
366.64	0.728
366.84	0.733
367.05	0.729
367.26	0.729
367.47	0.731
367.68	0.731
367.88	0.729
368.09	0.726
368.30	0.729
368.51	0.729
368.71	0.728
368.92	0.732
369.13	0.730
369.34	0.729
369.55	0.728
369.75	0.728
369.96	0.735
370.17	0.735
370.38	0.731
370.58	0.730
370.79	0.735
371.00	0.733
371.21	0.725
371.41	0.730
371.62	0.733
371.83	0.729
372.04	0.727
372.24	0.720
372.45	0.721
372.66	0.721
372.87	0.719
373.07	0.716
373.28	0.717
373.49	0.720
373.70	0.711
373.90	0.710
374.11	0.719
374.32	0.719
374.53	0.718
374.73	0.718
374.94	0.721
375.15	0.721
375.36	0.719
375.56	0.726
375.77	0.727
375.98	0.727
376.19	0.725
376.39	0.718
376.60	0.722
376.81	0.722
377.02	0.719
377.22	0.718
377.43	0.719
377.64	0.718
377.84	0.711
378.05	0.715
378.26	0.720
378.47	0.720
378.67	0.717
378.88	0.714
379.09	0.715
379.30	0.716
379.50	0.713
379.71	0.715
379.92	0.718
380.12	0.717
380.33	0.709
380.54	0.705
380.75	0.712
380.95	0.711
381.16	0.709
381.37	0.710
381.57	0.711
381.78	0.711
381.99	0.711
382.20	0.711
382.40	0.713
382.61	0.713
382.82	0.710
383.02	0.704
383.23	0.707
383.44	0.707
383.64	0.705
383.85	0.708
384.06	0.712
384.27	0.709
384.47	0.707
384.68	0.707
384.89	0.714
385.09	0.714
385.30	0.713
385.51	0.712
385.71	0.715
385.92	0.716
386.13	0.714
386.33	0.716
386.54	0.717
386.75	0.716
386.95	0.712
387.16	0.708
387.37	0.710
387.58	0.709
387.78	0.707
387.99	0.705
388.20	0.707
388.40	0.705
388.61	0.700
388.82	0.703
389.02	0.706
389.23	0.706
389.44	0.704
389.64	0.704
389.85	0.716
390.06	0.716
390.26	0.717
390.47	0.716
390.68	0.719
390.88	0.717
391.09	0.712
391.30	0.712
391.50	0.712
391.71	0.712
391.92	0.709
392.12	0.701
392.33	0.701
392.53	0.700
392.74	0.701
392.95	0.700
393.15	0.702
393.36	0.704
393.57	0.702
393.77	0.705
393.98	0.707
394.19	0.707
394.39	0.706
394.60	0.708
394.81	0.710
395.01	0.708
395.22	0.706
395.43	0.708
395.63	0.712
395.84	0.713
396.04	0.709
396.25	0.710
396.46	0.713
396.66	0.711
396.87	0.708
397.08	0.706
397.28	0.708
397.49	0.709
397.69	0.705
397.90	0.701
398.11	0.702
398.31	0.703
398.52	0.699
398.73	0.700
398.93	0.699
399.14	0.698
399.34	0.697
399.55	0.698
399.76	0.698
399.96	0.699
400.17	0.697
400.37	0.696
400.58	0.703
400.79	0.704
400.99	0.702
401.20	0.708
401.41	0.710
401.61	0.711
401.82	0.715
402.02	0.715
402.23	0.716
402.44	0.716
402.64	0.716
402.85	0.711
403.05	0.710
403.26	0.709
403.47	0.703
403.67	0.702
403.88	0.702
404.08	0.696
404.29	0.694
404.50	0.694
404.70	0.694
404.91	0.693
405.11	0.690
405.32	0.690
405.52	0.690
405.73	0.690
405.94	0.688
406.14	0.690
406.35	0.692
406.55	0.692
406.76	0.690
406.97	0.691
407.17	0.693
407.38	0.692
407.58	0.690
407.79	0.693
407.99	0.696
408.20	0.697
408.41	0.693
408.61	0.691
408.82	0.693
409.02	0.692
409.23	0.690
409.43	0.689
409.64	0.690
409.84	0.690
410.05	0.686
410.26	0.684
410.46	0.684
410.67	0.683
410.87	0.684
411.08	0.686
411.28	0.687
411.49	0.689
411.69	0.686
411.90	0.688
412.11	0.689
412.31	0.691
412.52	0.690
412.72	0.691
412.93	0.691
413.13	0.690
413.34	0.686
413.54	0.688
413.75	0.690
413.95	0.690
414.16	0.687
414.37	0.690
414.57	0.690
414.78	0.693
414.98	0.690
415.19	0.692
415.39	0.690
415.60	0.692
415.80	0.691
416.01	0.689
416.21	0.691
416.42	0.691
416.62	0.686
416.83	0.685
417.03	0.685
417.24	0.685
417.44	0.682
417.65	0.682
417.86	0.682
418.06	0.680
418.27	0.678
418.47	0.680
418.68	0.681
418.88	0.681
419.09	0.679
419.29	0.680
419.50	0.681
419.70	0.680
419.91	0.678
420.11	0.676
420.32	0.679
420.52	0.679
420.73	0.678
420.93	0.679
421.14	0.681
421.34	0.679
421.55	0.676
421.75	0.676
421.96	0.678
422.16	0.678
422.37	0.677
422.57	0.675
422.78	0.676
422.98	0.672
423.19	0.670
423.39	0.669
423.60	0.673
423.80	0.673
424.01	0.672
424.21	0.674
424.42	0.675
424.62	0.675
424.83	0.674
425.03	0.674
425.23	0.677
425.44	0.677
425.64	0.677
425.85	0.676
426.05	0.677
426.26	0.677
426.46	0.673
426.67	0.672
426.87	0.677
427.08	0.677
427.28	0.675
427.49	0.676
427.69	0.676
427.90	0.675
428.10	0.672
428.31	0.672
428.51	0.674
428.71	0.674
428.92	0.675
429.12	0.672
429.33	0.673
429.53	0.677
429.74	0.681
429.94	0.681
430.15	0.681
430.35	0.681
430.56	0.678
430.76	0.678
430.96	0.679
431.17	0.676
431.37	0.673
431.58	0.671
431.78	0.668
431.99	0.660
432.19	0.662
432.40	0.664
432.60	0.665
432.80	0.668
433.01	0.665
433.21	0.665
433.42	0.667
433.62	0.668
433.83	0.668
434.03	0.670
434.23	0.674
434.44	0.672
434.64	0.670
434.85	0.674
435.05	0.675
435.26	0.675
435.46	0.673
435.66	0.673
435.87	0.673
436.07	0.673
436.28	0.669
436.48	0.666
436.69	0.666
436.89	0.666
437.09	0.661
437.30	0.660
437.50	0.660
437.71	0.672
437.91	0.670
438.11	0.672
438.32	0.676
438.52	0.676
438.73	0.675
438.93	0.673
439.13	0.673
439.34	0.677
439.54	0.674
439.75	0.675
439.95	0.665
440.15	0.669
440.36	0.668
440.56	0.666
440.77	0.667
440.97	0.667
441.17	0.666
441.38	0.667
441.58	0.664
441.79	0.664
441.99	0.661
442.19	0.660
442.40	0.658
442.60	0.658
442.81	0.655
443.01	0.656
443.21	0.656
443.42	0.655
443.62	0.654
443.82	0.654
444.03	0.656
444.23	0.657
444.44	0.657
444.64	0.656
444.84	0.657
445.05	0.657
445.25	0.654
445.45	0.654
445.66	0.657
445.86	0.656
446.06	0.657
446.27	0.656
446.47	0.659
446.68	0.657
446.88	0.655
447.08	0.654
447.29	0.656
447.49	0.656
447.69	0.656
447.90	0.655
448.10	0.658
448.30	0.656
448.51	0.657
448.71	0.654
448.91	0.657
449.12	0.657
449.32	0.658
449.52	0.657
449.73	0.661
449.93	0.660
450.14	0.660
450.34	0.659
450.54	0.662
450.75	0.660
450.95	0.659
451.15	0.658
451.36	0.661
451.56	0.658
451.76	0.657
451.97	0.654
452.17	0.655
452.37	0.653
452.58	0.650
452.78	0.649
452.98	0.651
453.19	0.651
453.39	0.651
453.59	0.650
453.79	0.650
454.00	0.650
454.20	0.649
454.40	0.650
454.61	0.652
454.81	0.652
455.01	0.651
455.22	0.652
455.42	0.654
455.62	0.651
455.83	0.651
456.03	0.654
456.23	0.656
456.44	0.656
456.64	0.655
456.84	0.654
457.04	0.655
457.25	0.654
457.45	0.651
457.65	0.650
457.86	0.651
458.06	0.650
458.26	0.646
458.47	0.645
458.67	0.646
458.87	0.646
459.07	0.645
459.28	0.647
459.48	0.649
459.68	0.649
459.89	0.648
460.09	0.647
460.29	0.647
460.49	0.648
460.70	0.647
460.90	0.647
461.10	0.648
461.31	0.648
461.51	0.645
461.71	0.646
461.91	0.648
462.12	0.648
462.32	0.647
462.52	0.648
462.72	0.651
462.93	0.651
463.13	0.650
463.33	0.650
463.53	0.652
463.74	0.651
463.94	0.647
464.14	0.647
464.35	0.648
464.55	0.648
464.75	0.647
464.95	0.644
465.16	0.646
465.36	0.645
465.56	0.644
465.76	0.644
465.97	0.644
466.17	0.645
466.37	0.643
466.57	0.644
466.78	0.645
466.98	0.645
467.18	0.643
467.38	0.641
467.59	0.643
467.79	0.644
467.99	0.643
468.19	0.645
468.39	0.648
468.60	0.648
468.80	0.646
469.00	0.648
469.20	0.648
469.41	0.649
469.61	0.648
469.81	0.648
470.01	0.648
470.22	0.649
470.42	0.647
470.62	0.644
470.82	0.646
471.02	0.645
471.23	0.642
471.43	0.643
471.63	0.645
471.83	0.645
472.04	0.643
472.24	0.642
472.44	0.647
472.64	0.647
472.84	0.644
473.05	0.644
473.25	0.646
473.45	0.645
473.65	0.644
473.85	0.645
474.06	0.647
474.26	0.647
474.46	0.648
474.66	0.645
474.86	0.645
475.07	0.646
475.27	0.644
475.47	0.642
475.67	0.643
475.87	0.645
476.08	0.641
476.28	0.643
476.48	0.644
476.68	0.642
476.88	0.640
477.09	0.642
477.29	0.644
477.49	0.644
477.69	0.643
477.89	0.642
478.09	0.642
478.30	0.644
478.50	0.641
478.70	0.640
478.90	0.641
479.10	0.643
479.31	0.643
479.51	0.641
479.71	0.642
479.91	0.642
480.11	0.641
480.31	0.642
480.52	0.641
480.72	0.641
480.92	0.640
481.12	0.639
481.32	0.637
481.52	0.635
481.72	0.635
481.93	0.638
482.13	0.639
482.33	0.639
482.53	0.637
482.73	0.637
482.93	0.638
483.14	0.638
483.34	0.637
483.54	0.638
483.74	0.636
483.94	0.636
484.14	0.632
484.34	0.632
484.55	0.632
484.75	0.631
484.95	0.630
485.15	0.629
485.35	0.630
485.55	0.629
485.75	0.627
485.96	0.628
486.16	0.630
486.36	0.629
486.56	0.627
486.76	0.627
486.96	0.628
487.16	0.627
487.36	0.625
487.57	0.625
487.77	0.626
487.97	0.627
488.17	0.625
488.37	0.624
488.57	0.625
488.77	0.625
488.97	0.623
489.18	0.623
489.38	0.625
489.58	0.626
489.78	0.626
489.98	0.625
490.18	0.625
490.38	0.625
490.58	0.624
490.78	0.625
490.98	0.627
491.19	0.627
491.39	0.627
491.59	0.625
491.79	0.629
491.99	0.629
492.19	0.628
492.39	0.631
492.59	0.631
492.79	0.634
492.99	0.634
493.20	0.634
493.40	0.634
493.60	0.636
493.80	0.634
494.00	0.631
494.20	0.632
494.40	0.632
494.60	0.629
494.80	0.634
495.00	0.633
495.20	0.631
495.40	0.629
495.61	0.631
495.81	0.631
496.01	0.634
496.21	0.635
496.41	0.634
496.61	0.635
496.81	0.633
497.01	0.629
497.21	0.628
497.41	0.629
497.61	0.629
497.81	0.626
498.01	0.626
498.21	0.625
498.41	0.623
498.61	0.623
498.82	0.624
499.02	0.627
499.22	0.627
499.42	0.626
499.62	0.627
499.82	0.628
500.02	0.629
500.22	0.628
500.42	0.630
500.62	0.630
500.82	0.631
501.02	0.629
501.22	0.629
501.42	0.629
501.62	0.631
501.82	0.630
502.02	0.630
502.22	0.630
502.42	0.632
502.62	0.629
502.82	0.629
503.02	0.630
503.22	0.630
503.42	0.628
503.63	0.628
503.83	0.626
504.03	0.625
504.23	0.623
504.43	0.623
504.63	0.624
504.83	0.624
505.03	0.622
505.23	0.624
505.43	0.625
505.63	0.626
505.83	0.626
506.03	0.627
506.23	0.629
506.43	0.630
506.63	0.629
506.83	0.628
507.03	0.630
507.23	0.631
507.43	0.628
507.63	0.628
507.83	0.628
508.03	0.628
508.23	0.628
508.43	0.627
508.63	0.629
508.83	0.629
509.03	0.630
509.23	0.629
509.43	0.630
509.63	0.630
509.83	0.629
510.03	0.631
510.23	0.633
510.43	0.633
510.63	0.633
510.83	0.633
511.03	0.634
511.23	0.632
511.43	0.632
511.63	0.633
511.83	0.636
512.03	0.636
512.22	0.633
512.42	0.632
512.62	0.633
512.82	0.633
513.02	0.633
513.22	0.632
513.42	0.634
513.62	0.637
513.82	0.635
514.02	0.634
514.22	0.636
514.42	0.636
514.62	0.635
514.82	0.635
515.02	0.637
515.22	0.641
515.42	0.640
515.62	0.642
515.82	0.641
516.02	0.642
516.22	0.642
516.42	0.643
516.62	0.645
516.82	0.647
517.01	0.645
517.21	0.644
517.41	0.648
517.61	0.648
517.81	0.644
518.01	0.644
518.21	0.644
518.41	0.642
518.61	0.641
518.81	0.641
519.01	0.641
519.21	0.641
519.41	0.640
519.61	0.634
519.81	0.636
520.00	0.637
520.20	0.637
520.40	0.640
520.60	0.641
520.80	0.640
521.00	0.641
521.20	0.642
521.40	0.647
521.60	0.647
521.80	0.646
522.00	0.646
522.20	0.649
522.39	0.648
522.59	0.645
522.79	0.646
522.99	0.649
523.19	0.647
523.39	0.644
523.59	0.643
523.79	0.646
523.99	0.648
524.19	0.647
524.38	0.645
524.58	0.647
524.78	0.647
524.98	0.646
525.18	0.648
525.38	0.649
525.58	0.649
525.78	0.647
525.98	0.645
526.18	0.646
526.37	0.646
526.57	0.648
526.77	0.648
526.97	0.649
527.17	0.649
527.37	0.645
527.57	0.648
527.77	0.649
527.96	0.650
528.16	0.649
528.36	0.649
528.56	0.651
528.76	0.648
528.96	0.648
529.16	0.648
529.36	0.651
529.55	0.651
529.75	0.648
529.95	0.648
530.15	0.649
530.35	0.652
530.55	0.649
530.75	0.649
530.94	0.651
531.14	0.651
531.34	0.649
531.54	0.647
531.74	0.651
531.94	0.654
532.13	0.653
532.33	0.655
532.53	0.653
532.73	0.653
532.93	0.651
533.13	0.652
533.33	0.652
533.52	0.653
533.72	0.656
533.92	0.654
534.12	0.652
534.32	0.652
534.52	0.650
534.71	0.652
534.91	0.655
535.11	0.657
535.31	0.655
535.51	0.657
535.71	0.659
535.90	0.656
536.10	0.657
536.30	0.659
536.50	0.660
536.70	0.660
536.89	0.658
537.09	0.657
537.29	0.659
537.49	0.660
537.69	0.658
537.89	0.658
538.08	0.658
538.28	0.657
538.48	0.657
538.68	0.659
538.88	0.660
539.07	0.660
539.27	0.658
539.47	0.657
539.67	0.658
539.87	0.659
540.06	0.657
540.26	0.658
540.46	0.660
540.66	0.657
540.86	0.655
541.05	0.654
541.25	0.656
541.45	0.656
541.65	0.655
541.84	0.657
542.04	0.657
542.24	0.658
542.44	0.657
542.64	0.659
542.83	0.662
543.03	0.661
543.23	0.660
543.43	0.661
543.62	0.662
543.82	0.662
544.02	0.660
544.22	0.660
544.42	0.663
544.61	0.663
544.81	0.659
545.01	0.658
545.21	0.660
545.40	0.661
545.60	0.658
545.80	0.662
546.00	0.662
546.19	0.662
546.39	0.660
546.59	0.658
546.79	0.659
546.98	0.660
547.18	0.659
547.38	0.660
547.58	0.663
547.77	0.664
547.97	0.660
548.17	0.662
548.37	0.662
548.56	0.662
548.76	0.662
548.96	0.663
549.16	0.666
549.35	0.666
549.55	0.663
549.75	0.663
549.95	0.666
550.14	0.666
550.34	0.664
550.54	0.668
550.73	0.672
550.93	0.673
551.13	0.670
551.33	0.669
551.52	0.669
551.72	0.670
551.92	0.668
552.12	0.669
552.31	0.669
552.51	0.670
552.71	0.664
552.90	0.664
553.10	0.666
553.30	0.666
553.50	0.665
553.69	0.667
553.89	0.668
554.09	0.667
554.28	0.664
554.48	0.666
554.68	0.668
554.87	0.668
555.07	0.665
555.27	0.664
555.47	0.666
555.66	0.667
555.86	0.665
556.06	0.667
556.25	0.669
556.45	0.676
556.65	0.674
556.84	0.677
557.04	0.681
557.24	0.682
557.43	0.682
557.63	0.685
557.83	0.686
558.02	0.687
558.22	0.690
558.42	0.691
558.61	0.684
558.81	0.685
559.01	0.681
559.21	0.681
559.40	0.682
559.60	0.682
559.80	0.678
559.99	0.679
560.19	0.681
560.39	0.676
560.58	0.673
560.78	0.673
560.97	0.677
561.17	0.676
561.37	0.673
561.56	0.674
561.76	0.675
561.96	0.675
562.15	0.673
562.35	0.676
562.55	0.677
562.74	0.677
562.94	0.676
563.14	0.674
563.33	0.675
563.53	0.675
563.73	0.673
563.92	0.675
564.12	0.678
564.31	0.679
564.51	0.676
564.71	0.678
564.90	0.681
565.10	0.682
565.30	0.684
565.49	0.684
565.69	0.687
565.89	0.687
566.08	0.684
566.28	0.685
566.47	0.687
566.67	0.685
566.87	0.683
567.06	0.684
567.26	0.691
567.46	0.687
567.65	0.686
567.85	0.687
568.04	0.691
568.24	0.690
568.44	0.687
568.63	0.685
568.83	0.687
569.02	0.685
569.22	0.681
569.42	0.677
569.61	0.680
569.81	0.679
570.00	0.677
570.20	0.678
570.40	0.679
570.59	0.679
570.79	0.677
570.98	0.675
571.18	0.677
571.38	0.677
571.57	0.674
571.77	0.672
571.96	0.676
572.16	0.673
572.35	0.667
572.55	0.668
572.75	0.666
572.94	0.667
573.14	0.665
573.33	0.664
573.53	0.665
573.73	0.664
573.92	0.661
574.12	0.659
574.31	0.662
574.51	0.663
574.70	0.660
574.90	0.662
575.09	0.664
575.29	0.665
575.49	0.662
575.68	0.663
575.88	0.665
576.07	0.666
576.27	0.664
576.46	0.663
576.66	0.662
576.86	0.661
577.05	0.659
577.25	0.657
577.44	0.659
577.64	0.659
577.83	0.656
578.03	0.657
578.22	0.657
578.42	0.656
578.61	0.654
578.81	0.655
579.00	0.656
579.20	0.656
579.40	0.655
579.59	0.654
579.79	0.654
579.98	0.654
580.18	0.654
580.37	0.654
580.57	0.656
580.76	0.661
580.96	0.659
581.15	0.660
581.35	0.662
581.54	0.662
581.74	0.661
581.93	0.663
582.13	0.664
582.32	0.661
582.52	0.659
582.71	0.658
582.91	0.655
583.10	0.655
583.30	0.654
583.49	0.652
583.69	0.656
583.88	0.657
584.08	0.656
584.27	0.658
584.47	0.661
584.66	0.662
584.86	0.661
585.05	0.663
585.25	0.665
585.44	0.665
585.64	0.664
585.83	0.660
586.03	0.661
586.22	0.660
586.42	0.656
586.61	0.658
586.81	0.660
587.00	0.660
587.20	0.657
587.39	0.658
587.59	0.660
587.78	0.660
587.98	0.661
588.17	0.662
588.37	0.664
588.56	0.666
588.76	0.662
588.95	0.661
589.15	0.665
589.34	0.668
589.54	0.667
589.73	0.667
589.92	0.670
590.12	0.670
590.31	0.668
590.51	0.673
590.70	0.675
590.90	0.675
591.09	0.674
591.29	0.672
591.48	0.672
591.68	0.673
591.87	0.671
592.06	0.671
592.26	0.673
592.45	0.673
592.65	0.666
592.84	0.666
593.04	0.669
593.23	0.670
593.43	0.668
593.62	0.667
593.81	0.668
594.01	0.668
594.20	0.665
594.40	0.664
594.59	0.666
594.79	0.667
594.98	0.665
595.17	0.665
595.37	0.665
595.56	0.667
595.76	0.666
595.95	0.667
596.14	0.670
596.34	0.672
596.53	0.671
596.73	0.672
596.92	0.673
597.12	0.676
597.31	0.675
597.50	0.675
597.70	0.676
597.89	0.676
598.09	0.672
598.28	0.674
598.47	0.676
598.67	0.674
598.86	0.671
599.06	0.672
599.25	0.673
599.44	0.671
599.64	0.668
599.83	0.666
600.03	0.669
600.22	0.671
600.41	0.670
600.61	0.668
600.80	0.670
601.00	0.670
601.19	0.666
601.38	0.665
601.58	0.668
601.77	0.668
601.96	0.670
602.16	0.670
602.35	0.678
602.55	0.677
602.74	0.677
602.93	0.679
603.13	0.684
603.32	0.685
603.51	0.685
603.71	0.687
603.90	0.689
604.09	0.690
604.29	0.687
604.48	0.681
604.68	0.682
604.87	0.681
605.06	0.678
605.26	0.674
605.45	0.675
605.64	0.674
605.84	0.670
606.03	0.668
606.22	0.668
606.42	0.667
606.61	0.663
606.80	0.663
607.00	0.664
607.19	0.665
607.38	0.663
607.58	0.665
607.77	0.668
607.96	0.668
608.16	0.666
608.35	0.671
608.54	0.675
608.74	0.678
608.93	0.683
609.12	0.686
609.32	0.688
609.51	0.692
609.70	0.690
609.90	0.692
610.09	0.696
610.28	0.701
610.48	0.694
610.67	0.695
610.86	0.696
611.06	0.690
611.25	0.688
611.44	0.689
611.64	0.689
611.83	0.692
612.02	0.688
612.21	0.688
612.41	0.687
612.60	0.686
612.79	0.682
612.99	0.682
613.18	0.685
613.37	0.682
613.57	0.680
613.76	0.681
613.95	0.678
614.14	0.678
614.34	0.675
614.53	0.675
614.72	0.679
614.92	0.679
615.11	0.676
615.30	0.672
615.49	0.674
615.69	0.676
615.88	0.673
616.07	0.674
616.26	0.677
616.46	0.678
616.65	0.675
616.84	0.673
617.04	0.674
617.23	0.678
617.42	0.679
617.61	0.682
617.81	0.683
618.00	0.685
618.19	0.682
618.38	0.685
618.58	0.689
618.77	0.691
618.96	0.690
619.15	0.692
619.35	0.693
619.54	0.694
619.73	0.690
619.92	0.691
620.12	0.696
620.31	0.696
620.50	0.691
620.69	0.691
620.89	0.694
621.08	0.694
621.27	0.694
621.46	0.693
621.66	0.697
621.85	0.697
622.04	0.693
622.23	0.694
622.43	0.695
622.62	0.694
622.81	0.693
623.00	0.693
623.19	0.697
623.39	0.695
623.58	0.692
623.77	0.690
623.96	0.694
624.16	0.694
624.35	0.689
624.54	0.692
624.73	0.697
624.92	0.694
625.12	0.692
625.31	0.693
625.50	0.696
625.69	0.697
625.88	0.694
626.08	0.693
626.27	0.694
626.46	0.694
626.65	0.691
626.84	0.691
627.04	0.696
627.23	0.696
627.42	0.691
627.61	0.693
627.80	0.696
628.00	0.696
628.19	0.694
628.38	0.697
628.57	0.701
628.76	0.701
628.96	0.698
629.15	0.699
629.34	0.702
629.53	0.702
629.72	0.697
629.91	0.697
630.11	0.702
630.30	0.703
630.49	0.706
630.68	0.706
630.87	0.710
631.06	0.711
631.26	0.706
631.45	0.707
631.64	0.715
631.83	0.717
632.02	0.714
632.21	0.714
632.41	0.720
632.60	0.714
632.79	0.712
632.98	0.713
633.17	0.714
633.36	0.716
633.55	0.712
633.75	0.708
633.94	0.709
634.13	0.711
634.32	0.707
634.51	0.701
634.70	0.704
634.89	0.704
635.09	0.700
635.28	0.700
635.47	0.702
635.66	0.704
635.85	0.701
636.04	0.702
636.23	0.706
636.43	0.708
636.62	0.707
636.81	0.705
637.00	0.709
637.19	0.712
637.38	0.709
637.57	0.709
637.76	0.711
637.95	0.712
638.15	0.708
638.34	0.705
638.53	0.708
638.72	0.710
638.91	0.707
639.10	0.704
639.29	0.705
639.48	0.706
639.67	0.706
639.87	0.704
640.06	0.710
640.25	0.710
640.44	0.711
640.63	0.711
640.82	0.713
641.01	0.713
641.20	0.711
641.39	0.712
641.58	0.715
641.78	0.713
641.97	0.709
642.16	0.723
642.35	0.724
642.54	0.723
642.73	0.717
642.92	0.715
643.11	0.720
643.30	0.720
643.49	0.714
643.68	0.716
643.87	0.718
644.06	0.719
644.25	0.698
644.45	0.699
644.64	0.701
644.83	0.702
645.02	0.698
645.21	0.697
645.40	0.699
645.59	0.699
645.78	0.693
645.97	0.695
646.16	0.696
646.35	0.696
646.54	0.695
646.73	0.696
646.92	0.698
647.11	0.698
647.30	0.694
647.49	0.696
647.68	0.696
647.88	0.694
648.07	0.688
648.26	0.691
648.45	0.693
648.64	0.689
648.83	0.687
649.02	0.689
649.21	0.698
649.40	0.697
649.59	0.692
649.78	0.692
649.97	0.707
650.16	0.706
650.35	0.700
650.54	0.702
650.73	0.711
650.92	0.708
651.11	0.701
651.30	0.700
651.49	0.705
651.68	0.705
651.87	0.702
652.06	0.691
652.25	0.695
652.44	0.698
652.63	0.695
652.82	0.694
653.01	0.694
653.20	0.692
653.39	0.680
653.58	0.678
653.77	0.677
653.96	0.673
654.15	0.665
654.34	0.663
654.53	0.659
654.72	0.653
654.91	0.644
655.10	0.641
655.29	0.639
655.48	0.637
655.67	0.632
655.86	0.630
656.05	0.628
656.24	0.628
656.43	0.623
656.62	0.623
656.81	0.623
657.00	0.621
657.19	0.618
657.38	0.619
657.57	0.618
657.76	0.620
657.95	0.618
658.14	0.622
658.33	0.624
658.51	0.629
658.70	0.629
658.89	0.631
659.08	0.640
659.27	0.647
659.46	0.647
659.65	0.654
659.84	0.657
660.03	0.660
660.22	0.660
660.41	0.664
660.60	0.664
660.79	0.666
660.98	0.672
661.17	0.671
661.36	0.670
661.55	0.670
661.74	0.667
661.92	0.670
662.11	0.673
662.30	0.672
662.49	0.666
662.68	0.665
662.87	0.668
663.06	0.662
663.25	0.663
663.44	0.663
663.63	0.664
663.82	0.663
664.01	0.658
664.20	0.656
664.38	0.658
664.57	0.658
664.76	0.656
664.95	0.656
665.14	0.660
665.33	0.656
665.52	0.664
665.71	0.668
665.90	0.667
666.09	0.669
666.28	0.666
666.46	0.666
666.65	0.668
666.84	0.666
667.03	0.661
667.22	0.658
667.41	0.661
667.60	0.650
667.79	0.642
667.98	0.644
668.16	0.645
668.35	0.645
668.54	0.639
668.73	0.641
668.92	0.642
669.11	0.641
669.30	0.636
669.49	0.632
669.67	0.635
669.86	0.637
670.05	0.635
670.24	0.632
670.43	0.630
670.62	0.629
670.81	0.623
671.00	0.624
671.18	0.625
671.37	0.624
671.56	0.621
671.75	0.620
671.94	0.618
672.13	0.616
672.32	0.612
672.50	0.612
672.69	0.612
672.88	0.613
673.07	0.608
673.26	0.610
673.45	0.612
673.63	0.612
673.82	0.608
674.01	0.610
674.20	0.610
674.39	0.609
674.58	0.608
674.76	0.608
674.95	0.607
675.14	0.607
675.33	0.602
675.52	0.601
675.71	0.601
675.89	0.601
676.08	0.596
676.27	0.596
676.46	0.597
676.65	0.597
676.84	0.596
677.02	0.597
677.21	0.599
677.40	0.598
677.59	0.595
677.78	0.596
677.96	0.598
678.15	0.597
678.34	0.595
678.53	0.596
678.72	0.596
678.90	0.593
679.09	0.589
679.28	0.586
679.47	0.586
679.66	0.586
679.84	0.582
680.03	0.579
680.22	0.579
680.41	0.580
680.60	0.576
680.78	0.576
680.97	0.578
681.16	0.578
681.35	0.577
681.53	0.576
681.72	0.578
681.91	0.580
682.10	0.578
682.29	0.581
682.47	0.578
682.66	0.578
682.85	0.576
683.04	0.574
683.22	0.574
683.41	0.576
683.60	0.575
683.79	0.575
683.97	0.575
684.16	0.574
684.35	0.570
684.54	0.572
684.72	0.572
684.91	0.573
685.10	0.571
685.29	0.573
685.47	0.569
685.66	0.568
685.85	0.565
686.04	0.564
686.22	0.567
686.41	0.569
686.60	0.566
686.79	0.569
686.97	0.570
687.16	0.570
687.35	0.567
687.54	0.571
687.72	0.575
687.91	0.575
688.10	0.576
688.29	0.576
688.47	0.575
688.66	0.575
688.85	0.571
689.03	0.569
689.22	0.573
689.41	0.573
689.60	0.569
689.78	0.566
689.97	0.567
690.16	0.565
690.34	0.561
690.53	0.560
690.72	0.560
690.91	0.558
691.09	0.556
691.28	0.550
691.47	0.548
691.65	0.547
691.84	0.544
692.03	0.543
692.21	0.540
692.40	0.540
692.59	0.538
692.77	0.537
692.96	0.538
693.15	0.539
693.34	0.537
693.52	0.536
693.71	0.537
693.90	0.539
694.08	0.540
694.27	0.541
694.46	0.550
694.64	0.551
694.83	0.550
695.02	0.550
695.20	0.550
695.39	0.550
695.58	0.549
695.76	0.550
695.95	0.550
696.14	0.549
696.32	0.546
696.51	0.537
696.70	0.537
696.88	0.538
697.07	0.536
697.26	0.538
697.44	0.539
697.63	0.538
697.81	0.536
698.00	0.535
698.19	0.535
698.37	0.535
698.56	0.534
698.75	0.534
698.93	0.534
699.12	0.533
699.31	0.532
699.49	0.532
699.68	0.533
699.87	0.535
700.05	0.535
700.24	0.534
700.42	0.535
700.61	0.535
700.80	0.533
700.98	0.533
701.17	0.535
701.36	0.533
701.54	0.532
701.73	0.533
701.91	0.530
702.10	0.530
702.29	0.528
702.47	0.527
702.66	0.528
702.84	0.530
703.03	0.528
703.22	0.530
703.40	0.530
703.59	0.531
703.77	0.530
703.96	0.531
704.15	0.531
704.33	0.532
704.52	0.531
704.70	0.530
704.89	0.529
705.08	0.528
705.26	0.524
705.45	0.523
705.63	0.523
705.82	0.520
706.00	0.518
706.19	0.518
706.38	0.518
706.56	0.518
706.75	0.516
706.93	0.515
707.12	0.517
707.30	0.517
707.49	0.515
707.68	0.513
707.86	0.513
708.05	0.513
708.23	0.510
708.42	0.511
708.60	0.513
708.79	0.513
708.98	0.511
709.16	0.510
709.35	0.513
709.53	0.517
709.72	0.516
709.90	0.517
710.09	0.520
710.27	0.522
710.46	0.525
710.64	0.523
710.83	0.525
711.02	0.526
711.20	0.525
711.39	0.523
711.57	0.520
711.76	0.521
711.94	0.519
712.13	0.520
712.31	0.520
712.50	0.516
712.68	0.513
712.87	0.515
713.05	0.515
713.24	0.515
713.42	0.514
713.61	0.515
713.79	0.516
713.98	0.517
714.16	0.517
714.35	0.516
714.54	0.518
714.72	0.518
714.91	0.515
715.09	0.522
715.28	0.525
715.46	0.525
715.65	0.523
715.83	0.522
716.02	0.525
716.20	0.521
716.39	0.520
716.57	0.521
716.76	0.524
716.94	0.524
717.12	0.516
717.31	0.517
717.49	0.520
717.68	0.522
717.86	0.522
718.05	0.524
718.23	0.526
718.42	0.529
718.60	0.530
718.79	0.537
718.97	0.540
719.16	0.540
719.34	0.538
719.53	0.538
719.71	0.538
719.90	0.539
720.08	0.536
720.27	0.536
720.45	0.536
720.63	0.534
720.82	0.528
721.00	0.531
721.19	0.534
721.37	0.533
721.56	0.532
721.74	0.535
721.93	0.544
722.11	0.550
722.30	0.550
722.48	0.554
722.66	0.556
722.85	0.556
723.03	0.555
723.22	0.553
723.40	0.556
723.59	0.557
723.77	0.560
723.95	0.553
724.14	0.555
724.32	0.556
724.51	0.555
724.69	0.555
724.88	0.555
725.06	0.554
725.24	0.556
725.43	0.558
725.61	0.561
725.80	0.556
725.98	0.553
726.16	0.549
726.35	0.556
726.53	0.555
726.72	0.554
726.90	0.565
727.09	0.565
727.27	0.571
727.45	0.567
727.64	0.576
727.82	0.585
728.01	0.590
728.19	0.587
728.37	0.591
728.56	0.596
728.74	0.603
728.92	0.590
729.11	0.591
729.29	0.590
729.48	0.592
729.66	0.582
729.84	0.581
730.03	0.585
730.21	0.587
730.40	0.577
730.58	0.578
730.76	0.578
730.95	0.581
731.13	0.582
731.31	0.594
731.50	0.602
731.68	0.605
731.86	0.603
732.05	0.617
732.23	0.621
732.42	0.624
732.60	0.627
732.78	0.632
732.97	0.651
733.15	0.656
733.33	0.644
733.52	0.652
733.70	0.662
733.88	0.669
734.07	0.655
734.25	0.679
734.43	0.688
734.62	0.691
734.80	0.686
734.98	0.675
735.17	0.683
735.35	0.690
735.53	0.678
735.72	0.682
735.90	0.707
736.08	0.725
736.27	0.701
736.45	0.711
736.63	0.721
736.82	0.730
737.00	0.730
737.18	0.740
737.37	0.769
737.55	0.792
737.73	0.783
737.92	0.784
738.10	0.782
738.28	0.801
738.46	0.787
738.65	0.802
738.83	0.824
739.01	0.875
739.20	0.864
739.38	0.848
739.56	0.841
739.75	0.845
739.93	0.806
740.11	0.829
740.29	0.827
740.48	0.832
740.66	0.809
740.84	0.802
741.03	0.772
741.21	0.782
741.39	0.761
741.57	0.772
741.76	0.790
741.94	0.801
742.12	0.763
742.31	0.773
742.49	0.791
742.67	0.813
742.85	0.825
743.04	0.826
743.22	0.838
743.40	0.889
743.58	0.872
743.77	0.888
743.95	0.919
744.13	0.969
744.31	0.944
744.50	0.937
744.68	0.937
744.86	0.913
745.04	0.925
745.23	0.983
745.41	0.970
745.59	0.977
745.77	0.942
745.96	0.930
746.14	0.941
746.32	0.942
746.50	0.932
746.69	0.918
746.87	0.935
747.05	0.919
747.23	0.849
747.42	0.832
747.60	0.853
747.78	0.856
747.96	0.880
748.14	0.838
748.33	0.866
748.51	0.861
748.69	0.851
748.87	0.874
749.06	0.875
749.24	0.874
749.42	0.861
749.60	0.845
749.78	0.852
749.97	0.813
750.15	0.806
750.33	0.803
750.51	0.831
750.69	0.839
750.88	0.836
751.06	0.847
751.24	0.873
751.42	0.866
751.60	0.856
751.79	0.924
751.97	0.969
752.15	0.969
752.33	0.939
752.51	0.996
752.69	1.005
752.88	0.974
753.06	1.013
753.24	0.992
753.42	1.028
753.60	1.184
753.78	1.051
753.97	1.065
754.15	1.087
754.33	1.120
754.51	1.003
754.69	0.990
754.87	1.029
755.06	0.960
755.24	0.959
755.42	0.964
755.60	0.872
755.78	0.882
755.96	0.831
756.15	0.831
756.33	0.838
756.51	0.854
756.69	0.843
756.87	0.809
757.05	0.824
757.23	0.809
757.42	0.778
757.60	0.776
757.78	0.765
757.96	0.763
758.14	0.745
758.32	0.730
758.50	0.745
758.69	0.742
758.87	0.735
759.05	0.741
759.23	0.749
759.41	0.750
759.59	0.743
759.77	0.766
759.95	0.791
760.13	0.839
760.32	0.835
760.50	0.830
760.68	0.856
760.86	0.856
761.04	0.827
761.22	0.831
761.40	0.875
761.58	0.874
761.76	0.845
761.95	0.828
762.13	0.787
762.31	0.789
762.49	0.758
762.67	0.773
762.85	0.786
763.03	0.782
763.21	0.767
763.39	0.748
763.57	0.754
763.75	0.751
763.94	0.738
764.12	0.739
764.30	0.760
764.48	0.762
764.66	0.727
764.84	0.726
765.02	0.765
765.20	0.769
765.38	0.753
765.56	0.756
765.74	0.793
765.92	0.793
766.10	0.800
766.28	0.795
766.46	0.826
766.65	0.827
766.83	0.814
767.01	0.796
767.19	0.805
767.37	0.803
767.55	0.792
767.73	0.776
767.91	0.777
768.09	0.768
768.27	0.756
768.45	0.744
768.63	0.751
768.81	0.753
768.99	0.729
769.17	0.752
769.35	0.767
769.53	0.762
769.71	0.743
769.89	0.753
770.07	0.758
770.25	0.742
770.43	0.722
770.61	0.745
770.79	0.749
770.97	0.757
771.15	0.727
771.33	0.731
771.51	0.737
771.69	0.746
771.87	0.751
772.05	0.757
772.24	0.766
772.42	0.772
772.60	0.752
772.78	0.809
772.96	0.838
773.14	0.833
773.32	0.808
773.49	0.815
773.67	0.814
773.85	0.794
774.03	0.781
774.21	0.812
774.39	0.825
774.57	0.847
774.75	0.775
774.93	0.768
775.11	0.792
775.29	0.796
775.47	0.794
775.65	0.800
775.83	0.817
776.01	0.839
776.19	0.792
776.37	0.793
776.55	0.794
776.73	0.791
776.91	0.786
777.09	0.768
777.27	0.772
777.45	0.760
777.63	0.740
777.81	0.738
777.99	0.726
778.17	0.726
778.35	0.707
778.53	0.692
778.71	0.702
778.89	0.690
779.07	0.680
779.24	0.684
779.42	0.686
779.60	0.704
779.78	0.701
779.96	0.707
780.14	0.713
780.32	0.729
780.50	0.714
780.68	0.710
780.86	0.703
781.04	0.721
781.22	0.722
781.40	0.735
781.58	0.729
781.75	0.721
781.93	0.704
782.11	0.706
782.29	0.695
782.47	0.694
782.65	0.681
782.83	0.708
783.01	0.703
783.19	0.697
783.37	0.682
783.55	0.684
783.72	0.701
783.90	0.713
784.08	0.705
784.26	0.717
784.44	0.738
784.62	0.742
784.80	0.709
784.98	0.714
785.16	0.720
785.33	0.733
785.51	0.716
785.69	0.702
785.87	0.700
786.05	0.711
786.23	0.705
786.41	0.701
786.59	0.709
786.77	0.710
786.94	0.699
787.12	0.705
787.30	0.708
787.48	0.706
787.66	0.695
787.84	0.697
788.02	0.688
788.19	0.686
788.37	0.673
788.55	0.674
788.73	0.674
788.91	0.667
789.09	0.649
789.27	0.637
789.44	0.649
789.62	0.653
789.80	0.661
789.98	0.684
790.16	0.673
790.34	0.667
790.51	0.655
790.69	0.673
790.87	0.680
791.05	0.678
791.23	0.672
791.41	0.675
791.58	0.684
791.76	0.665
791.94	0.636
792.12	0.646
792.30	0.650
792.48	0.649
792.65	0.642
792.83	0.649
793.01	0.658
793.19	0.657
793.37	0.639
793.54	0.635
793.72	0.646
793.90	0.643
794.08	0.631
794.26	0.632
794.43	0.641
794.61	0.626
794.79	0.614
794.97	0.611
795.15	0.618
795.32	0.623
795.50	0.614
795.68	0.609
795.86	0.615
796.04	0.617
796.21	0.610
796.39	0.607
796.57	0.622
796.75	0.629
796.92	0.630
797.10	0.635
797.28	0.638
797.46	0.640
797.64	0.640
797.81	0.647
797.99	0.653
798.17	0.657
798.35	0.652
798.52	0.653
798.70	0.650
798.88	0.658
799.06	0.657
799.23	0.658
799.41	0.665
799.59	0.659
799.77	0.647
799.94	0.655
800.12	0.665
800.30	0.683
800.48	0.682
800.65	0.682
800.83	0.671
801.01	0.661
801.19	0.662
801.36	0.660
801.54	0.664
801.72	0.674
801.90	0.659
802.07	0.653
802.25	0.637
802.43	0.622
802.60	0.618
802.78	0.626
802.96	0.631
803.14	0.626
803.31	0.623
803.49	0.622
803.67	0.620
803.84	0.625
804.02	0.617
804.20	0.620
804.38	0.625
804.55	0.624
804.73	0.609
804.91	0.609
805.08	0.621
805.26	0.616
805.44	0.678
805.61	0.680
805.79	0.679
805.97	0.679
806.15	0.672
806.32	0.667
806.50	0.673
806.68	0.673
806.85	0.666
807.03	0.656
807.21	0.673
807.38	0.608
807.56	0.597
807.74	0.608
807.91	0.613
808.09	0.615
808.27	0.633
808.44	0.658
808.62	0.670
808.80	0.671
808.97	0.666
809.15	0.662
809.33	0.677
809.50	0.684
809.68	0.669
809.86	0.676
810.03	0.707
810.21	0.687
810.39	0.669
810.56	0.672
810.74	0.696
810.91	0.763
811.09	0.751
811.27	0.772
811.44	0.776
811.62	0.781
811.80	0.768
811.97	0.740
812.15	0.742
812.33	0.737
812.50	0.721
812.68	0.709
812.85	0.657
813.03	0.660
813.21	0.628
813.38	0.624
813.56	0.623
813.74	0.631
813.91	0.638
814.09	0.665
814.26	0.660
814.44	0.663
814.62	0.656
814.79	0.658
814.97	0.666
815.14	0.671
815.32	0.673
815.50	0.691
815.67	0.692
815.85	0.682
816.02	0.671
816.20	0.677
816.38	0.690
816.55	0.693
816.73	0.692
816.90	0.697
817.08	0.726
817.26	0.732
817.43	0.712
817.61	0.738
817.78	0.758
817.96	0.740
818.13	0.730
818.31	0.734
818.49	0.746
818.66	0.738
818.84	0.727
819.01	0.708
819.19	0.714
819.36	0.717
819.54	0.685
819.71	0.726
819.89	0.741
820.07	0.753
820.24	0.745
820.42	0.744
820.59	0.763
820.77	0.783
820.94	0.772
821.12	0.790
821.29	0.805
821.47	0.807
821.64	0.743
821.82	0.754
822.00	0.752
822.17	0.748
822.35	0.744
822.52	0.746
822.70	0.737
822.87	0.746
823.05	0.723
823.22	0.737
823.40	0.763
823.57	0.788
823.75	0.768
823.92	0.791
824.10	0.815
824.27	0.852
824.45	0.842
824.62	0.899
824.80	0.917
824.97	0.935
825.15	0.922
825.32	0.935
825.50	0.934
825.67	0.948
825.85	0.922
826.02	0.933
826.20	0.951
826.37	1.064
826.55	0.987
826.72	1.160
826.90	1.225
827.07	1.260
827.25	1.192
827.42	1.330
827.60	1.422
827.77	1.584
827.95	1.553
828.12	1.680
828.30	1.370
828.47	1.488
828.65	1.163
828.82	1.216
829.00	1.279
829.17	1.360
829.34	1.358
829.52	1.430
829.69	-0.000
829.87	-0.000
830.04	-0.000
830.22	-0.000
830.39	-0.000
830.57	-0.000
830.74	-0.000
830.92	-0.000
831.09	-0.000
831.26	-0.000
831.44	-0.000
831.61	-0.000
831.79	-0.000
831.96	-0.000
832.14	-0.000
832.31	-0.000
832.49	-0.000
832.66	-0.000
832.83	-0.000
833.01	-0.000
833.18	-0.000
833.36	-0.000
833.53	-0.000
833.70	-0.000
833.88	-0.000
834.05	-0.000
834.23	-0.000
834.40	-0.000
834.58	-0.000
834.75	-0.000
834.92	-0.000
835.10	-0.000
835.27	-0.000
835.45	-0.000
835.62	-0.000
835.79	-0.000
835.97	-0.000
836.14	-0.000
836.32	-0.000
836.49	-0.000
836.66	-0.000
836.84	-0.000
837.01	-0.000
837.18	-0.000
837.36	-0.000
837.53	-0.000
837.71	-0.000
837.88	-0.000
838.05	-0.000
838.23	-0.000
838.40	-0.000
838.58	-0.000
838.75	-0.000
838.92	-0.000
839.10	-0.000
839.27	-0.000
839.44	-0.000
839.62	-0.000
839.79	-0.000
839.96	-0.000
840.14	-0.000
840.31	-0.000
840.48	-0.000
840.66	-0.000
840.83	-0.000
841.01	-0.000
841.18	-0.000
841.35	-0.000
841.53	-0.000
841.70	-0.000
841.87	-0.000
842.05	-0.000
842.22	-0.000
842.39	-0.000
842.57	-0.000
842.74	-0.000
842.91	-0.000
843.09	-0.000
843.26	-0.000
843.43	-0.000
843.60	-0.000
843.78	-0.000
843.95	-0.000
844.12	-0.000
844.30	-0.000
844.47	-0.000
844.64	-0.000
844.82	-0.000
844.99	-0.000
845.16	-0.000
845.34	-0.000
845.51	-0.000
845.68	-0.000
845.85	-0.000
846.03	-0.000
846.20	-0.000
846.37	-0.000
846.55	-0.000
846.72	-0.000
846.89	-0.000
847.06	-0.000
847.24	-0.000
847.41	-0.000
847.58	-0.000
847.76	-0.000
847.93	-0.000
848.10	-0.000
848.27	-0.000
848.45	-0.000
848.62	-0.000
848.79	-0.000
848.97	-0.000
849.14	-0.000
849.31	-0.000
849.48	-0.000
849.66	-0.000
849.83	-0.000
850.00	-0.000
850.17	-0.000
850.35	-0.000
850.52	-0.000
850.69	-0.000
850.86	-0.000
851.04	-0.000
851.21	-0.000
851.38	-0.000
851.55	-0.000
851.72	-0.000
851.90	-0.000
852.07	-0.000
852.24	-0.000
852.41	-0.000
852.59	-0.000
852.76	-0.000
852.93	-0.000
853.10	-0.000
853.28	-0.000
853.45	-0.000
853.62	-0.000
853.79	-0.000
853.96	-0.000
854.14	-0.000
854.31	-0.000
854.48	-0.000
854.65	-0.000
854.82	-0.000
855.00	-0.000
855.17	-0.000
855.34	-0.000
855.51	-0.000
855.68	-0.000
855.86	-0.000
856.03	-0.000
856.20	-0.000
856.37	-0.000
856.54	-0.000
856.72	-0.000
856.89	-0.000
857.06	-0.000
857.23	-0.000
857.40	-0.000
857.57	-0.000
857.75	-0.000
857.92	-0.000
858.09	-0.000
858.26	-0.000
858.43	-0.000
858.60	-0.000
858.78	-0.000
858.95	-0.000
859.12	-0.000
859.29	-0.000
859.46	-0.000
859.63	-0.000
859.81	-0.000
859.98	-0.000
860.15	-0.000
860.32	-0.000
860.49	-0.000
860.66	-0.000
860.83	-0.000
861.01	-0.000
861.18	-0.000
861.35	-0.000
861.52	-0.000
861.69	-0.000
861.86	-0.000
862.03	-0.000
862.21	-0.000
862.38	-0.000
862.55	-0.000
862.72	-0.000
862.89	-0.000
863.06	-0.000
863.23	-0.000
863.40	-0.000
863.58	-0.000
863.75	-0.000
863.92	-0.000
864.09	-0.000
864.26	-0.000
864.43	-0.000
864.60	-0.000
864.77	-0.000
864.94	-0.000
865.11	-0.000
865.29	-0.000
865.46	-0.000
865.63	-0.000
865.80	-0.000
865.97	-0.000
866.14	-0.000
866.31	-0.000
866.48	-0.000
866.65	-0.000
866.82	-0.000
866.99	-0.000
867.16	-0.000
867.34	-0.000
867.51	-0.000
867.68	-0.000
867.85	-0.000
868.02	-0.000
868.19	-0.000
868.36	-0.000
868.53	-0.000
868.70	-0.000
868.87	-0.000
869.04	-0.000
869.21	-0.000
869.38	-0.000
869.55	-0.000
869.72	-0.000
869.89	-0.000
870.06	-0.000
870.24	-0.000
870.41	-0.000
870.58	-0.000
870.75	-0.000
870.92	-0.000
871.09	-0.000
871.26	-0.000
871.43	-0.000
871.60	-0.000
871.77	-0.000
871.94	-0.000
872.11	-0.000
872.28	-0.000
872.45	-0.000
872.62	-0.000
872.79	-0.000
872.96	-0.000
873.13	-0.000
873.30	-0.000
873.47	-0.000
873.64	-0.000
873.81	-0.000
873.98	-0.000
874.15	-0.000
874.32	-0.000
874.49	-0.000
874.66	-0.000
874.83	-0.000
875.00	-0.000
875.17	-0.000
875.34	-0.000
875.51	-0.000
875.68	-0.000
875.85	-0.000
876.02	-0.000
876.19	-0.000
876.36	-0.000
876.53	-0.000
876.70	-0.000
876.87	-0.000
877.04	-0.000
877.21	-0.000
877.38	-0.000
877.55	-0.000
877.72	-0.000
877.89	-0.000
878.06	-0.000
878.23	-0.000
878.39	-0.000
878.56	-0.000
878.73	-0.000
878.90	-0.000
879.07	-0.000
879.24	-0.000
879.41	-0.000
879.58	-0.000
879.75	-0.000
879.92	-0.000
880.09	-0.000
880.26	-0.000
880.43	-0.000
880.60	-0.000
880.77	-0.000
880.94	-0.000
881.11	-0.000
881.27	-0.000
881.44	-0.000
881.61	-0.000
881.78	-0.000
881.95	-0.000
882.12	-0.000
882.29	-0.000
882.46	-0.000
882.63	-0.000
882.80	-0.000
882.97	-0.000
883.14	-0.000
883.30	-0.000
883.47	-0.000
883.64	-0.000
883.81	-0.000
883.98	-0.000
884.15	-0.000
884.32	-0.000
884.49	-0.000
884.66	-0.000
884.82	-0.000
884.99	-0.000
885.16	-0.000
885.33	-0.000
885.50	-0.000
885.67	-0.000
885.84	-0.000
886.01	-0.000
886.17	-0.000
886.34	-0.000
886.51	-0.000
886.68	-0.000
886.85	-0.000
887.02	-0.000
887.19	-0.000
887.36	-0.000
887.52	-0.000
887.69	-0.000
887.86	-0.000
888.03	-0.000
888.20	-0.000
888.37	-0.000
888.54	-0.000
888.70	-0.000
888.87	-0.000
889.04	-0.000
889.21	-0.000
889.38	-0.000
889.55	-0.000
889.71	-0.000
889.88	-0.000
890.05	-0.000
890.22	-0.000
890.39	-0.000
>>>>>End Processed Spectral Data<<<<<
