SpectraSuite Data File
++++++++++++++++++++++++++++++++++++
Date: Fri Jun 19 15:23:44 CEST 2015
User: introlabs
Dark Spectrum Present: Yes
Reference Spectrum Present: Yes
Number of Sampled Component Spectra: 1
Spectrometers: USB4H08886
Integration Time (usec): 745692 (USB4H08886)
Spectra Averaged: 5 (USB4H08886)
Boxcar Smoothing: 5 (USB4H08886)
Correct for Electrical Dark: Yes (USB4H08886)
Strobe/Lamp Enabled: No (USB4H08886)
Correct for Detector Non-linearity: Yes (USB4H08886)
Correct for Stray Light: Yes (USB4H08886)
Number of Pixels in Processed Spectrum: 3648
>>>>>Begin Processed Spectral Data<<<<<
178.14	-0.000
178.36	-0.000
178.57	-0.000
178.79	-0.000
179.01	-0.000
179.22	-0.000
179.44	-0.000
179.65	-0.000
179.87	-0.000
180.08	-0.000
180.30	-0.000
180.52	-0.000
180.73	-0.000
180.95	-0.000
181.16	-0.000
181.38	-0.000
181.59	-0.000
181.81	-0.000
182.03	-0.000
182.24	-0.000
182.46	-0.000
182.67	-0.000
182.89	-0.000
183.10	-0.000
183.32	-0.000
183.54	-0.000
183.75	-0.000
183.97	-0.000
184.18	-0.000
184.40	-0.000
184.61	-0.000
184.83	-0.000
185.04	-0.000
185.26	-0.000
185.48	-0.000
185.69	-0.000
185.91	-0.000
186.12	-0.000
186.34	-0.000
186.55	-0.000
186.77	-0.000
186.98	-0.000
187.20	-0.000
187.42	-0.000
187.63	-0.000
187.85	-0.000
188.06	-0.000
188.28	-0.000
188.49	-0.000
188.71	-0.000
188.92	-0.000
189.14	-0.000
189.36	-0.000
189.57	-0.000
189.79	-0.000
190.00	-0.000
190.22	-0.000
190.43	-0.000
190.65	-0.000
190.86	-0.000
191.08	-0.000
191.29	-0.000
191.51	-0.000
191.72	-0.000
191.94	-0.000
192.16	-0.000
192.37	-0.000
192.59	-0.000
192.80	-0.000
193.02	-0.000
193.23	-0.000
193.45	-0.000
193.66	-0.000
193.88	-0.000
194.09	-0.000
194.31	-0.000
194.52	-0.000
194.74	-0.000
194.95	-0.000
195.17	-0.000
195.38	-0.000
195.60	-0.000
195.81	-0.000
196.03	-0.000
196.25	-0.000
196.46	-0.000
196.68	-0.000
196.89	-0.000
197.11	-0.000
197.32	-0.000
197.54	-0.000
197.75	-0.000
197.97	-0.000
198.18	-0.000
198.40	-0.000
198.61	-0.000
198.83	-0.000
199.04	-0.000
199.26	-0.000
199.47	-0.000
199.69	-0.000
199.90	-0.000
200.12	-0.000
200.33	-0.000
200.55	-0.000
200.76	-0.000
200.98	-0.000
201.19	-0.000
201.41	-0.000
201.62	-0.000
201.84	-0.000
202.05	-0.000
202.27	-0.000
202.48	-0.000
202.70	-0.000
202.91	-0.000
203.13	-0.000
203.34	-0.000
203.56	-0.000
203.77	-0.000
203.99	-0.000
204.20	-0.000
204.42	-0.000
204.63	-0.000
204.85	-0.000
205.06	-0.000
205.28	-0.000
205.49	-0.000
205.71	-0.000
205.92	-0.000
206.14	-0.000
206.35	-0.000
206.56	-0.000
206.78	-0.000
206.99	-0.000
207.21	-0.000
207.42	-0.000
207.64	-0.000
207.85	-0.000
208.07	-0.000
208.28	-0.000
208.50	-0.000
208.71	-0.000
208.93	-0.000
209.14	-0.000
209.36	-0.000
209.57	-0.000
209.79	-0.000
210.00	-0.000
210.22	-0.000
210.43	-0.000
210.64	-0.000
210.86	-0.000
211.07	-0.000
211.29	-0.000
211.50	-0.000
211.72	-0.000
211.93	-0.000
212.15	-0.000
212.36	-0.000
212.58	-0.000
212.79	-0.000
213.01	-0.000
213.22	-0.000
213.43	-0.000
213.65	-0.000
213.86	-0.000
214.08	-0.000
214.29	-0.000
214.51	-0.000
214.72	-0.000
214.94	-0.000
215.15	-0.000
215.36	-0.000
215.58	-0.000
215.79	-0.000
216.01	-0.000
216.22	-0.000
216.44	-0.000
216.65	-0.000
216.87	-0.000
217.08	-0.000
217.29	-0.000
217.51	-0.000
217.72	-0.000
217.94	-0.000
218.15	-0.000
218.37	-0.000
218.58	-0.000
218.80	-0.000
219.01	-0.000
219.22	-0.000
219.44	-0.000
219.65	-0.000
219.87	-0.000
220.08	-0.000
220.30	-0.000
220.51	-0.000
220.72	-0.000
220.94	-0.000
221.15	-0.000
221.37	-0.000
221.58	-0.000
221.79	-0.000
222.01	-0.000
222.22	-0.000
222.44	-0.000
222.65	-0.000
222.87	-0.000
223.08	-0.000
223.29	-0.000
223.51	-0.000
223.72	-0.000
223.94	-0.000
224.15	-0.000
224.36	-0.000
224.58	-0.000
224.79	-0.000
225.01	-0.000
225.22	-0.000
225.44	-0.000
225.65	-0.000
225.86	-0.000
226.08	-0.000
226.29	-0.000
226.51	-0.000
226.72	-0.000
226.93	-0.000
227.15	-0.000
227.36	-0.000
227.58	-0.000
227.79	-0.000
228.00	-0.000
228.22	-0.000
228.43	-0.000
228.65	-0.000
228.86	-0.000
229.07	-0.000
229.29	-0.000
229.50	-0.000
229.72	-0.000
229.93	-0.000
230.14	-0.000
230.36	-0.000
230.57	-0.000
230.78	-0.000
231.00	-0.000
231.21	-0.000
231.43	-0.000
231.64	-0.000
231.85	-0.000
232.07	-0.000
232.28	-0.000
232.50	-0.000
232.71	-0.000
232.92	-0.000
233.14	-0.000
233.35	-0.000
233.56	-0.000
233.78	-0.000
233.99	-0.000
234.21	-0.000
234.42	-0.000
234.63	-0.000
234.85	-0.000
235.06	-0.000
235.27	-0.000
235.49	-0.000
235.70	-0.000
235.91	-0.000
236.13	-0.000
236.34	-0.000
236.56	-0.000
236.77	-0.000
236.98	-0.000
237.20	-0.000
237.41	-0.000
237.62	-0.000
237.84	-0.000
238.05	-0.000
238.26	-0.000
238.48	-0.000
238.69	-0.000
238.91	-0.000
239.12	-0.000
239.33	-0.000
239.55	-0.000
239.76	-0.000
239.97	-0.000
240.19	-0.000
240.40	-0.000
240.61	-0.000
240.83	-0.000
241.04	-0.000
241.25	-0.000
241.47	-0.000
241.68	-0.000
241.89	-0.000
242.11	-0.000
242.32	-0.000
242.53	-0.000
242.75	-0.000
242.96	-0.000
243.17	-0.000
243.39	-0.000
243.60	-0.000
243.81	-0.000
244.03	-0.000
244.24	-0.000
244.45	-0.000
244.67	-0.000
244.88	-0.000
245.09	-0.000
245.31	-0.000
245.52	-0.000
245.73	-0.000
245.95	-0.000
246.16	-0.000
246.37	-0.000
246.59	-0.000
246.80	-0.000
247.01	-0.000
247.23	-0.000
247.44	-0.000
247.65	-0.000
247.87	-0.000
248.08	-0.000
248.29	-0.000
248.51	-0.000
248.72	-0.000
248.93	-0.000
249.15	-0.000
249.36	-0.000
249.57	-0.000
249.78	-0.000
250.00	-0.000
250.21	-0.000
250.42	-0.000
250.64	-0.000
250.85	-0.000
251.06	-0.000
251.28	-0.000
251.49	-0.000
251.70	-0.000
251.92	-0.000
252.13	-0.000
252.34	-0.000
252.55	-0.000
252.77	-0.000
252.98	-0.000
253.19	-0.000
253.41	-0.000
253.62	-0.000
253.83	-0.000
254.05	-0.000
254.26	-0.000
254.47	-0.000
254.68	-0.000
254.90	-0.000
255.11	-0.000
255.32	-0.000
255.54	-0.000
255.75	-0.000
255.96	-0.000
256.17	-0.000
256.39	-0.000
256.60	-0.000
256.81	-0.000
257.03	-0.000
257.24	-0.000
257.45	-0.000
257.66	-0.000
257.88	-0.000
258.09	-0.000
258.30	-0.000
258.51	-0.000
258.73	-0.000
258.94	-0.000
259.15	-0.000
259.37	-0.000
259.58	-0.000
259.79	-0.000
260.00	-0.000
260.22	-0.000
260.43	-0.000
260.64	-0.000
260.85	-0.000
261.07	-0.000
261.28	-0.000
261.49	-0.000
261.71	-0.000
261.92	-0.000
262.13	-0.000
262.34	-0.000
262.56	-0.000
262.77	-0.000
262.98	-0.000
263.19	-0.000
263.41	-0.000
263.62	-0.000
263.83	-0.000
264.04	-0.000
264.26	-0.000
264.47	-0.000
264.68	-0.000
264.89	-0.000
265.11	-0.000
265.32	-0.000
265.53	-0.000
265.74	-0.000
265.96	-0.000
266.17	-0.000
266.38	-0.000
266.59	-0.000
266.81	-0.000
267.02	-0.000
267.23	-0.000
267.44	-0.000
267.65	-0.000
267.87	-0.000
268.08	-0.000
268.29	-0.000
268.50	-0.000
268.72	-0.000
268.93	-0.000
269.14	-0.000
269.35	-0.000
269.57	-0.000
269.78	-0.000
269.99	-0.000
270.20	-0.000
270.41	-0.000
270.63	-0.000
270.84	-0.000
271.05	-0.000
271.26	-0.000
271.48	-0.000
271.69	-0.000
271.90	-0.000
272.11	-0.000
272.32	-0.000
272.54	-0.000
272.75	-0.000
272.96	-0.000
273.17	-0.000
273.39	-0.000
273.60	-0.000
273.81	-0.000
274.02	-0.000
274.23	-0.000
274.45	-0.000
274.66	-0.000
274.87	-0.000
275.08	-0.000
275.29	-0.000
275.51	-0.000
275.72	-0.000
275.93	-0.000
276.14	-0.000
276.35	-0.000
276.57	-0.000
276.78	-0.000
276.99	-0.000
277.20	-0.000
277.41	-0.000
277.63	-0.000
277.84	-0.000
278.05	-0.000
278.26	-0.000
278.47	-0.000
278.69	-0.000
278.90	-0.000
279.11	-0.000
279.32	-0.000
279.53	-0.000
279.74	-0.000
279.96	-0.000
280.17	-0.000
280.38	-0.000
280.59	-0.000
280.80	-0.000
281.02	-0.000
281.23	-0.000
281.44	-0.000
281.65	-0.000
281.86	-0.000
282.07	-0.000
282.29	-0.000
282.50	-0.000
282.71	-0.000
282.92	-0.000
283.13	-0.000
283.35	-0.000
283.56	-0.000
283.77	-0.000
283.98	-0.000
284.19	-0.000
284.40	-0.000
284.62	-0.000
284.83	-0.000
285.04	-0.000
285.25	-0.000
285.46	-0.000
285.67	-0.000
285.88	-0.000
286.10	-0.000
286.31	-0.000
286.52	-0.000
286.73	-0.000
286.94	-0.000
287.15	-0.000
287.37	-0.000
287.58	-0.000
287.79	-0.000
288.00	-0.000
288.21	-0.000
288.42	-0.000
288.63	-0.000
288.85	-0.000
289.06	-0.000
289.27	-0.000
289.48	-0.000
289.69	-0.000
289.90	-0.000
290.11	-0.000
290.33	-0.000
290.54	-0.000
290.75	-0.000
290.96	-0.000
291.17	-0.000
291.38	-0.000
291.59	-0.000
291.81	-0.000
292.02	-0.000
292.23	-0.000
292.44	-0.000
292.65	-0.000
292.86	-0.000
293.07	-0.000
293.28	2.998
293.50	-0.000
293.71	-0.000
293.92	-0.000
294.13	-0.000
294.34	-0.000
294.55	-0.000
294.76	-0.000
294.97	-0.000
295.19	-0.000
295.40	-0.000
295.61	-0.000
295.82	-0.000
296.03	-0.000
296.24	-0.000
296.45	2.023
296.66	1.727
296.87	1.753
297.09	1.795
297.30	1.988
297.51	1.680
297.72	1.657
297.93	1.723
298.14	1.686
298.35	1.648
298.56	1.623
298.77	1.724
298.99	1.710
299.20	1.685
299.41	1.673
299.62	1.615
299.83	1.601
300.04	1.539
300.25	1.539
300.46	1.579
300.67	1.554
300.88	1.510
301.10	1.514
301.31	1.566
301.52	1.512
301.73	1.464
301.94	1.467
302.15	1.486
302.36	1.447
302.57	1.391
302.78	1.393
302.99	1.435
303.20	1.455
303.41	1.375
303.63	1.361
303.84	1.370
304.05	1.362
304.26	1.306
304.47	1.310
304.68	1.310
304.89	1.300
305.10	1.266
305.31	1.250
305.52	1.289
305.73	1.280
305.94	1.246
306.15	1.237
306.37	1.263
306.58	1.275
306.79	1.246
307.00	1.269
307.21	1.307
307.42	1.302
307.63	1.269
307.84	1.237
308.05	1.272
308.26	1.274
308.47	1.254
308.68	1.248
308.89	1.240
309.10	1.239
309.31	1.201
309.52	1.192
309.73	1.205
309.95	1.201
310.16	1.175
310.37	1.165
310.58	1.179
310.79	1.175
311.00	1.173
311.21	1.177
311.42	1.178
311.63	1.173
311.84	1.157
312.05	1.153
312.26	1.171
312.47	1.182
312.68	1.160
312.89	1.147
313.10	1.153
313.31	1.127
313.52	1.131
313.73	1.132
313.94	1.134
314.15	1.119
314.36	1.100
314.57	1.093
314.78	1.082
314.99	1.077
315.21	1.065
315.42	1.069
315.63	1.082
315.84	1.060
316.05	1.047
316.26	1.055
316.47	1.068
316.68	1.066
316.89	1.048
317.10	1.069
317.31	1.073
317.52	1.074
317.73	1.054
317.94	1.053
318.15	1.092
318.36	1.090
318.57	1.074
318.78	1.064
318.99	1.094
319.20	1.092
319.41	1.057
319.62	1.058
319.83	1.070
320.04	1.066
320.25	1.054
320.46	1.024
320.67	1.026
320.88	1.023
321.09	1.011
321.30	0.998
321.51	1.012
321.72	1.011
321.93	0.996
322.14	0.989
322.35	1.014
322.56	1.017
322.77	1.003
322.98	1.014
323.19	1.021
323.40	1.030
323.61	1.010
323.82	1.005
324.03	1.010
324.24	1.009
324.45	0.996
324.66	0.978
324.87	0.973
325.08	0.974
325.29	0.956
325.50	0.948
325.71	0.951
325.92	0.959
326.13	0.946
326.34	0.946
326.55	0.954
326.76	0.953
326.97	0.943
327.18	0.937
327.39	0.959
327.60	0.961
327.80	0.963
328.01	0.961
328.22	0.961
328.43	0.966
328.64	0.956
328.85	0.959
329.06	0.960
329.27	0.960
329.48	0.957
329.69	0.938
329.90	0.947
330.11	0.941
330.32	0.934
330.53	0.927
330.74	0.925
330.95	0.922
331.16	0.908
331.37	0.916
331.58	0.915
331.79	0.915
332.00	0.908
332.21	0.901
332.42	0.903
332.63	0.896
332.83	0.893
333.04	0.895
333.25	0.907
333.46	0.906
333.67	0.893
333.88	0.895
334.09	0.905
334.30	0.901
334.51	0.895
334.72	0.891
334.93	0.892
335.14	0.891
335.35	0.884
335.56	0.879
335.77	0.886
335.98	0.885
336.18	0.881
336.39	0.874
336.60	0.878
336.81	0.876
337.02	0.876
337.23	0.882
337.44	0.885
337.65	0.886
337.86	0.877
338.07	0.871
338.28	0.874
338.49	0.871
338.70	0.864
338.91	0.871
339.11	0.877
339.32	0.873
339.53	0.861
339.74	0.857
339.95	0.853
340.16	0.853
340.37	0.846
340.58	0.846
340.79	0.848
341.00	0.848
341.21	0.838
341.41	0.838
341.62	0.838
341.83	0.839
342.04	0.836
342.25	0.847
342.46	0.850
342.67	0.849
342.88	0.842
343.09	0.843
343.30	0.849
343.50	0.852
343.71	0.844
343.92	0.843
344.13	0.848
344.34	0.847
344.55	0.830
344.76	0.830
344.97	0.833
345.18	0.833
345.38	0.830
345.59	0.824
345.80	0.824
346.01	0.822
346.22	0.818
346.43	0.812
346.64	0.820
346.85	0.820
347.06	0.814
347.26	0.813
347.47	0.817
347.68	0.813
347.89	0.809
348.10	0.805
348.31	0.809
348.52	0.809
348.73	0.807
348.93	0.803
349.14	0.805
349.35	0.805
349.56	0.800
349.77	0.795
349.98	0.800
350.19	0.798
350.39	0.793
350.60	0.789
350.81	0.803
351.02	0.800
351.23	0.796
351.44	0.799
351.65	0.802
351.86	0.799
352.06	0.799
352.27	0.799
352.48	0.801
352.69	0.801
352.90	0.796
353.11	0.784
353.31	0.791
353.52	0.787
353.73	0.780
353.94	0.781
354.15	0.786
354.36	0.786
354.57	0.777
354.77	0.780
354.98	0.778
355.19	0.778
355.40	0.778
355.61	0.784
355.82	0.789
356.02	0.788
356.23	0.781
356.44	0.782
356.65	0.784
356.86	0.784
357.07	0.779
357.27	0.782
357.48	0.784
357.69	0.780
357.90	0.764
358.11	0.761
358.32	0.765
358.52	0.767
358.73	0.758
358.94	0.761
359.15	0.765
359.36	0.765
359.56	0.760
359.77	0.757
359.98	0.764
360.19	0.764
360.40	0.760
360.61	0.761
360.81	0.760
361.02	0.761
361.23	0.752
361.44	0.750
361.65	0.751
361.85	0.750
362.06	0.748
362.27	0.751
362.48	0.750
362.69	0.752
362.89	0.747
363.10	0.749
363.31	0.753
363.52	0.756
363.73	0.753
363.93	0.753
364.14	0.755
364.35	0.756
364.56	0.746
364.77	0.749
364.97	0.751
365.18	0.752
365.39	0.747
365.60	0.744
365.81	0.745
366.01	0.745
366.22	0.741
366.43	0.741
366.64	0.742
366.84	0.747
367.05	0.745
367.26	0.744
367.47	0.744
367.68	0.744
367.88	0.741
368.09	0.738
368.30	0.740
368.51	0.740
368.71	0.739
368.92	0.742
369.13	0.740
369.34	0.739
369.55	0.739
369.75	0.739
369.96	0.745
370.17	0.745
370.38	0.743
370.58	0.743
370.79	0.747
371.00	0.746
371.21	0.739
371.41	0.744
371.62	0.747
371.83	0.743
372.04	0.741
372.24	0.734
372.45	0.734
372.66	0.734
372.87	0.731
373.07	0.728
373.28	0.728
373.49	0.732
373.70	0.724
373.90	0.722
374.11	0.731
374.32	0.731
374.53	0.730
374.73	0.730
374.94	0.732
375.15	0.732
375.36	0.730
375.56	0.739
375.77	0.739
375.98	0.739
376.19	0.737
376.39	0.731
376.60	0.734
376.81	0.734
377.02	0.732
377.22	0.732
377.43	0.732
377.64	0.733
377.84	0.724
378.05	0.729
378.26	0.735
378.47	0.734
378.67	0.731
378.88	0.729
379.09	0.729
379.30	0.729
379.50	0.727
379.71	0.729
379.92	0.731
380.12	0.730
380.33	0.722
380.54	0.718
380.75	0.724
380.95	0.724
381.16	0.723
381.37	0.723
381.57	0.725
381.78	0.726
381.99	0.726
382.20	0.725
382.40	0.728
382.61	0.730
382.82	0.727
383.02	0.720
383.23	0.724
383.44	0.724
383.64	0.723
383.85	0.725
384.06	0.727
384.27	0.725
384.47	0.724
384.68	0.724
384.89	0.730
385.09	0.729
385.30	0.729
385.51	0.727
385.71	0.730
385.92	0.730
386.13	0.729
386.33	0.731
386.54	0.731
386.75	0.731
386.95	0.727
387.16	0.722
387.37	0.725
387.58	0.725
387.78	0.723
387.99	0.721
388.20	0.723
388.40	0.720
388.61	0.716
388.82	0.720
389.02	0.722
389.23	0.722
389.44	0.721
389.64	0.722
389.85	0.733
390.06	0.733
390.26	0.733
390.47	0.733
390.68	0.735
390.88	0.733
391.09	0.729
391.30	0.728
391.50	0.728
391.71	0.727
391.92	0.725
392.12	0.717
392.33	0.718
392.53	0.718
392.74	0.718
392.95	0.718
393.15	0.720
393.36	0.722
393.57	0.720
393.77	0.723
393.98	0.725
394.19	0.725
394.39	0.724
394.60	0.725
394.81	0.727
395.01	0.725
395.22	0.723
395.43	0.725
395.63	0.729
395.84	0.731
396.04	0.727
396.25	0.728
396.46	0.731
396.66	0.729
396.87	0.727
397.08	0.724
397.28	0.726
397.49	0.728
397.69	0.724
397.90	0.719
398.11	0.720
398.31	0.722
398.52	0.718
398.73	0.720
398.93	0.719
399.14	0.718
399.34	0.718
399.55	0.719
399.76	0.719
399.96	0.720
400.17	0.718
400.37	0.717
400.58	0.724
400.79	0.725
400.99	0.722
401.20	0.728
401.41	0.730
401.61	0.730
401.82	0.736
402.02	0.736
402.23	0.738
402.44	0.737
402.64	0.737
402.85	0.732
403.05	0.731
403.26	0.730
403.47	0.724
403.67	0.723
403.88	0.724
404.08	0.718
404.29	0.716
404.50	0.716
404.70	0.716
404.91	0.715
405.11	0.712
405.32	0.712
405.52	0.712
405.73	0.711
405.94	0.710
406.14	0.712
406.35	0.714
406.55	0.714
406.76	0.712
406.97	0.712
407.17	0.715
407.38	0.715
407.58	0.714
407.79	0.716
407.99	0.719
408.20	0.720
408.41	0.716
408.61	0.715
408.82	0.716
409.02	0.716
409.23	0.713
409.43	0.711
409.64	0.712
409.84	0.712
410.05	0.709
410.26	0.708
410.46	0.707
410.67	0.706
410.87	0.708
411.08	0.710
411.28	0.711
411.49	0.714
411.69	0.712
411.90	0.713
412.11	0.713
412.31	0.714
412.52	0.713
412.72	0.713
412.93	0.714
413.13	0.713
413.34	0.710
413.54	0.711
413.75	0.712
413.95	0.712
414.16	0.709
414.37	0.712
414.57	0.713
414.78	0.715
414.98	0.714
415.19	0.715
415.39	0.712
415.60	0.714
415.80	0.714
416.01	0.713
416.21	0.714
416.42	0.713
416.62	0.708
416.83	0.707
417.03	0.707
417.24	0.707
417.44	0.705
417.65	0.704
417.86	0.705
418.06	0.702
418.27	0.700
418.47	0.702
418.68	0.703
418.88	0.704
419.09	0.703
419.29	0.703
419.50	0.704
419.70	0.704
419.91	0.703
420.11	0.701
420.32	0.704
420.52	0.704
420.73	0.703
420.93	0.704
421.14	0.705
421.34	0.704
421.55	0.701
421.75	0.701
421.96	0.701
422.16	0.701
422.37	0.700
422.57	0.697
422.78	0.699
422.98	0.695
423.19	0.693
423.39	0.691
423.60	0.695
423.80	0.696
424.01	0.695
424.21	0.697
424.42	0.697
424.62	0.698
424.83	0.697
425.03	0.697
425.23	0.698
425.44	0.698
425.64	0.699
425.85	0.698
426.05	0.698
426.26	0.698
426.46	0.694
426.67	0.694
426.87	0.698
427.08	0.698
427.28	0.696
427.49	0.697
427.69	0.697
427.90	0.696
428.10	0.693
428.31	0.694
428.51	0.695
428.71	0.695
428.92	0.696
429.12	0.694
429.33	0.695
429.53	0.699
429.74	0.703
429.94	0.703
430.15	0.703
430.35	0.702
430.56	0.699
430.76	0.698
430.96	0.698
431.17	0.695
431.37	0.693
431.58	0.691
431.78	0.687
431.99	0.680
432.19	0.682
432.40	0.683
432.60	0.684
432.80	0.687
433.01	0.685
433.21	0.686
433.42	0.687
433.62	0.687
433.83	0.687
434.03	0.689
434.23	0.692
434.44	0.691
434.64	0.689
434.85	0.694
435.05	0.694
435.26	0.695
435.46	0.693
435.66	0.693
435.87	0.692
436.07	0.692
436.28	0.688
436.48	0.685
436.69	0.684
436.89	0.685
437.09	0.679
437.30	0.678
437.50	0.678
437.71	0.690
437.91	0.689
438.11	0.691
438.32	0.695
438.52	0.696
438.73	0.695
438.93	0.693
439.13	0.693
439.34	0.696
439.54	0.694
439.75	0.694
439.95	0.684
440.15	0.688
440.36	0.686
440.56	0.684
440.77	0.684
440.97	0.684
441.17	0.683
441.38	0.684
441.58	0.681
441.79	0.681
441.99	0.679
442.19	0.678
442.40	0.676
442.60	0.676
442.81	0.674
443.01	0.675
443.21	0.675
443.42	0.674
443.62	0.673
443.82	0.673
444.03	0.674
444.23	0.674
444.44	0.673
444.64	0.672
444.84	0.673
445.05	0.673
445.25	0.670
445.45	0.670
445.66	0.673
445.86	0.672
446.06	0.672
446.27	0.672
446.47	0.675
446.68	0.673
446.88	0.672
447.08	0.672
447.29	0.673
447.49	0.674
447.69	0.673
447.90	0.672
448.10	0.675
448.30	0.673
448.51	0.675
448.71	0.672
448.91	0.674
449.12	0.673
449.32	0.674
449.52	0.672
449.73	0.675
449.93	0.674
450.14	0.675
450.34	0.674
450.54	0.676
450.75	0.673
450.95	0.672
451.15	0.672
451.36	0.675
451.56	0.671
451.76	0.671
451.97	0.668
452.17	0.668
452.37	0.666
452.58	0.663
452.78	0.663
452.98	0.665
453.19	0.664
453.39	0.665
453.59	0.664
453.79	0.665
454.00	0.666
454.20	0.665
454.40	0.666
454.61	0.668
454.81	0.668
455.01	0.667
455.22	0.667
455.42	0.669
455.62	0.667
455.83	0.667
456.03	0.669
456.23	0.669
456.44	0.670
456.64	0.669
456.84	0.669
457.04	0.669
457.25	0.669
457.45	0.666
457.65	0.665
457.86	0.665
458.06	0.664
458.26	0.660
458.47	0.659
458.67	0.660
458.87	0.661
459.07	0.658
459.28	0.660
459.48	0.663
459.68	0.663
459.89	0.662
460.09	0.661
460.29	0.662
460.49	0.663
460.70	0.662
460.90	0.662
461.10	0.662
461.31	0.662
461.51	0.659
461.71	0.660
461.91	0.661
462.12	0.661
462.32	0.660
462.52	0.661
462.72	0.664
462.93	0.665
463.13	0.664
463.33	0.665
463.53	0.665
463.74	0.665
463.94	0.660
464.14	0.660
464.35	0.662
464.55	0.662
464.75	0.660
464.95	0.658
465.16	0.659
465.36	0.658
465.56	0.657
465.76	0.657
465.97	0.657
466.17	0.658
466.37	0.656
466.57	0.656
466.78	0.656
466.98	0.657
467.18	0.655
467.38	0.654
467.59	0.655
467.79	0.656
467.99	0.656
468.19	0.657
468.39	0.660
468.60	0.659
468.80	0.658
469.00	0.659
469.20	0.660
469.41	0.660
469.61	0.659
469.81	0.660
470.01	0.659
470.22	0.659
470.42	0.658
470.62	0.656
470.82	0.658
471.02	0.658
471.23	0.656
471.43	0.656
471.63	0.658
471.83	0.658
472.04	0.657
472.24	0.655
472.44	0.661
472.64	0.661
472.84	0.658
473.05	0.658
473.25	0.660
473.45	0.659
473.65	0.658
473.85	0.658
474.06	0.659
474.26	0.659
474.46	0.660
474.66	0.655
474.86	0.656
475.07	0.657
475.27	0.655
475.47	0.653
475.67	0.653
475.87	0.655
476.08	0.652
476.28	0.654
476.48	0.654
476.68	0.653
476.88	0.651
477.09	0.652
477.29	0.654
477.49	0.654
477.69	0.653
477.89	0.653
478.09	0.652
478.30	0.654
478.50	0.652
478.70	0.651
478.90	0.652
479.10	0.654
479.31	0.655
479.51	0.654
479.71	0.654
479.91	0.654
480.11	0.653
480.31	0.654
480.52	0.652
480.72	0.651
480.92	0.651
481.12	0.649
481.32	0.647
481.52	0.645
481.72	0.645
481.93	0.649
482.13	0.649
482.33	0.649
482.53	0.646
482.73	0.647
482.93	0.649
483.14	0.648
483.34	0.648
483.54	0.649
483.74	0.649
483.94	0.648
484.14	0.644
484.34	0.644
484.55	0.644
484.75	0.644
484.95	0.643
485.15	0.642
485.35	0.642
485.55	0.642
485.75	0.640
485.96	0.640
486.16	0.642
486.36	0.641
486.56	0.640
486.76	0.640
486.96	0.640
487.16	0.639
487.36	0.637
487.57	0.637
487.77	0.637
487.97	0.637
488.17	0.635
488.37	0.634
488.57	0.635
488.77	0.635
488.97	0.634
489.18	0.633
489.38	0.635
489.58	0.636
489.78	0.635
489.98	0.635
490.18	0.635
490.38	0.635
490.58	0.635
490.78	0.635
490.98	0.637
491.19	0.637
491.39	0.636
491.59	0.635
491.79	0.638
491.99	0.638
492.19	0.638
492.39	0.641
492.59	0.641
492.79	0.643
492.99	0.643
493.20	0.643
493.40	0.643
493.60	0.645
493.80	0.643
494.00	0.641
494.20	0.641
494.40	0.641
494.60	0.638
494.80	0.643
495.00	0.642
495.20	0.640
495.40	0.639
495.61	0.641
495.81	0.641
496.01	0.644
496.21	0.645
496.41	0.645
496.61	0.646
496.81	0.645
497.01	0.640
497.21	0.639
497.41	0.639
497.61	0.639
497.81	0.636
498.01	0.636
498.21	0.634
498.41	0.632
498.61	0.632
498.82	0.633
499.02	0.635
499.22	0.636
499.42	0.635
499.62	0.637
499.82	0.637
500.02	0.639
500.22	0.637
500.42	0.640
500.62	0.640
500.82	0.640
501.02	0.638
501.22	0.638
501.42	0.638
501.62	0.640
501.82	0.639
502.02	0.639
502.22	0.639
502.42	0.641
502.62	0.638
502.82	0.638
503.02	0.639
503.22	0.639
503.42	0.637
503.63	0.638
503.83	0.636
504.03	0.634
504.23	0.633
504.43	0.634
504.63	0.635
504.83	0.635
505.03	0.634
505.23	0.636
505.43	0.637
505.63	0.638
505.83	0.637
506.03	0.639
506.23	0.641
506.43	0.641
506.63	0.640
506.83	0.638
507.03	0.640
507.23	0.640
507.43	0.638
507.63	0.638
507.83	0.638
508.03	0.639
508.23	0.638
508.43	0.636
508.63	0.638
508.83	0.638
509.03	0.640
509.23	0.639
509.43	0.640
509.63	0.640
509.83	0.639
510.03	0.642
510.23	0.643
510.43	0.643
510.63	0.644
510.83	0.643
511.03	0.644
511.23	0.642
511.43	0.641
511.63	0.643
511.83	0.645
512.03	0.644
512.22	0.641
512.42	0.641
512.62	0.642
512.82	0.641
513.02	0.641
513.22	0.641
513.42	0.642
513.62	0.645
513.82	0.643
514.02	0.643
514.22	0.644
514.42	0.644
514.62	0.644
514.82	0.644
515.02	0.647
515.22	0.650
515.42	0.649
515.62	0.652
515.82	0.650
516.02	0.651
516.22	0.651
516.42	0.652
516.62	0.654
516.82	0.655
517.01	0.653
517.21	0.652
517.41	0.656
517.61	0.656
517.81	0.652
518.01	0.652
518.21	0.652
518.41	0.651
518.61	0.650
518.81	0.651
519.01	0.652
519.21	0.652
519.41	0.651
519.61	0.645
519.81	0.647
520.00	0.648
520.20	0.648
520.40	0.651
520.60	0.652
520.80	0.651
521.00	0.652
521.20	0.652
521.40	0.658
521.60	0.658
521.80	0.658
522.00	0.658
522.20	0.661
522.39	0.660
522.59	0.657
522.79	0.659
522.99	0.661
523.19	0.659
523.39	0.657
523.59	0.655
523.79	0.657
523.99	0.659
524.19	0.658
524.38	0.656
524.58	0.657
524.78	0.658
524.98	0.656
525.18	0.658
525.38	0.658
525.58	0.659
525.78	0.657
525.98	0.655
526.18	0.655
526.37	0.654
526.57	0.657
526.77	0.657
526.97	0.658
527.17	0.658
527.37	0.654
527.57	0.657
527.77	0.658
527.96	0.658
528.16	0.657
528.36	0.658
528.56	0.660
528.76	0.658
528.96	0.658
529.16	0.659
529.36	0.661
529.55	0.660
529.75	0.658
529.95	0.658
530.15	0.659
530.35	0.662
530.55	0.660
530.75	0.660
530.94	0.661
531.14	0.661
531.34	0.660
531.54	0.659
531.74	0.662
531.94	0.664
532.13	0.662
532.33	0.664
532.53	0.662
532.73	0.662
532.93	0.660
533.13	0.661
533.33	0.661
533.52	0.661
533.72	0.664
533.92	0.662
534.12	0.661
534.32	0.661
534.52	0.659
534.71	0.661
534.91	0.664
535.11	0.666
535.31	0.664
535.51	0.665
535.71	0.667
535.90	0.664
536.10	0.665
536.30	0.667
536.50	0.667
536.70	0.668
536.89	0.665
537.09	0.665
537.29	0.666
537.49	0.667
537.69	0.666
537.89	0.667
538.08	0.666
538.28	0.664
538.48	0.664
538.68	0.666
538.88	0.668
539.07	0.668
539.27	0.666
539.47	0.666
539.67	0.665
539.87	0.666
540.06	0.664
540.26	0.665
540.46	0.667
540.66	0.665
540.86	0.662
541.05	0.662
541.25	0.663
541.45	0.664
541.65	0.662
541.84	0.664
542.04	0.665
542.24	0.666
542.44	0.666
542.64	0.667
542.83	0.669
543.03	0.670
543.23	0.668
543.43	0.669
543.62	0.669
543.82	0.670
544.02	0.669
544.22	0.669
544.42	0.671
544.61	0.671
544.81	0.669
545.01	0.668
545.21	0.669
545.40	0.670
545.60	0.668
545.80	0.671
546.00	0.672
546.19	0.672
546.39	0.671
546.59	0.669
546.79	0.670
546.98	0.670
547.18	0.670
547.38	0.671
547.58	0.674
547.77	0.673
547.97	0.669
548.17	0.670
548.37	0.670
548.56	0.670
548.76	0.669
548.96	0.671
549.16	0.673
549.35	0.672
549.55	0.670
549.75	0.670
549.95	0.674
550.14	0.674
550.34	0.673
550.54	0.678
550.73	0.681
550.93	0.681
551.13	0.679
551.33	0.678
551.52	0.678
551.72	0.680
551.92	0.678
552.12	0.678
552.31	0.679
552.51	0.679
552.71	0.675
552.90	0.675
553.10	0.675
553.30	0.675
553.50	0.675
553.69	0.676
553.89	0.677
554.09	0.676
554.28	0.674
554.48	0.674
554.68	0.676
554.87	0.675
555.07	0.672
555.27	0.673
555.47	0.674
555.66	0.675
555.86	0.673
556.06	0.674
556.25	0.676
556.45	0.683
556.65	0.681
556.84	0.684
557.04	0.687
557.24	0.689
557.43	0.689
557.63	0.692
557.83	0.694
558.02	0.694
558.22	0.699
558.42	0.700
558.61	0.693
558.81	0.694
559.01	0.690
559.21	0.690
559.40	0.691
559.60	0.691
559.80	0.687
559.99	0.688
560.19	0.690
560.39	0.684
560.58	0.682
560.78	0.682
560.97	0.685
561.17	0.684
561.37	0.682
561.56	0.682
561.76	0.683
561.96	0.683
562.15	0.681
562.35	0.683
562.55	0.683
562.74	0.683
562.94	0.682
563.14	0.680
563.33	0.681
563.53	0.681
563.73	0.678
563.92	0.680
564.12	0.683
564.31	0.685
564.51	0.683
564.71	0.685
564.90	0.688
565.10	0.688
565.30	0.691
565.49	0.692
565.69	0.694
565.89	0.695
566.08	0.692
566.28	0.694
566.47	0.695
566.67	0.693
566.87	0.691
567.06	0.693
567.26	0.700
567.46	0.696
567.65	0.695
567.85	0.698
568.04	0.701
568.24	0.700
568.44	0.697
568.63	0.696
568.83	0.698
569.02	0.696
569.22	0.692
569.42	0.688
569.61	0.690
569.81	0.688
570.00	0.685
570.20	0.686
570.40	0.687
570.59	0.687
570.79	0.685
570.98	0.683
571.18	0.684
571.38	0.683
571.57	0.681
571.77	0.679
571.96	0.682
572.16	0.680
572.35	0.675
572.55	0.676
572.75	0.674
572.94	0.673
573.14	0.672
573.33	0.672
573.53	0.673
573.73	0.672
573.92	0.670
574.12	0.669
574.31	0.671
574.51	0.673
574.70	0.670
574.90	0.672
575.09	0.674
575.29	0.675
575.49	0.672
575.68	0.672
575.88	0.673
576.07	0.675
576.27	0.673
576.46	0.671
576.66	0.670
576.86	0.669
577.05	0.666
577.25	0.665
577.44	0.666
577.64	0.666
577.83	0.665
578.03	0.666
578.22	0.665
578.42	0.664
578.61	0.663
578.81	0.664
579.00	0.664
579.20	0.664
579.40	0.663
579.59	0.661
579.79	0.661
579.98	0.661
580.18	0.660
580.37	0.660
580.57	0.662
580.76	0.666
580.96	0.665
581.15	0.665
581.35	0.667
581.54	0.667
581.74	0.666
581.93	0.668
582.13	0.669
582.32	0.666
582.52	0.664
582.71	0.664
582.91	0.660
583.10	0.659
583.30	0.658
583.49	0.657
583.69	0.661
583.88	0.662
584.08	0.661
584.27	0.664
584.47	0.666
584.66	0.667
584.86	0.667
585.05	0.670
585.25	0.673
585.44	0.672
585.64	0.671
585.83	0.667
586.03	0.668
586.22	0.666
586.42	0.662
586.61	0.664
586.81	0.666
587.00	0.665
587.20	0.663
587.39	0.663
587.59	0.665
587.78	0.666
587.98	0.667
588.17	0.668
588.37	0.670
588.56	0.672
588.76	0.668
588.95	0.668
589.15	0.671
589.34	0.674
589.54	0.673
589.73	0.674
589.92	0.677
590.12	0.677
590.31	0.675
590.51	0.680
590.70	0.681
590.90	0.682
591.09	0.680
591.29	0.679
591.48	0.678
591.68	0.679
591.87	0.677
592.06	0.676
592.26	0.679
592.45	0.678
592.65	0.672
592.84	0.671
593.04	0.673
593.23	0.675
593.43	0.672
593.62	0.672
593.81	0.672
594.01	0.672
594.20	0.670
594.40	0.668
594.59	0.670
594.79	0.672
594.98	0.671
595.17	0.670
595.37	0.671
595.56	0.673
595.76	0.672
595.95	0.674
596.14	0.677
596.34	0.678
596.53	0.677
596.73	0.679
596.92	0.680
597.12	0.683
597.31	0.683
597.50	0.682
597.70	0.685
597.89	0.684
598.09	0.680
598.28	0.681
598.47	0.683
598.67	0.681
598.86	0.678
599.06	0.680
599.25	0.679
599.44	0.678
599.64	0.675
599.83	0.672
600.03	0.674
600.22	0.675
600.41	0.675
600.61	0.673
600.80	0.675
601.00	0.675
601.19	0.671
601.38	0.670
601.58	0.672
601.77	0.673
601.96	0.675
602.16	0.675
602.35	0.683
602.55	0.681
602.74	0.682
602.93	0.684
603.13	0.689
603.32	0.690
603.51	0.690
603.71	0.693
603.90	0.695
604.09	0.696
604.29	0.695
604.48	0.690
604.68	0.692
604.87	0.690
605.06	0.687
605.26	0.684
605.45	0.684
605.64	0.683
605.84	0.679
606.03	0.678
606.22	0.676
606.42	0.676
606.61	0.672
606.80	0.672
607.00	0.674
607.19	0.673
607.38	0.672
607.58	0.673
607.77	0.675
607.96	0.675
608.16	0.674
608.35	0.678
608.54	0.681
608.74	0.683
608.93	0.688
609.12	0.691
609.32	0.693
609.51	0.696
609.70	0.695
609.90	0.697
610.09	0.702
610.28	0.707
610.48	0.700
610.67	0.702
610.86	0.703
611.06	0.698
611.25	0.696
611.44	0.697
611.64	0.697
611.83	0.700
612.02	0.696
612.21	0.696
612.41	0.695
612.60	0.693
612.79	0.690
612.99	0.689
613.18	0.691
613.37	0.689
613.57	0.686
613.76	0.687
613.95	0.685
614.14	0.684
614.34	0.681
614.53	0.682
614.72	0.685
614.92	0.685
615.11	0.683
615.30	0.680
615.49	0.681
615.69	0.683
615.88	0.680
616.07	0.681
616.26	0.683
616.46	0.685
616.65	0.682
616.84	0.680
617.04	0.682
617.23	0.685
617.42	0.686
617.61	0.689
617.81	0.690
618.00	0.692
618.19	0.691
618.38	0.695
618.58	0.697
618.77	0.698
618.96	0.698
619.15	0.700
619.35	0.701
619.54	0.702
619.73	0.698
619.92	0.700
620.12	0.705
620.31	0.705
620.50	0.700
620.69	0.700
620.89	0.703
621.08	0.702
621.27	0.703
621.46	0.701
621.66	0.704
621.85	0.704
622.04	0.701
622.23	0.702
622.43	0.702
622.62	0.702
622.81	0.701
623.00	0.702
623.19	0.705
623.39	0.704
623.58	0.702
623.77	0.701
623.96	0.704
624.16	0.703
624.35	0.698
624.54	0.701
624.73	0.705
624.92	0.703
625.12	0.700
625.31	0.700
625.50	0.702
625.69	0.702
625.88	0.698
626.08	0.698
626.27	0.700
626.46	0.700
626.65	0.696
626.84	0.696
627.04	0.700
627.23	0.701
627.42	0.697
627.61	0.699
627.80	0.701
628.00	0.702
628.19	0.700
628.38	0.703
628.57	0.705
628.76	0.705
628.96	0.702
629.15	0.703
629.34	0.706
629.53	0.706
629.72	0.701
629.91	0.701
630.11	0.706
630.30	0.706
630.49	0.710
630.68	0.710
630.87	0.714
631.06	0.717
631.26	0.712
631.45	0.714
631.64	0.722
631.83	0.724
632.02	0.722
632.21	0.720
632.41	0.726
632.60	0.720
632.79	0.719
632.98	0.719
633.17	0.719
633.36	0.721
633.55	0.717
633.75	0.713
633.94	0.714
634.13	0.713
634.32	0.711
634.51	0.706
634.70	0.708
634.89	0.707
635.09	0.704
635.28	0.705
635.47	0.706
635.66	0.709
635.85	0.705
636.04	0.706
636.23	0.711
636.43	0.713
636.62	0.712
636.81	0.710
637.00	0.711
637.19	0.715
637.38	0.712
637.57	0.711
637.76	0.712
637.95	0.713
638.15	0.709
638.34	0.706
638.53	0.709
638.72	0.710
638.91	0.707
639.10	0.707
639.29	0.706
639.48	0.706
639.67	0.707
639.87	0.705
640.06	0.711
640.25	0.711
640.44	0.712
640.63	0.712
640.82	0.714
641.01	0.715
641.20	0.714
641.39	0.716
641.58	0.718
641.78	0.717
641.97	0.713
642.16	0.727
642.35	0.728
642.54	0.727
642.73	0.722
642.92	0.720
643.11	0.723
643.30	0.723
643.49	0.719
643.68	0.721
643.87	0.722
644.06	0.722
644.25	0.702
644.45	0.704
644.64	0.705
644.83	0.706
645.02	0.703
645.21	0.703
645.40	0.705
645.59	0.704
645.78	0.698
645.97	0.701
646.16	0.701
646.35	0.701
646.54	0.699
646.73	0.701
646.92	0.702
647.11	0.703
647.30	0.698
647.49	0.700
647.68	0.699
647.88	0.698
648.07	0.691
648.26	0.694
648.45	0.695
648.64	0.692
648.83	0.690
649.02	0.692
649.21	0.702
649.40	0.701
649.59	0.696
649.78	0.697
649.97	0.711
650.16	0.711
650.35	0.704
650.54	0.707
650.73	0.715
650.92	0.711
651.11	0.704
651.30	0.701
651.49	0.706
651.68	0.707
651.87	0.704
652.06	0.694
652.25	0.698
652.44	0.702
652.63	0.701
652.82	0.702
653.01	0.704
653.20	0.702
653.39	0.691
653.58	0.689
653.77	0.687
653.96	0.683
654.15	0.675
654.34	0.673
654.53	0.668
654.72	0.661
654.91	0.652
655.10	0.647
655.29	0.645
655.48	0.643
655.67	0.638
655.86	0.635
656.05	0.633
656.24	0.632
656.43	0.627
656.62	0.626
656.81	0.625
657.00	0.622
657.19	0.619
657.38	0.617
657.57	0.617
657.76	0.618
657.95	0.615
658.14	0.618
658.33	0.621
658.51	0.625
658.70	0.625
658.89	0.627
659.08	0.636
659.27	0.644
659.46	0.645
659.65	0.652
659.84	0.655
660.03	0.660
660.22	0.661
660.41	0.666
660.60	0.665
660.79	0.666
660.98	0.673
661.17	0.671
661.36	0.672
661.55	0.673
661.74	0.671
661.92	0.674
662.11	0.675
662.30	0.673
662.49	0.666
662.68	0.666
662.87	0.669
663.06	0.663
663.25	0.664
663.44	0.664
663.63	0.665
663.82	0.663
664.01	0.659
664.20	0.658
664.38	0.659
664.57	0.660
664.76	0.660
664.95	0.660
665.14	0.664
665.33	0.659
665.52	0.666
665.71	0.669
665.90	0.669
666.09	0.670
666.28	0.667
666.46	0.666
666.65	0.666
666.84	0.664
667.03	0.659
667.22	0.657
667.41	0.660
667.60	0.649
667.79	0.643
667.98	0.645
668.16	0.646
668.35	0.646
668.54	0.643
668.73	0.644
668.92	0.645
669.11	0.645
669.30	0.639
669.49	0.635
669.67	0.637
669.86	0.639
670.05	0.637
670.24	0.634
670.43	0.632
670.62	0.631
670.81	0.626
671.00	0.627
671.18	0.626
671.37	0.626
671.56	0.624
671.75	0.624
671.94	0.621
672.13	0.619
672.32	0.615
672.50	0.614
672.69	0.613
672.88	0.614
673.07	0.610
673.26	0.612
673.45	0.613
673.63	0.612
673.82	0.609
674.01	0.610
674.20	0.610
674.39	0.610
674.58	0.610
674.76	0.610
674.95	0.609
675.14	0.609
675.33	0.605
675.52	0.604
675.71	0.603
675.89	0.603
676.08	0.599
676.27	0.599
676.46	0.599
676.65	0.598
676.84	0.597
677.02	0.598
677.21	0.601
677.40	0.600
677.59	0.597
677.78	0.598
677.96	0.601
678.15	0.600
678.34	0.598
678.53	0.599
678.72	0.599
678.90	0.596
679.09	0.592
679.28	0.589
679.47	0.589
679.66	0.589
679.84	0.585
680.03	0.583
680.22	0.581
680.41	0.583
680.60	0.579
680.78	0.578
680.97	0.580
681.16	0.579
681.35	0.578
681.53	0.578
681.72	0.578
681.91	0.580
682.10	0.578
682.29	0.581
682.47	0.578
682.66	0.577
682.85	0.576
683.04	0.574
683.22	0.574
683.41	0.576
683.60	0.575
683.79	0.576
683.97	0.575
684.16	0.575
684.35	0.570
684.54	0.573
684.72	0.573
684.91	0.574
685.10	0.573
685.29	0.574
685.47	0.571
685.66	0.570
685.85	0.567
686.04	0.566
686.22	0.567
686.41	0.570
686.60	0.567
686.79	0.571
686.97	0.571
687.16	0.572
687.35	0.569
687.54	0.573
687.72	0.576
687.91	0.576
688.10	0.578
688.29	0.578
688.47	0.576
688.66	0.575
688.85	0.571
689.03	0.570
689.22	0.574
689.41	0.575
689.60	0.570
689.78	0.567
689.97	0.568
690.16	0.565
690.34	0.561
690.53	0.561
690.72	0.561
690.91	0.559
691.09	0.557
691.28	0.552
691.47	0.550
691.65	0.549
691.84	0.546
692.03	0.545
692.21	0.543
692.40	0.543
692.59	0.540
692.77	0.539
692.96	0.540
693.15	0.541
693.34	0.538
693.52	0.538
693.71	0.539
693.90	0.540
694.08	0.540
694.27	0.541
694.46	0.550
694.64	0.551
694.83	0.550
695.02	0.550
695.20	0.550
695.39	0.549
695.58	0.549
695.76	0.549
695.95	0.548
696.14	0.547
696.32	0.545
696.51	0.536
696.70	0.536
696.88	0.537
697.07	0.536
697.26	0.537
697.44	0.539
697.63	0.538
697.81	0.536
698.00	0.535
698.19	0.535
698.37	0.535
698.56	0.534
698.75	0.535
698.93	0.534
699.12	0.533
699.31	0.533
699.49	0.532
699.68	0.533
699.87	0.535
700.05	0.536
700.24	0.535
700.42	0.537
700.61	0.536
700.80	0.534
700.98	0.535
701.17	0.536
701.36	0.534
701.54	0.534
701.73	0.535
701.91	0.533
702.10	0.532
702.29	0.530
702.47	0.529
702.66	0.531
702.84	0.532
703.03	0.530
703.22	0.531
703.40	0.531
703.59	0.532
703.77	0.532
703.96	0.532
704.15	0.532
704.33	0.533
704.52	0.532
704.70	0.531
704.89	0.530
705.08	0.530
705.26	0.526
705.45	0.526
705.63	0.525
705.82	0.522
706.00	0.521
706.19	0.521
706.38	0.521
706.56	0.520
706.75	0.518
706.93	0.518
707.12	0.519
707.30	0.519
707.49	0.517
707.68	0.515
707.86	0.514
708.05	0.514
708.23	0.511
708.42	0.512
708.60	0.514
708.79	0.513
708.98	0.512
709.16	0.511
709.35	0.512
709.53	0.516
709.72	0.515
709.90	0.517
710.09	0.518
710.27	0.520
710.46	0.524
710.64	0.522
710.83	0.524
711.02	0.526
711.20	0.525
711.39	0.523
711.57	0.521
711.76	0.522
711.94	0.520
712.13	0.522
712.31	0.521
712.50	0.517
712.68	0.514
712.87	0.515
713.05	0.515
713.24	0.515
713.42	0.514
713.61	0.515
713.79	0.515
713.98	0.516
714.16	0.517
714.35	0.516
714.54	0.517
714.72	0.517
714.91	0.515
715.09	0.522
715.28	0.525
715.46	0.525
715.65	0.522
715.83	0.522
716.02	0.524
716.20	0.520
716.39	0.520
716.57	0.522
716.76	0.524
716.94	0.524
717.12	0.517
717.31	0.518
717.49	0.521
717.68	0.522
717.86	0.522
718.05	0.523
718.23	0.526
718.42	0.528
718.60	0.529
718.79	0.536
718.97	0.539
719.16	0.539
719.34	0.537
719.53	0.537
719.71	0.537
719.90	0.538
720.08	0.535
720.27	0.536
720.45	0.535
720.63	0.535
720.82	0.529
721.00	0.531
721.19	0.533
721.37	0.533
721.56	0.533
721.74	0.535
721.93	0.543
722.11	0.549
722.30	0.549
722.48	0.553
722.66	0.553
722.85	0.553
723.03	0.554
723.22	0.553
723.40	0.555
723.59	0.556
723.77	0.560
723.95	0.554
724.14	0.557
724.32	0.558
724.51	0.558
724.69	0.559
724.88	0.559
725.06	0.557
725.24	0.558
725.43	0.559
725.61	0.562
725.80	0.556
725.98	0.554
726.16	0.550
726.35	0.556
726.53	0.555
726.72	0.554
726.90	0.564
727.09	0.566
727.27	0.571
727.45	0.567
727.64	0.576
727.82	0.584
728.01	0.588
728.19	0.585
728.37	0.590
728.56	0.595
728.74	0.600
728.92	0.589
729.11	0.592
729.29	0.590
729.48	0.593
729.66	0.583
729.84	0.582
730.03	0.585
730.21	0.587
730.40	0.577
730.58	0.575
730.76	0.576
730.95	0.578
731.13	0.577
731.31	0.591
731.50	0.599
731.68	0.602
731.86	0.600
732.05	0.615
732.23	0.619
732.42	0.622
732.60	0.626
732.78	0.631
732.97	0.649
733.15	0.657
733.33	0.646
733.52	0.653
733.70	0.662
733.88	0.672
734.07	0.658
734.25	0.684
734.43	0.693
734.62	0.696
734.80	0.692
734.98	0.680
735.17	0.686
735.35	0.692
735.53	0.683
735.72	0.687
735.90	0.704
736.08	0.721
736.27	0.698
736.45	0.706
736.63	0.717
736.82	0.726
737.00	0.728
737.18	0.738
737.37	0.766
737.55	0.787
737.73	0.783
737.92	0.786
738.10	0.782
738.28	0.799
738.46	0.790
738.65	0.802
738.83	0.821
739.01	0.871
739.20	0.860
739.38	0.843
739.56	0.834
739.75	0.838
739.93	0.809
740.11	0.832
740.29	0.830
740.48	0.835
740.66	0.815
740.84	0.810
741.03	0.774
741.21	0.786
741.39	0.769
741.57	0.781
741.76	0.793
741.94	0.799
742.12	0.769
742.31	0.777
742.49	0.795
742.67	0.821
742.85	0.836
743.04	0.844
743.22	0.850
743.40	0.903
743.58	0.888
743.77	0.909
743.95	0.937
744.13	0.979
744.31	0.964
744.50	0.954
744.68	0.945
744.86	0.920
745.04	0.928
745.23	0.995
745.41	0.976
745.59	0.975
745.77	0.944
745.96	0.932
746.14	0.944
746.32	0.938
746.50	0.934
746.69	0.924
746.87	0.925
747.05	0.910
747.23	0.838
747.42	0.821
747.60	0.845
747.78	0.848
747.96	0.873
748.14	0.833
748.33	0.855
748.51	0.849
748.69	0.840
748.87	0.873
749.06	0.870
749.24	0.866
749.42	0.860
749.60	0.847
749.78	0.855
749.97	0.819
750.15	0.812
750.33	0.816
750.51	0.837
750.69	0.842
750.88	0.838
751.06	0.845
751.24	0.868
751.42	0.855
751.60	0.848
751.79	0.910
751.97	0.948
752.15	0.951
752.33	0.921
752.51	0.976
752.69	0.986
752.88	0.966
753.06	1.009
753.24	0.992
753.42	1.028
753.60	1.169
753.78	1.046
753.97	1.065
754.15	1.072
754.33	1.099
754.51	0.994
754.69	0.988
754.87	1.012
755.06	0.952
755.24	0.950
755.42	0.956
755.60	0.862
755.78	0.870
755.96	0.819
756.15	0.825
756.33	0.827
756.51	0.842
756.69	0.830
756.87	0.800
757.05	0.815
757.23	0.802
757.42	0.773
757.60	0.775
757.78	0.764
757.96	0.763
758.14	0.747
758.32	0.733
758.50	0.744
758.69	0.742
758.87	0.734
759.05	0.738
759.23	0.746
759.41	0.748
759.59	0.741
759.77	0.760
759.95	0.782
760.13	0.823
760.32	0.823
760.50	0.818
760.68	0.837
760.86	0.840
761.04	0.815
761.22	0.818
761.40	0.859
761.58	0.861
761.76	0.838
761.95	0.822
762.13	0.784
762.31	0.783
762.49	0.755
762.67	0.772
762.85	0.780
763.03	0.777
763.21	0.760
763.39	0.741
763.57	0.740
763.75	0.734
763.94	0.723
764.12	0.724
764.30	0.746
764.48	0.752
764.66	0.719
764.84	0.718
765.02	0.751
765.20	0.758
765.38	0.741
765.56	0.748
765.74	0.787
765.92	0.788
766.10	0.798
766.28	0.788
766.46	0.814
766.65	0.817
766.83	0.806
767.01	0.793
767.19	0.799
767.37	0.801
767.55	0.789
767.73	0.767
767.91	0.768
768.09	0.757
768.27	0.751
768.45	0.739
768.63	0.742
768.81	0.745
768.99	0.719
769.17	0.741
769.35	0.751
769.53	0.749
769.71	0.731
769.89	0.739
770.07	0.741
770.25	0.724
770.43	0.706
770.61	0.726
770.79	0.726
770.97	0.735
771.15	0.707
771.33	0.710
771.51	0.712
771.69	0.721
771.87	0.729
772.05	0.733
772.24	0.739
772.42	0.749
772.60	0.733
772.78	0.787
772.96	0.807
773.14	0.805
773.32	0.785
773.49	0.791
773.67	0.794
773.85	0.777
774.03	0.770
774.21	0.798
774.39	0.806
774.57	0.825
774.75	0.766
774.93	0.763
775.11	0.781
775.29	0.789
775.47	0.793
775.65	0.794
775.83	0.808
776.01	0.829
776.19	0.787
776.37	0.788
776.55	0.787
776.73	0.778
776.91	0.777
777.09	0.761
777.27	0.757
777.45	0.744
777.63	0.727
777.81	0.722
777.99	0.706
778.17	0.706
778.35	0.688
778.53	0.676
778.71	0.683
778.89	0.671
779.07	0.664
779.24	0.668
779.42	0.671
779.60	0.689
779.78	0.688
779.96	0.693
780.14	0.700
780.32	0.719
780.50	0.705
780.68	0.703
780.86	0.697
781.04	0.715
781.22	0.720
781.40	0.728
781.58	0.717
781.75	0.710
781.93	0.695
782.11	0.696
782.29	0.682
782.47	0.682
782.65	0.673
782.83	0.698
783.01	0.690
783.19	0.683
783.37	0.671
783.55	0.674
783.72	0.688
783.90	0.699
784.08	0.690
784.26	0.702
784.44	0.721
784.62	0.723
784.80	0.693
784.98	0.698
785.16	0.704
785.33	0.718
785.51	0.708
785.69	0.696
785.87	0.694
786.05	0.705
786.23	0.701
786.41	0.695
786.59	0.700
786.77	0.700
786.94	0.689
787.12	0.691
787.30	0.691
787.48	0.688
787.66	0.679
787.84	0.680
788.02	0.671
788.19	0.670
788.37	0.659
788.55	0.660
788.73	0.661
788.91	0.654
789.09	0.640
789.27	0.629
789.44	0.639
789.62	0.644
789.80	0.653
789.98	0.675
790.16	0.661
790.34	0.658
790.51	0.648
790.69	0.666
790.87	0.673
791.05	0.670
791.23	0.669
791.41	0.669
791.58	0.674
791.76	0.654
791.94	0.627
792.12	0.636
792.30	0.638
792.48	0.637
792.65	0.630
792.83	0.635
793.01	0.642
793.19	0.639
793.37	0.626
793.54	0.624
793.72	0.634
793.90	0.632
794.08	0.621
794.26	0.621
794.43	0.628
794.61	0.614
794.79	0.604
794.97	0.603
795.15	0.607
795.32	0.610
795.50	0.600
795.68	0.595
795.86	0.600
796.04	0.602
796.21	0.599
796.39	0.597
796.57	0.611
796.75	0.618
796.92	0.618
797.10	0.623
797.28	0.626
797.46	0.629
797.64	0.630
797.81	0.638
797.99	0.641
798.17	0.643
798.35	0.637
798.52	0.638
798.70	0.633
798.88	0.641
799.06	0.640
799.23	0.642
799.41	0.650
799.59	0.644
799.77	0.632
799.94	0.640
800.12	0.648
800.30	0.665
800.48	0.665
800.65	0.667
800.83	0.657
801.01	0.650
801.19	0.650
801.36	0.646
801.54	0.650
801.72	0.659
801.90	0.647
802.07	0.645
802.25	0.629
802.43	0.613
802.60	0.610
802.78	0.616
802.96	0.619
803.14	0.614
803.31	0.614
803.49	0.614
803.67	0.609
803.84	0.611
804.02	0.603
804.20	0.607
804.38	0.613
804.55	0.612
804.73	0.600
804.91	0.601
805.08	0.611
805.26	0.607
805.44	0.669
805.61	0.672
805.79	0.672
805.97	0.672
806.15	0.665
806.32	0.659
806.50	0.663
806.68	0.662
806.85	0.656
807.03	0.647
807.21	0.661
807.38	0.598
807.56	0.589
807.74	0.599
807.91	0.604
808.09	0.607
808.27	0.624
808.44	0.649
808.62	0.657
808.80	0.659
808.97	0.655
809.15	0.650
809.33	0.664
809.50	0.670
809.68	0.658
809.86	0.667
810.03	0.695
810.21	0.678
810.39	0.661
810.56	0.667
810.74	0.688
810.91	0.753
811.09	0.744
811.27	0.763
811.44	0.766
811.62	0.767
811.80	0.751
811.97	0.723
812.15	0.722
812.33	0.719
812.50	0.706
812.68	0.694
812.85	0.643
813.03	0.647
813.21	0.618
813.38	0.614
813.56	0.617
813.74	0.627
813.91	0.634
814.09	0.659
814.26	0.650
814.44	0.653
814.62	0.644
814.79	0.646
814.97	0.648
815.14	0.653
815.32	0.661
815.50	0.675
815.67	0.677
815.85	0.669
816.02	0.662
816.20	0.670
816.38	0.682
816.55	0.688
816.73	0.689
816.90	0.700
817.08	0.726
817.26	0.726
817.43	0.709
817.61	0.733
817.78	0.749
817.96	0.728
818.13	0.719
818.31	0.720
818.49	0.731
818.66	0.721
818.84	0.708
819.01	0.688
819.19	0.693
819.36	0.693
819.54	0.666
819.71	0.705
819.89	0.718
820.07	0.729
820.24	0.726
820.42	0.726
820.59	0.742
820.77	0.763
820.94	0.758
821.12	0.776
821.29	0.788
821.47	0.789
821.64	0.730
821.82	0.741
822.00	0.740
822.17	0.737
822.35	0.730
822.52	0.735
822.70	0.725
822.87	0.729
823.05	0.711
823.22	0.721
823.40	0.743
823.57	0.768
823.75	0.751
823.92	0.771
824.10	0.788
824.27	0.826
824.45	0.820
824.62	0.878
824.80	0.900
824.97	0.911
825.15	0.904
825.32	0.913
825.50	0.902
825.67	0.912
825.85	0.891
826.02	0.902
826.20	0.913
826.37	1.014
826.55	0.946
826.72	1.100
826.90	1.150
827.07	1.187
827.25	1.150
827.42	1.278
827.60	1.382
827.77	1.521
827.95	1.511
828.12	1.593
828.30	1.309
828.47	1.384
828.65	1.105
828.82	1.139
829.00	1.177
829.17	1.238
829.34	1.251
829.52	1.254
829.69	-0.000
829.87	-0.000
830.04	-0.000
830.22	-0.000
830.39	-0.000
830.57	-0.000
830.74	-0.000
830.92	-0.000
831.09	-0.000
831.26	-0.000
831.44	-0.000
831.61	-0.000
831.79	-0.000
831.96	-0.000
832.14	-0.000
832.31	-0.000
832.49	-0.000
832.66	-0.000
832.83	-0.000
833.01	-0.000
833.18	-0.000
833.36	-0.000
833.53	-0.000
833.70	-0.000
833.88	-0.000
834.05	-0.000
834.23	-0.000
834.40	-0.000
834.58	-0.000
834.75	-0.000
834.92	-0.000
835.10	-0.000
835.27	-0.000
835.45	-0.000
835.62	-0.000
835.79	-0.000
835.97	-0.000
836.14	-0.000
836.32	-0.000
836.49	-0.000
836.66	-0.000
836.84	-0.000
837.01	-0.000
837.18	-0.000
837.36	-0.000
837.53	-0.000
837.71	-0.000
837.88	-0.000
838.05	-0.000
838.23	-0.000
838.40	-0.000
838.58	-0.000
838.75	-0.000
838.92	-0.000
839.10	-0.000
839.27	-0.000
839.44	-0.000
839.62	-0.000
839.79	-0.000
839.96	-0.000
840.14	-0.000
840.31	-0.000
840.48	-0.000
840.66	-0.000
840.83	-0.000
841.01	-0.000
841.18	-0.000
841.35	-0.000
841.53	-0.000
841.70	-0.000
841.87	-0.000
842.05	-0.000
842.22	-0.000
842.39	-0.000
842.57	-0.000
842.74	-0.000
842.91	-0.000
843.09	-0.000
843.26	-0.000
843.43	-0.000
843.60	-0.000
843.78	-0.000
843.95	-0.000
844.12	-0.000
844.30	-0.000
844.47	-0.000
844.64	-0.000
844.82	-0.000
844.99	-0.000
845.16	-0.000
845.34	-0.000
845.51	-0.000
845.68	-0.000
845.85	-0.000
846.03	-0.000
846.20	-0.000
846.37	-0.000
846.55	-0.000
846.72	-0.000
846.89	-0.000
847.06	-0.000
847.24	-0.000
847.41	-0.000
847.58	-0.000
847.76	-0.000
847.93	-0.000
848.10	-0.000
848.27	-0.000
848.45	-0.000
848.62	-0.000
848.79	-0.000
848.97	-0.000
849.14	-0.000
849.31	-0.000
849.48	-0.000
849.66	-0.000
849.83	-0.000
850.00	-0.000
850.17	-0.000
850.35	-0.000
850.52	-0.000
850.69	-0.000
850.86	-0.000
851.04	-0.000
851.21	-0.000
851.38	-0.000
851.55	-0.000
851.72	-0.000
851.90	-0.000
852.07	-0.000
852.24	-0.000
852.41	-0.000
852.59	-0.000
852.76	-0.000
852.93	-0.000
853.10	-0.000
853.28	-0.000
853.45	-0.000
853.62	-0.000
853.79	-0.000
853.96	-0.000
854.14	-0.000
854.31	-0.000
854.48	-0.000
854.65	-0.000
854.82	-0.000
855.00	-0.000
855.17	-0.000
855.34	-0.000
855.51	-0.000
855.68	-0.000
855.86	-0.000
856.03	-0.000
856.20	-0.000
856.37	-0.000
856.54	-0.000
856.72	-0.000
856.89	-0.000
857.06	-0.000
857.23	-0.000
857.40	-0.000
857.57	-0.000
857.75	-0.000
857.92	-0.000
858.09	-0.000
858.26	-0.000
858.43	-0.000
858.60	-0.000
858.78	-0.000
858.95	-0.000
859.12	-0.000
859.29	-0.000
859.46	-0.000
859.63	-0.000
859.81	-0.000
859.98	-0.000
860.15	-0.000
860.32	-0.000
860.49	-0.000
860.66	-0.000
860.83	-0.000
861.01	-0.000
861.18	-0.000
861.35	-0.000
861.52	-0.000
861.69	-0.000
861.86	-0.000
862.03	-0.000
862.21	-0.000
862.38	-0.000
862.55	-0.000
862.72	-0.000
862.89	-0.000
863.06	-0.000
863.23	-0.000
863.40	-0.000
863.58	-0.000
863.75	-0.000
863.92	-0.000
864.09	-0.000
864.26	-0.000
864.43	-0.000
864.60	-0.000
864.77	-0.000
864.94	-0.000
865.11	-0.000
865.29	-0.000
865.46	-0.000
865.63	-0.000
865.80	-0.000
865.97	-0.000
866.14	-0.000
866.31	-0.000
866.48	-0.000
866.65	-0.000
866.82	-0.000
866.99	-0.000
867.16	-0.000
867.34	-0.000
867.51	-0.000
867.68	-0.000
867.85	-0.000
868.02	-0.000
868.19	-0.000
868.36	-0.000
868.53	-0.000
868.70	-0.000
868.87	-0.000
869.04	-0.000
869.21	-0.000
869.38	-0.000
869.55	-0.000
869.72	-0.000
869.89	-0.000
870.06	-0.000
870.24	-0.000
870.41	-0.000
870.58	-0.000
870.75	-0.000
870.92	-0.000
871.09	-0.000
871.26	-0.000
871.43	-0.000
871.60	-0.000
871.77	-0.000
871.94	-0.000
872.11	-0.000
872.28	-0.000
872.45	-0.000
872.62	-0.000
872.79	-0.000
872.96	-0.000
873.13	-0.000
873.30	-0.000
873.47	-0.000
873.64	-0.000
873.81	-0.000
873.98	-0.000
874.15	-0.000
874.32	-0.000
874.49	-0.000
874.66	-0.000
874.83	-0.000
875.00	-0.000
875.17	-0.000
875.34	-0.000
875.51	-0.000
875.68	-0.000
875.85	-0.000
876.02	-0.000
876.19	-0.000
876.36	-0.000
876.53	-0.000
876.70	-0.000
876.87	-0.000
877.04	-0.000
877.21	-0.000
877.38	-0.000
877.55	-0.000
877.72	-0.000
877.89	-0.000
878.06	-0.000
878.23	-0.000
878.39	-0.000
878.56	-0.000
878.73	-0.000
878.90	-0.000
879.07	-0.000
879.24	-0.000
879.41	-0.000
879.58	-0.000
879.75	-0.000
879.92	-0.000
880.09	-0.000
880.26	-0.000
880.43	-0.000
880.60	-0.000
880.77	-0.000
880.94	-0.000
881.11	-0.000
881.27	-0.000
881.44	-0.000
881.61	-0.000
881.78	-0.000
881.95	-0.000
882.12	-0.000
882.29	-0.000
882.46	-0.000
882.63	-0.000
882.80	-0.000
882.97	-0.000
883.14	-0.000
883.30	-0.000
883.47	-0.000
883.64	-0.000
883.81	-0.000
883.98	-0.000
884.15	-0.000
884.32	-0.000
884.49	-0.000
884.66	-0.000
884.82	-0.000
884.99	-0.000
885.16	-0.000
885.33	-0.000
885.50	-0.000
885.67	-0.000
885.84	-0.000
886.01	-0.000
886.17	-0.000
886.34	-0.000
886.51	-0.000
886.68	-0.000
886.85	-0.000
887.02	-0.000
887.19	-0.000
887.36	-0.000
887.52	-0.000
887.69	-0.000
887.86	-0.000
888.03	-0.000
888.20	-0.000
888.37	-0.000
888.54	-0.000
888.70	-0.000
888.87	-0.000
889.04	-0.000
889.21	-0.000
889.38	-0.000
889.55	-0.000
889.71	-0.000
889.88	-0.000
890.05	-0.000
890.22	-0.000
890.39	-0.000
>>>>>End Processed Spectral Data<<<<<
