SpectraSuite Data File
++++++++++++++++++++++++++++++++++++
Date: Fri Jun 19 13:45:46 CEST 2015
User: introlabs
Dark Spectrum Present: Yes
Reference Spectrum Present: Yes
Number of Sampled Component Spectra: 1
Spectrometers: USB4H08886
Integration Time (usec): 745692 (USB4H08886)
Spectra Averaged: 5 (USB4H08886)
Boxcar Smoothing: 5 (USB4H08886)
Correct for Electrical Dark: Yes (USB4H08886)
Strobe/Lamp Enabled: No (USB4H08886)
Correct for Detector Non-linearity: Yes (USB4H08886)
Correct for Stray Light: Yes (USB4H08886)
Number of Pixels in Processed Spectrum: 3648
>>>>>Begin Processed Spectral Data<<<<<
178.14	-0.000
178.36	-0.000
178.57	-0.000
178.79	-0.000
179.01	-0.000
179.22	-0.000
179.44	-0.000
179.65	-0.000
179.87	-0.000
180.08	-0.000
180.30	-0.000
180.52	-0.000
180.73	-0.000
180.95	-0.000
181.16	-0.000
181.38	-0.000
181.59	-0.000
181.81	-0.000
182.03	-0.000
182.24	-0.000
182.46	-0.000
182.67	-0.000
182.89	-0.000
183.10	-0.000
183.32	-0.000
183.54	-0.000
183.75	-0.000
183.97	-0.000
184.18	-0.000
184.40	-0.000
184.61	-0.000
184.83	-0.000
185.04	-0.000
185.26	-0.000
185.48	-0.000
185.69	-0.000
185.91	-0.000
186.12	-0.000
186.34	-0.000
186.55	-0.000
186.77	-0.000
186.98	-0.000
187.20	-0.000
187.42	-0.000
187.63	-0.000
187.85	-0.000
188.06	-0.000
188.28	-0.000
188.49	-0.000
188.71	-0.000
188.92	-0.000
189.14	-0.000
189.36	-0.000
189.57	-0.000
189.79	-0.000
190.00	-0.000
190.22	-0.000
190.43	-0.000
190.65	-0.000
190.86	-0.000
191.08	-0.000
191.29	-0.000
191.51	-0.000
191.72	-0.000
191.94	-0.000
192.16	-0.000
192.37	-0.000
192.59	-0.000
192.80	-0.000
193.02	-0.000
193.23	-0.000
193.45	-0.000
193.66	-0.000
193.88	-0.000
194.09	-0.000
194.31	-0.000
194.52	-0.000
194.74	-0.000
194.95	-0.000
195.17	-0.000
195.38	-0.000
195.60	-0.000
195.81	-0.000
196.03	-0.000
196.25	-0.000
196.46	-0.000
196.68	-0.000
196.89	-0.000
197.11	-0.000
197.32	-0.000
197.54	-0.000
197.75	-0.000
197.97	-0.000
198.18	-0.000
198.40	-0.000
198.61	-0.000
198.83	-0.000
199.04	-0.000
199.26	-0.000
199.47	-0.000
199.69	-0.000
199.90	-0.000
200.12	-0.000
200.33	-0.000
200.55	-0.000
200.76	-0.000
200.98	-0.000
201.19	-0.000
201.41	-0.000
201.62	-0.000
201.84	-0.000
202.05	-0.000
202.27	-0.000
202.48	-0.000
202.70	-0.000
202.91	-0.000
203.13	-0.000
203.34	-0.000
203.56	-0.000
203.77	-0.000
203.99	-0.000
204.20	-0.000
204.42	-0.000
204.63	-0.000
204.85	-0.000
205.06	-0.000
205.28	-0.000
205.49	-0.000
205.71	-0.000
205.92	-0.000
206.14	-0.000
206.35	-0.000
206.56	-0.000
206.78	-0.000
206.99	-0.000
207.21	-0.000
207.42	-0.000
207.64	-0.000
207.85	-0.000
208.07	-0.000
208.28	-0.000
208.50	-0.000
208.71	-0.000
208.93	-0.000
209.14	-0.000
209.36	-0.000
209.57	-0.000
209.79	-0.000
210.00	-0.000
210.22	-0.000
210.43	-0.000
210.64	-0.000
210.86	-0.000
211.07	-0.000
211.29	-0.000
211.50	-0.000
211.72	-0.000
211.93	-0.000
212.15	-0.000
212.36	-0.000
212.58	-0.000
212.79	-0.000
213.01	-0.000
213.22	-0.000
213.43	-0.000
213.65	-0.000
213.86	-0.000
214.08	-0.000
214.29	-0.000
214.51	-0.000
214.72	-0.000
214.94	-0.000
215.15	-0.000
215.36	-0.000
215.58	-0.000
215.79	-0.000
216.01	-0.000
216.22	-0.000
216.44	-0.000
216.65	-0.000
216.87	-0.000
217.08	-0.000
217.29	-0.000
217.51	-0.000
217.72	-0.000
217.94	-0.000
218.15	-0.000
218.37	-0.000
218.58	-0.000
218.80	-0.000
219.01	-0.000
219.22	-0.000
219.44	-0.000
219.65	-0.000
219.87	-0.000
220.08	-0.000
220.30	-0.000
220.51	-0.000
220.72	-0.000
220.94	-0.000
221.15	-0.000
221.37	-0.000
221.58	-0.000
221.79	-0.000
222.01	-0.000
222.22	-0.000
222.44	-0.000
222.65	-0.000
222.87	-0.000
223.08	-0.000
223.29	-0.000
223.51	-0.000
223.72	-0.000
223.94	-0.000
224.15	-0.000
224.36	-0.000
224.58	-0.000
224.79	-0.000
225.01	-0.000
225.22	-0.000
225.44	-0.000
225.65	-0.000
225.86	-0.000
226.08	-0.000
226.29	-0.000
226.51	-0.000
226.72	-0.000
226.93	-0.000
227.15	-0.000
227.36	-0.000
227.58	-0.000
227.79	-0.000
228.00	-0.000
228.22	-0.000
228.43	-0.000
228.65	-0.000
228.86	-0.000
229.07	-0.000
229.29	-0.000
229.50	-0.000
229.72	-0.000
229.93	-0.000
230.14	-0.000
230.36	-0.000
230.57	-0.000
230.78	-0.000
231.00	-0.000
231.21	-0.000
231.43	-0.000
231.64	-0.000
231.85	-0.000
232.07	-0.000
232.28	-0.000
232.50	-0.000
232.71	-0.000
232.92	-0.000
233.14	-0.000
233.35	-0.000
233.56	-0.000
233.78	-0.000
233.99	-0.000
234.21	-0.000
234.42	-0.000
234.63	-0.000
234.85	-0.000
235.06	-0.000
235.27	-0.000
235.49	-0.000
235.70	-0.000
235.91	-0.000
236.13	-0.000
236.34	-0.000
236.56	-0.000
236.77	-0.000
236.98	-0.000
237.20	-0.000
237.41	-0.000
237.62	-0.000
237.84	-0.000
238.05	-0.000
238.26	-0.000
238.48	-0.000
238.69	-0.000
238.91	-0.000
239.12	-0.000
239.33	-0.000
239.55	-0.000
239.76	-0.000
239.97	-0.000
240.19	-0.000
240.40	-0.000
240.61	-0.000
240.83	-0.000
241.04	-0.000
241.25	-0.000
241.47	-0.000
241.68	-0.000
241.89	-0.000
242.11	-0.000
242.32	-0.000
242.53	-0.000
242.75	-0.000
242.96	-0.000
243.17	-0.000
243.39	-0.000
243.60	-0.000
243.81	-0.000
244.03	-0.000
244.24	-0.000
244.45	-0.000
244.67	-0.000
244.88	-0.000
245.09	-0.000
245.31	-0.000
245.52	-0.000
245.73	-0.000
245.95	-0.000
246.16	-0.000
246.37	-0.000
246.59	-0.000
246.80	-0.000
247.01	-0.000
247.23	-0.000
247.44	-0.000
247.65	-0.000
247.87	-0.000
248.08	-0.000
248.29	-0.000
248.51	-0.000
248.72	-0.000
248.93	-0.000
249.15	-0.000
249.36	-0.000
249.57	-0.000
249.78	-0.000
250.00	-0.000
250.21	-0.000
250.42	-0.000
250.64	-0.000
250.85	-0.000
251.06	-0.000
251.28	-0.000
251.49	-0.000
251.70	-0.000
251.92	-0.000
252.13	-0.000
252.34	-0.000
252.55	-0.000
252.77	-0.000
252.98	-0.000
253.19	-0.000
253.41	-0.000
253.62	-0.000
253.83	-0.000
254.05	-0.000
254.26	-0.000
254.47	-0.000
254.68	-0.000
254.90	-0.000
255.11	-0.000
255.32	-0.000
255.54	-0.000
255.75	-0.000
255.96	-0.000
256.17	-0.000
256.39	-0.000
256.60	-0.000
256.81	-0.000
257.03	-0.000
257.24	-0.000
257.45	-0.000
257.66	-0.000
257.88	-0.000
258.09	-0.000
258.30	-0.000
258.51	-0.000
258.73	-0.000
258.94	-0.000
259.15	-0.000
259.37	-0.000
259.58	-0.000
259.79	-0.000
260.00	-0.000
260.22	-0.000
260.43	-0.000
260.64	-0.000
260.85	-0.000
261.07	-0.000
261.28	-0.000
261.49	-0.000
261.71	-0.000
261.92	-0.000
262.13	-0.000
262.34	-0.000
262.56	-0.000
262.77	-0.000
262.98	-0.000
263.19	-0.000
263.41	-0.000
263.62	-0.000
263.83	-0.000
264.04	-0.000
264.26	-0.000
264.47	-0.000
264.68	-0.000
264.89	-0.000
265.11	-0.000
265.32	-0.000
265.53	-0.000
265.74	-0.000
265.96	-0.000
266.17	-0.000
266.38	-0.000
266.59	-0.000
266.81	-0.000
267.02	-0.000
267.23	-0.000
267.44	-0.000
267.65	-0.000
267.87	-0.000
268.08	-0.000
268.29	-0.000
268.50	-0.000
268.72	-0.000
268.93	-0.000
269.14	-0.000
269.35	-0.000
269.57	-0.000
269.78	-0.000
269.99	-0.000
270.20	-0.000
270.41	-0.000
270.63	-0.000
270.84	-0.000
271.05	-0.000
271.26	-0.000
271.48	-0.000
271.69	-0.000
271.90	-0.000
272.11	-0.000
272.32	-0.000
272.54	-0.000
272.75	-0.000
272.96	-0.000
273.17	-0.000
273.39	-0.000
273.60	-0.000
273.81	-0.000
274.02	-0.000
274.23	-0.000
274.45	-0.000
274.66	-0.000
274.87	-0.000
275.08	-0.000
275.29	-0.000
275.51	-0.000
275.72	-0.000
275.93	-0.000
276.14	-0.000
276.35	-0.000
276.57	-0.000
276.78	-0.000
276.99	-0.000
277.20	-0.000
277.41	-0.000
277.63	-0.000
277.84	-0.000
278.05	-0.000
278.26	-0.000
278.47	-0.000
278.69	-0.000
278.90	-0.000
279.11	-0.000
279.32	-0.000
279.53	-0.000
279.74	-0.000
279.96	-0.000
280.17	-0.000
280.38	-0.000
280.59	-0.000
280.80	-0.000
281.02	-0.000
281.23	-0.000
281.44	-0.000
281.65	-0.000
281.86	-0.000
282.07	-0.000
282.29	-0.000
282.50	-0.000
282.71	-0.000
282.92	-0.000
283.13	-0.000
283.35	-0.000
283.56	-0.000
283.77	-0.000
283.98	-0.000
284.19	-0.000
284.40	-0.000
284.62	-0.000
284.83	-0.000
285.04	-0.000
285.25	-0.000
285.46	-0.000
285.67	-0.000
285.88	-0.000
286.10	-0.000
286.31	-0.000
286.52	-0.000
286.73	-0.000
286.94	-0.000
287.15	-0.000
287.37	-0.000
287.58	-0.000
287.79	-0.000
288.00	-0.000
288.21	-0.000
288.42	-0.000
288.63	-0.000
288.85	-0.000
289.06	-0.000
289.27	-0.000
289.48	-0.000
289.69	-0.000
289.90	-0.000
290.11	-0.000
290.33	-0.000
290.54	-0.000
290.75	-0.000
290.96	-0.000
291.17	-0.000
291.38	-0.000
291.59	-0.000
291.81	-0.000
292.02	-0.000
292.23	-0.000
292.44	-0.000
292.65	-0.000
292.86	-0.000
293.07	-0.000
293.28	-0.000
293.50	-0.000
293.71	-0.000
293.92	-0.000
294.13	-0.000
294.34	-0.000
294.55	-0.000
294.76	-0.000
294.97	-0.000
295.19	-0.000
295.40	-0.000
295.61	-0.000
295.82	-0.000
296.03	-0.000
296.24	-0.000
296.45	-0.000
296.66	-0.000
296.87	-0.000
297.09	-0.000
297.30	-0.000
297.51	2.454
297.72	2.260
297.93	2.802
298.14	2.429
298.35	2.214
298.56	2.124
298.77	2.815
298.99	2.463
299.20	2.327
299.41	2.242
299.62	2.098
299.83	2.077
300.04	1.914
300.25	1.865
300.46	1.974
300.67	1.923
300.88	1.813
301.10	1.813
301.31	1.968
301.52	1.832
301.73	1.732
301.94	1.737
302.15	1.759
302.36	1.672
302.57	1.587
302.78	1.597
302.99	1.658
303.20	1.686
303.41	1.541
303.63	1.511
303.84	1.522
304.05	1.507
304.26	1.434
304.47	1.442
304.68	1.452
304.89	1.439
305.10	1.382
305.31	1.361
305.52	1.410
305.73	1.407
305.94	1.361
306.15	1.349
306.37	1.378
306.58	1.382
306.79	1.343
307.00	1.372
307.21	1.421
307.42	1.410
307.63	1.366
307.84	1.327
308.05	1.371
308.26	1.368
308.47	1.338
308.68	1.332
308.89	1.332
309.10	1.327
309.31	1.275
309.52	1.263
309.73	1.281
309.95	1.274
310.16	1.240
310.37	1.224
310.58	1.244
310.79	1.243
311.00	1.237
311.21	1.239
311.42	1.241
311.63	1.236
311.84	1.215
312.05	1.214
312.26	1.239
312.47	1.253
312.68	1.227
312.89	1.210
313.10	1.218
313.31	1.186
313.52	1.188
313.73	1.190
313.94	1.193
314.15	1.171
314.36	1.145
314.57	1.137
314.78	1.123
314.99	1.115
315.21	1.100
315.42	1.106
315.63	1.122
315.84	1.097
316.05	1.081
316.26	1.091
316.47	1.109
316.68	1.106
316.89	1.084
317.10	1.106
317.31	1.113
317.52	1.115
317.73	1.091
317.94	1.089
318.15	1.145
318.36	1.144
318.57	1.123
318.78	1.111
318.99	1.150
319.20	1.147
319.41	1.109
319.62	1.112
319.83	1.127
320.04	1.121
320.25	1.105
320.46	1.061
320.67	1.065
320.88	1.059
321.09	1.045
321.30	1.028
321.51	1.045
321.72	1.044
321.93	1.025
322.14	1.017
322.35	1.047
322.56	1.050
322.77	1.033
322.98	1.044
323.19	1.053
323.40	1.059
323.61	1.037
323.82	1.031
324.03	1.035
324.24	1.033
324.45	1.018
324.66	0.996
324.87	0.991
325.08	0.991
325.29	0.971
325.50	0.969
325.71	0.975
325.92	0.984
326.13	0.970
326.34	0.970
326.55	0.978
326.76	0.977
326.97	0.967
327.18	0.961
327.39	0.989
327.60	0.990
327.80	0.984
328.01	0.982
328.22	0.981
328.43	0.984
328.64	0.972
328.85	0.976
329.06	0.978
329.27	0.977
329.48	0.973
329.69	0.953
329.90	0.963
330.11	0.957
330.32	0.950
330.53	0.942
330.74	0.942
330.95	0.941
331.16	0.925
331.37	0.934
331.58	0.932
331.79	0.931
332.00	0.922
332.21	0.916
332.42	0.920
332.63	0.910
332.83	0.905
333.04	0.906
333.25	0.920
333.46	0.920
333.67	0.904
333.88	0.908
334.09	0.919
334.30	0.916
334.51	0.906
334.72	0.901
334.93	0.906
335.14	0.906
335.35	0.899
335.56	0.893
335.77	0.902
335.98	0.901
336.18	0.894
336.39	0.887
336.60	0.892
336.81	0.888
337.02	0.887
337.23	0.892
337.44	0.895
337.65	0.896
337.86	0.885
338.07	0.880
338.28	0.884
338.49	0.882
338.70	0.874
338.91	0.881
339.11	0.889
339.32	0.885
339.53	0.872
339.74	0.869
339.95	0.867
340.16	0.865
340.37	0.857
340.58	0.856
340.79	0.860
341.00	0.859
341.21	0.847
341.41	0.847
341.62	0.848
341.83	0.849
342.04	0.844
342.25	0.854
342.46	0.859
342.67	0.857
342.88	0.850
343.09	0.848
343.30	0.856
343.50	0.859
343.71	0.850
343.92	0.848
344.13	0.852
344.34	0.851
344.55	0.835
344.76	0.833
344.97	0.838
345.18	0.837
345.38	0.833
345.59	0.828
345.80	0.829
346.01	0.828
346.22	0.823
346.43	0.817
346.64	0.827
346.85	0.826
347.06	0.820
347.26	0.821
347.47	0.825
347.68	0.821
347.89	0.816
348.10	0.810
348.31	0.816
348.52	0.816
348.73	0.813
348.93	0.809
349.14	0.812
349.35	0.811
349.56	0.804
349.77	0.799
349.98	0.806
350.19	0.803
350.39	0.798
350.60	0.794
350.81	0.810
351.02	0.809
351.23	0.803
351.44	0.806
351.65	0.810
351.86	0.808
352.06	0.805
352.27	0.804
352.48	0.806
352.69	0.804
352.90	0.799
353.11	0.786
353.31	0.794
353.52	0.790
353.73	0.780
353.94	0.781
354.15	0.787
354.36	0.787
354.57	0.779
354.77	0.782
354.98	0.782
355.19	0.781
355.40	0.780
355.61	0.785
355.82	0.790
356.02	0.789
356.23	0.782
356.44	0.784
356.65	0.787
356.86	0.787
357.07	0.781
357.27	0.784
357.48	0.788
357.69	0.784
357.90	0.767
358.11	0.764
358.32	0.768
358.52	0.772
358.73	0.761
358.94	0.764
359.15	0.769
359.36	0.769
359.56	0.764
359.77	0.760
359.98	0.768
360.19	0.768
360.40	0.766
360.61	0.766
360.81	0.765
361.02	0.766
361.23	0.757
361.44	0.755
361.65	0.756
361.85	0.756
362.06	0.753
362.27	0.754
362.48	0.754
362.69	0.756
362.89	0.750
363.10	0.751
363.31	0.756
363.52	0.760
363.73	0.755
363.93	0.756
364.14	0.758
364.35	0.760
364.56	0.750
364.77	0.753
364.97	0.755
365.18	0.755
365.39	0.749
365.60	0.746
365.81	0.747
366.01	0.746
366.22	0.742
366.43	0.742
366.64	0.744
366.84	0.750
367.05	0.745
367.26	0.744
367.47	0.747
367.68	0.747
367.88	0.744
368.09	0.741
368.30	0.743
368.51	0.743
368.71	0.741
368.92	0.744
369.13	0.744
369.34	0.744
369.55	0.743
369.75	0.742
369.96	0.749
370.17	0.749
370.38	0.746
370.58	0.747
370.79	0.752
371.00	0.751
371.21	0.742
371.41	0.746
371.62	0.751
371.83	0.746
372.04	0.743
372.24	0.737
372.45	0.739
372.66	0.740
372.87	0.736
373.07	0.733
373.28	0.734
373.49	0.737
373.70	0.728
373.90	0.727
374.11	0.736
374.32	0.736
374.53	0.735
374.73	0.735
374.94	0.738
375.15	0.738
375.36	0.735
375.56	0.744
375.77	0.744
375.98	0.745
376.19	0.741
376.39	0.735
376.60	0.738
376.81	0.738
377.02	0.735
377.22	0.733
377.43	0.733
377.64	0.733
377.84	0.724
378.05	0.729
378.26	0.735
378.47	0.734
378.67	0.731
378.88	0.729
379.09	0.729
379.30	0.730
379.50	0.727
379.71	0.730
379.92	0.733
380.12	0.732
380.33	0.724
380.54	0.720
380.75	0.727
380.95	0.727
381.16	0.725
381.37	0.725
381.57	0.727
381.78	0.727
381.99	0.726
382.20	0.725
382.40	0.729
382.61	0.729
382.82	0.725
383.02	0.719
383.23	0.721
383.44	0.721
383.64	0.719
383.85	0.722
384.06	0.725
384.27	0.723
384.47	0.720
384.68	0.721
384.89	0.727
385.09	0.726
385.30	0.725
385.51	0.724
385.71	0.728
385.92	0.728
386.13	0.726
386.33	0.728
386.54	0.729
386.75	0.728
386.95	0.724
387.16	0.719
387.37	0.722
387.58	0.721
387.78	0.719
387.99	0.716
388.20	0.719
388.40	0.715
388.61	0.711
388.82	0.714
389.02	0.716
389.23	0.716
389.44	0.714
389.64	0.714
389.85	0.725
390.06	0.725
390.26	0.726
390.47	0.725
390.68	0.728
390.88	0.726
391.09	0.721
391.30	0.720
391.50	0.720
391.71	0.720
391.92	0.718
392.12	0.710
392.33	0.711
392.53	0.710
392.74	0.710
392.95	0.708
393.15	0.712
393.36	0.713
393.57	0.711
393.77	0.714
393.98	0.716
394.19	0.716
394.39	0.715
394.60	0.716
394.81	0.718
395.01	0.717
395.22	0.715
395.43	0.715
395.63	0.720
395.84	0.721
396.04	0.717
396.25	0.719
396.46	0.721
396.66	0.719
396.87	0.716
397.08	0.713
397.28	0.716
397.49	0.717
397.69	0.714
397.90	0.709
398.11	0.710
398.31	0.710
398.52	0.706
398.73	0.707
398.93	0.707
399.14	0.706
399.34	0.704
399.55	0.706
399.76	0.705
399.96	0.706
400.17	0.705
400.37	0.704
400.58	0.710
400.79	0.712
400.99	0.709
401.20	0.714
401.41	0.716
401.61	0.718
401.82	0.723
402.02	0.722
402.23	0.724
402.44	0.723
402.64	0.722
402.85	0.717
403.05	0.716
403.26	0.715
403.47	0.709
403.67	0.708
403.88	0.709
404.08	0.703
404.29	0.701
404.50	0.700
404.70	0.701
404.91	0.700
405.11	0.697
405.32	0.698
405.52	0.698
405.73	0.698
405.94	0.696
406.14	0.698
406.35	0.701
406.55	0.700
406.76	0.698
406.97	0.699
407.17	0.702
407.38	0.701
407.58	0.699
407.79	0.702
407.99	0.704
408.20	0.705
408.41	0.700
408.61	0.698
408.82	0.699
409.02	0.699
409.23	0.696
409.43	0.695
409.64	0.696
409.84	0.695
410.05	0.692
410.26	0.690
410.46	0.690
410.67	0.690
410.87	0.691
411.08	0.693
411.28	0.694
411.49	0.696
411.69	0.693
411.90	0.695
412.11	0.697
412.31	0.699
412.52	0.697
412.72	0.698
412.93	0.699
413.13	0.697
413.34	0.693
413.54	0.694
413.75	0.697
413.95	0.696
414.16	0.693
414.37	0.695
414.57	0.695
414.78	0.697
414.98	0.695
415.19	0.696
415.39	0.694
415.60	0.696
415.80	0.696
416.01	0.694
416.21	0.696
416.42	0.696
416.62	0.690
416.83	0.691
417.03	0.690
417.24	0.690
417.44	0.688
417.65	0.687
417.86	0.688
418.06	0.686
418.27	0.685
418.47	0.687
418.68	0.688
418.88	0.689
419.09	0.686
419.29	0.686
419.50	0.687
419.70	0.687
419.91	0.685
420.11	0.682
420.32	0.685
420.52	0.685
420.73	0.683
420.93	0.683
421.14	0.685
421.34	0.684
421.55	0.681
421.75	0.681
421.96	0.683
422.16	0.684
422.37	0.682
422.57	0.679
422.78	0.681
422.98	0.677
423.19	0.675
423.39	0.674
423.60	0.678
423.80	0.679
424.01	0.678
424.21	0.680
424.42	0.681
424.62	0.681
424.83	0.680
425.03	0.681
425.23	0.684
425.44	0.684
425.64	0.684
425.85	0.682
426.05	0.683
426.26	0.684
426.46	0.680
426.67	0.680
426.87	0.685
427.08	0.685
427.28	0.683
427.49	0.684
427.69	0.685
427.90	0.684
428.10	0.681
428.31	0.681
428.51	0.681
428.71	0.681
428.92	0.682
429.12	0.679
429.33	0.680
429.53	0.684
429.74	0.687
429.94	0.687
430.15	0.686
430.35	0.686
430.56	0.683
430.76	0.682
430.96	0.683
431.17	0.680
431.37	0.677
431.58	0.675
431.78	0.672
431.99	0.665
432.19	0.667
432.40	0.669
432.60	0.670
432.80	0.673
433.01	0.672
433.21	0.672
433.42	0.675
433.62	0.675
433.83	0.675
434.03	0.677
434.23	0.681
434.44	0.680
434.64	0.678
434.85	0.682
435.05	0.684
435.26	0.683
435.46	0.682
435.66	0.681
435.87	0.681
436.07	0.681
436.28	0.677
436.48	0.673
436.69	0.673
436.89	0.673
437.09	0.667
437.30	0.666
437.50	0.667
437.71	0.678
437.91	0.677
438.11	0.678
438.32	0.683
438.52	0.683
438.73	0.683
438.93	0.681
439.13	0.681
439.34	0.684
439.54	0.682
439.75	0.682
439.95	0.672
440.15	0.676
440.36	0.675
440.56	0.672
440.77	0.672
440.97	0.672
441.17	0.671
441.38	0.672
441.58	0.669
441.79	0.668
441.99	0.667
442.19	0.666
442.40	0.663
442.60	0.663
442.81	0.661
443.01	0.661
443.21	0.662
443.42	0.661
443.62	0.660
443.82	0.660
444.03	0.662
444.23	0.662
444.44	0.663
444.64	0.662
444.84	0.663
445.05	0.663
445.25	0.661
445.45	0.662
445.66	0.664
445.86	0.664
446.06	0.665
446.27	0.665
446.47	0.668
446.68	0.666
446.88	0.665
447.08	0.665
447.29	0.667
447.49	0.667
447.69	0.666
447.90	0.664
448.10	0.668
448.30	0.665
448.51	0.666
448.71	0.664
448.91	0.666
449.12	0.665
449.32	0.666
449.52	0.665
449.73	0.668
449.93	0.668
450.14	0.669
450.34	0.668
450.54	0.671
450.75	0.668
450.95	0.667
451.15	0.667
451.36	0.669
451.56	0.667
451.76	0.665
451.97	0.663
452.17	0.663
452.37	0.662
452.58	0.658
452.78	0.657
452.98	0.661
453.19	0.660
453.39	0.661
453.59	0.659
453.79	0.660
454.00	0.661
454.20	0.660
454.40	0.661
454.61	0.663
454.81	0.664
455.01	0.663
455.22	0.663
455.42	0.666
455.62	0.663
455.83	0.662
456.03	0.665
456.23	0.666
456.44	0.667
456.64	0.665
456.84	0.666
457.04	0.666
457.25	0.665
457.45	0.661
457.65	0.660
457.86	0.662
458.06	0.661
458.26	0.656
458.47	0.655
458.67	0.657
458.87	0.657
459.07	0.654
459.28	0.656
459.48	0.658
459.68	0.658
459.89	0.657
460.09	0.657
460.29	0.658
460.49	0.659
460.70	0.658
460.90	0.657
461.10	0.658
461.31	0.658
461.51	0.655
461.71	0.657
461.91	0.659
462.12	0.659
462.32	0.657
462.52	0.658
462.72	0.661
462.93	0.661
463.13	0.660
463.33	0.661
463.53	0.662
463.74	0.662
463.94	0.657
464.14	0.658
464.35	0.659
464.55	0.660
464.75	0.657
464.95	0.655
465.16	0.657
465.36	0.656
465.56	0.654
465.76	0.654
465.97	0.654
466.17	0.655
466.37	0.653
466.57	0.654
466.78	0.654
466.98	0.654
467.18	0.653
467.38	0.651
467.59	0.654
467.79	0.655
467.99	0.654
468.19	0.656
468.39	0.658
468.60	0.658
468.80	0.656
469.00	0.657
469.20	0.659
469.41	0.659
469.61	0.659
469.81	0.659
470.01	0.658
470.22	0.659
470.42	0.657
470.62	0.655
470.82	0.657
471.02	0.655
471.23	0.653
471.43	0.653
471.63	0.656
471.83	0.655
472.04	0.653
472.24	0.652
472.44	0.657
472.64	0.658
472.84	0.656
473.05	0.656
473.25	0.659
473.45	0.658
473.65	0.657
473.85	0.657
474.06	0.659
474.26	0.659
474.46	0.660
474.66	0.656
474.86	0.657
475.07	0.657
475.27	0.655
475.47	0.652
475.67	0.653
475.87	0.656
476.08	0.652
476.28	0.652
476.48	0.653
476.68	0.652
476.88	0.650
477.09	0.651
477.29	0.653
477.49	0.653
477.69	0.652
477.89	0.652
478.09	0.651
478.30	0.653
478.50	0.650
478.70	0.650
478.90	0.651
479.10	0.654
479.31	0.654
479.51	0.652
479.71	0.653
479.91	0.653
480.11	0.651
480.31	0.651
480.52	0.651
480.72	0.650
480.92	0.649
481.12	0.648
481.32	0.645
481.52	0.643
481.72	0.643
481.93	0.646
482.13	0.647
482.33	0.646
482.53	0.644
482.73	0.645
482.93	0.647
483.14	0.646
483.34	0.645
483.54	0.646
483.74	0.645
483.94	0.645
484.14	0.641
484.34	0.641
484.55	0.641
484.75	0.642
484.95	0.639
485.15	0.639
485.35	0.639
485.55	0.639
485.75	0.637
485.96	0.638
486.16	0.639
486.36	0.638
486.56	0.637
486.76	0.637
486.96	0.637
487.16	0.636
487.36	0.634
487.57	0.634
487.77	0.635
487.97	0.636
488.17	0.634
488.37	0.633
488.57	0.634
488.77	0.634
488.97	0.633
489.18	0.633
489.38	0.636
489.58	0.636
489.78	0.635
489.98	0.635
490.18	0.634
490.38	0.635
490.58	0.634
490.78	0.635
490.98	0.637
491.19	0.637
491.39	0.636
491.59	0.634
491.79	0.638
491.99	0.638
492.19	0.639
492.39	0.642
492.59	0.641
492.79	0.643
492.99	0.643
493.20	0.643
493.40	0.643
493.60	0.645
493.80	0.643
494.00	0.641
494.20	0.641
494.40	0.640
494.60	0.638
494.80	0.642
495.00	0.642
495.20	0.640
495.40	0.638
495.61	0.640
495.81	0.640
496.01	0.644
496.21	0.644
496.41	0.643
496.61	0.644
496.81	0.643
497.01	0.638
497.21	0.637
497.41	0.638
497.61	0.638
497.81	0.635
498.01	0.636
498.21	0.634
498.41	0.631
498.61	0.631
498.82	0.633
499.02	0.635
499.22	0.636
499.42	0.635
499.62	0.636
499.82	0.637
500.02	0.638
500.22	0.637
500.42	0.639
500.62	0.640
500.82	0.640
501.02	0.638
501.22	0.638
501.42	0.638
501.62	0.640
501.82	0.639
502.02	0.639
502.22	0.639
502.42	0.641
502.62	0.639
502.82	0.639
503.02	0.639
503.22	0.639
503.42	0.637
503.63	0.637
503.83	0.636
504.03	0.635
504.23	0.634
504.43	0.634
504.63	0.635
504.83	0.634
505.03	0.633
505.23	0.635
505.43	0.637
505.63	0.638
505.83	0.637
506.03	0.639
506.23	0.641
506.43	0.641
506.63	0.639
506.83	0.638
507.03	0.640
507.23	0.640
507.43	0.637
507.63	0.638
507.83	0.639
508.03	0.639
508.23	0.638
508.43	0.637
508.63	0.639
508.83	0.639
509.03	0.640
509.23	0.639
509.43	0.641
509.63	0.641
509.83	0.639
510.03	0.642
510.23	0.643
510.43	0.644
510.63	0.644
510.83	0.644
511.03	0.646
511.23	0.643
511.43	0.643
511.63	0.644
511.83	0.647
512.03	0.646
512.22	0.643
512.42	0.643
512.62	0.644
512.82	0.644
513.02	0.643
513.22	0.642
513.42	0.644
513.62	0.647
513.82	0.644
514.02	0.644
514.22	0.645
514.42	0.646
514.62	0.645
514.82	0.645
515.02	0.648
515.22	0.651
515.42	0.650
515.62	0.652
515.82	0.651
516.02	0.653
516.22	0.653
516.42	0.654
516.62	0.656
516.82	0.657
517.01	0.655
517.21	0.655
517.41	0.659
517.61	0.658
517.81	0.655
518.01	0.654
518.21	0.654
518.41	0.652
518.61	0.651
518.81	0.651
519.01	0.652
519.21	0.652
519.41	0.651
519.61	0.646
519.81	0.649
520.00	0.649
520.20	0.649
520.40	0.653
520.60	0.654
520.80	0.653
521.00	0.653
521.20	0.654
521.40	0.659
521.60	0.659
521.80	0.658
522.00	0.658
522.20	0.661
522.39	0.661
522.59	0.657
522.79	0.659
522.99	0.661
523.19	0.660
523.39	0.657
523.59	0.655
523.79	0.659
523.99	0.661
524.19	0.660
524.38	0.658
524.58	0.659
524.78	0.660
524.98	0.658
525.18	0.660
525.38	0.661
525.58	0.662
525.78	0.659
525.98	0.657
526.18	0.658
526.37	0.657
526.57	0.659
526.77	0.659
526.97	0.659
527.17	0.659
527.37	0.655
527.57	0.657
527.77	0.659
527.96	0.659
528.16	0.658
528.36	0.658
528.56	0.660
528.76	0.658
528.96	0.656
529.16	0.658
529.36	0.661
529.55	0.661
529.75	0.658
529.95	0.659
530.15	0.660
530.35	0.664
530.55	0.661
530.75	0.662
530.94	0.664
531.14	0.665
531.34	0.663
531.54	0.661
531.74	0.664
531.94	0.667
532.13	0.665
532.33	0.666
532.53	0.665
532.73	0.664
532.93	0.662
533.13	0.664
533.33	0.664
533.52	0.665
533.72	0.669
533.92	0.667
534.12	0.665
534.32	0.665
534.52	0.663
534.71	0.664
534.91	0.668
535.11	0.670
535.31	0.668
535.51	0.670
535.71	0.671
535.90	0.668
536.10	0.669
536.30	0.672
536.50	0.673
536.70	0.673
536.89	0.670
537.09	0.669
537.29	0.670
537.49	0.671
537.69	0.669
537.89	0.670
538.08	0.670
538.28	0.667
538.48	0.667
538.68	0.669
538.88	0.671
539.07	0.671
539.27	0.669
539.47	0.668
539.67	0.668
539.87	0.669
540.06	0.667
540.26	0.668
540.46	0.671
540.66	0.669
540.86	0.666
541.05	0.666
541.25	0.668
541.45	0.668
541.65	0.667
541.84	0.669
542.04	0.669
542.24	0.669
542.44	0.668
542.64	0.669
542.83	0.672
543.03	0.672
543.23	0.670
543.43	0.670
543.62	0.672
543.82	0.672
544.02	0.670
544.22	0.670
544.42	0.674
544.61	0.674
544.81	0.670
545.01	0.669
545.21	0.672
545.40	0.673
545.60	0.670
545.80	0.673
546.00	0.673
546.19	0.673
546.39	0.673
546.59	0.671
546.79	0.673
546.98	0.674
547.18	0.673
547.38	0.674
547.58	0.676
547.77	0.678
547.97	0.674
548.17	0.676
548.37	0.676
548.56	0.676
548.76	0.675
548.96	0.676
549.16	0.679
549.35	0.678
549.55	0.676
549.75	0.676
549.95	0.679
550.14	0.680
550.34	0.678
550.54	0.683
550.73	0.687
550.93	0.687
551.13	0.683
551.33	0.682
551.52	0.683
551.72	0.684
551.92	0.682
552.12	0.682
552.31	0.683
552.51	0.683
552.71	0.678
552.90	0.678
553.10	0.679
553.30	0.679
553.50	0.678
553.69	0.680
553.89	0.681
554.09	0.682
554.28	0.678
554.48	0.680
554.68	0.681
554.87	0.681
555.07	0.677
555.27	0.677
555.47	0.679
555.66	0.679
555.86	0.677
556.06	0.679
556.25	0.680
556.45	0.688
556.65	0.686
556.84	0.690
557.04	0.694
557.24	0.696
557.43	0.696
557.63	0.698
557.83	0.701
558.02	0.700
558.22	0.705
558.42	0.705
558.61	0.697
558.81	0.698
559.01	0.694
559.21	0.693
559.40	0.694
559.60	0.694
559.80	0.690
559.99	0.691
560.19	0.694
560.39	0.687
560.58	0.685
560.78	0.686
560.97	0.689
561.17	0.688
561.37	0.685
561.56	0.686
561.76	0.688
561.96	0.688
562.15	0.685
562.35	0.687
562.55	0.689
562.74	0.689
562.94	0.687
563.14	0.686
563.33	0.688
563.53	0.688
563.73	0.685
563.92	0.686
564.12	0.689
564.31	0.692
564.51	0.690
564.71	0.691
564.90	0.694
565.10	0.695
565.30	0.696
565.49	0.697
565.69	0.699
565.89	0.699
566.08	0.696
566.28	0.698
566.47	0.700
566.67	0.698
566.87	0.695
567.06	0.696
567.26	0.703
567.46	0.699
567.65	0.698
567.85	0.699
568.04	0.702
568.24	0.701
568.44	0.698
568.63	0.696
568.83	0.697
569.02	0.696
569.22	0.692
569.42	0.688
569.61	0.691
569.81	0.689
570.00	0.687
570.20	0.688
570.40	0.690
570.59	0.689
570.79	0.687
570.98	0.685
571.18	0.687
571.38	0.686
571.57	0.683
571.77	0.680
571.96	0.684
572.16	0.681
572.35	0.676
572.55	0.677
572.75	0.676
572.94	0.676
573.14	0.675
573.33	0.675
573.53	0.675
573.73	0.675
573.92	0.673
574.12	0.671
574.31	0.674
574.51	0.674
574.70	0.671
574.90	0.672
575.09	0.675
575.29	0.674
575.49	0.671
575.68	0.672
575.88	0.673
576.07	0.675
576.27	0.672
576.46	0.671
576.66	0.670
576.86	0.670
577.05	0.668
577.25	0.666
577.44	0.668
577.64	0.668
577.83	0.666
578.03	0.667
578.22	0.667
578.42	0.666
578.61	0.664
578.81	0.665
579.00	0.666
579.20	0.666
579.40	0.664
579.59	0.663
579.79	0.663
579.98	0.663
580.18	0.662
580.37	0.663
580.57	0.664
580.76	0.669
580.96	0.667
581.15	0.667
581.35	0.669
581.54	0.669
581.74	0.667
581.93	0.669
582.13	0.670
582.32	0.667
582.52	0.665
582.71	0.665
582.91	0.661
583.10	0.661
583.30	0.660
583.49	0.659
583.69	0.663
583.88	0.665
584.08	0.664
584.27	0.666
584.47	0.670
584.66	0.670
584.86	0.669
585.05	0.671
585.25	0.674
585.44	0.674
585.64	0.672
585.83	0.669
586.03	0.669
586.22	0.668
586.42	0.664
586.61	0.666
586.81	0.669
587.00	0.669
587.20	0.666
587.39	0.667
587.59	0.669
587.78	0.670
587.98	0.670
588.17	0.671
588.37	0.674
588.56	0.675
588.76	0.671
588.95	0.671
589.15	0.675
589.34	0.677
589.54	0.676
589.73	0.677
589.92	0.680
590.12	0.680
590.31	0.677
590.51	0.682
590.70	0.684
590.90	0.684
591.09	0.682
591.29	0.680
591.48	0.680
591.68	0.681
591.87	0.679
592.06	0.679
592.26	0.681
592.45	0.681
592.65	0.674
592.84	0.674
593.04	0.677
593.23	0.679
593.43	0.677
593.62	0.677
593.81	0.677
594.01	0.677
594.20	0.674
594.40	0.674
594.59	0.676
594.79	0.677
594.98	0.675
595.17	0.674
595.37	0.675
595.56	0.677
595.76	0.676
595.95	0.678
596.14	0.680
596.34	0.682
596.53	0.680
596.73	0.681
596.92	0.683
597.12	0.686
597.31	0.686
597.50	0.685
597.70	0.687
597.89	0.686
598.09	0.683
598.28	0.684
598.47	0.686
598.67	0.685
598.86	0.681
599.06	0.683
599.25	0.683
599.44	0.680
599.64	0.678
599.83	0.676
600.03	0.679
600.22	0.680
600.41	0.680
600.61	0.678
600.80	0.680
601.00	0.681
601.19	0.677
601.38	0.676
601.58	0.679
601.77	0.680
601.96	0.682
602.16	0.682
602.35	0.691
602.55	0.689
602.74	0.689
602.93	0.691
603.13	0.696
603.32	0.697
603.51	0.696
603.71	0.699
603.90	0.701
604.09	0.701
604.29	0.697
604.48	0.692
604.68	0.693
604.87	0.692
605.06	0.688
605.26	0.685
605.45	0.686
605.64	0.685
605.84	0.680
606.03	0.680
606.22	0.679
606.42	0.679
606.61	0.675
606.80	0.675
607.00	0.677
607.19	0.678
607.38	0.676
607.58	0.678
607.77	0.680
607.96	0.680
608.16	0.678
608.35	0.683
608.54	0.686
608.74	0.689
608.93	0.694
609.12	0.696
609.32	0.699
609.51	0.702
609.70	0.701
609.90	0.703
610.09	0.707
610.28	0.713
610.48	0.706
610.67	0.707
610.86	0.708
611.06	0.702
611.25	0.700
611.44	0.700
611.64	0.700
611.83	0.704
612.02	0.700
612.21	0.699
612.41	0.697
612.60	0.697
612.79	0.693
612.99	0.694
613.18	0.696
613.37	0.693
613.57	0.690
613.76	0.693
613.95	0.690
614.14	0.690
614.34	0.687
614.53	0.688
614.72	0.691
614.92	0.691
615.11	0.687
615.30	0.684
615.49	0.686
615.69	0.689
615.88	0.685
616.07	0.686
616.26	0.689
616.46	0.691
616.65	0.688
616.84	0.686
617.04	0.688
617.23	0.691
617.42	0.692
617.61	0.696
617.81	0.697
618.00	0.699
618.19	0.698
618.38	0.701
618.58	0.705
618.77	0.706
618.96	0.705
619.15	0.708
619.35	0.710
619.54	0.711
619.73	0.706
619.92	0.708
620.12	0.712
620.31	0.711
620.50	0.706
620.69	0.706
620.89	0.709
621.08	0.709
621.27	0.709
621.46	0.707
621.66	0.712
621.85	0.712
622.04	0.708
622.23	0.709
622.43	0.710
622.62	0.710
622.81	0.710
623.00	0.709
623.19	0.713
623.39	0.712
623.58	0.708
623.77	0.707
623.96	0.710
624.16	0.710
624.35	0.704
624.54	0.708
624.73	0.711
624.92	0.709
625.12	0.707
625.31	0.708
625.50	0.712
625.69	0.712
625.88	0.707
626.08	0.707
626.27	0.710
626.46	0.710
626.65	0.706
626.84	0.705
627.04	0.711
627.23	0.711
627.42	0.706
627.61	0.708
627.80	0.711
628.00	0.712
628.19	0.710
628.38	0.713
628.57	0.716
628.76	0.716
628.96	0.713
629.15	0.714
629.34	0.717
629.53	0.718
629.72	0.711
629.91	0.712
630.11	0.717
630.30	0.718
630.49	0.720
630.68	0.721
630.87	0.725
631.06	0.727
631.26	0.721
631.45	0.722
631.64	0.730
631.83	0.733
632.02	0.729
632.21	0.729
632.41	0.736
632.60	0.731
632.79	0.729
632.98	0.729
633.17	0.730
633.36	0.732
633.55	0.729
633.75	0.726
633.94	0.728
634.13	0.728
634.32	0.724
634.51	0.719
634.70	0.721
634.89	0.720
635.09	0.717
635.28	0.717
635.47	0.718
635.66	0.720
635.85	0.715
636.04	0.717
636.23	0.723
636.43	0.725
636.62	0.722
636.81	0.720
637.00	0.724
637.19	0.728
637.38	0.724
637.57	0.724
637.76	0.726
637.95	0.728
638.15	0.723
638.34	0.721
638.53	0.725
638.72	0.726
638.91	0.723
639.10	0.720
639.29	0.721
639.48	0.722
639.67	0.722
639.87	0.721
640.06	0.727
640.25	0.726
640.44	0.726
640.63	0.726
640.82	0.730
641.01	0.729
641.20	0.729
641.39	0.730
641.58	0.732
641.78	0.730
641.97	0.726
642.16	0.740
642.35	0.742
642.54	0.740
642.73	0.734
642.92	0.732
643.11	0.736
643.30	0.737
643.49	0.732
643.68	0.735
643.87	0.737
644.06	0.737
644.25	0.715
644.45	0.718
644.64	0.720
644.83	0.721
645.02	0.717
645.21	0.717
645.40	0.718
645.59	0.718
645.78	0.712
645.97	0.716
646.16	0.717
646.35	0.717
646.54	0.714
646.73	0.716
646.92	0.718
647.11	0.717
647.30	0.713
647.49	0.715
647.68	0.715
647.88	0.713
648.07	0.705
648.26	0.708
648.45	0.710
648.64	0.706
648.83	0.703
649.02	0.705
649.21	0.715
649.40	0.713
649.59	0.708
649.78	0.708
649.97	0.723
650.16	0.722
650.35	0.716
650.54	0.719
650.73	0.727
650.92	0.724
651.11	0.716
651.30	0.714
651.49	0.719
651.68	0.720
651.87	0.717
652.06	0.706
652.25	0.710
652.44	0.712
652.63	0.707
652.82	0.707
653.01	0.707
653.20	0.706
653.39	0.693
653.58	0.690
653.77	0.690
653.96	0.684
654.15	0.676
654.34	0.674
654.53	0.670
654.72	0.664
654.91	0.655
655.10	0.651
655.29	0.649
655.48	0.647
655.67	0.642
655.86	0.640
656.05	0.639
656.24	0.638
656.43	0.633
656.62	0.632
656.81	0.633
657.00	0.631
657.19	0.629
657.38	0.629
657.57	0.629
657.76	0.632
657.95	0.629
658.14	0.633
658.33	0.636
658.51	0.642
658.70	0.642
658.89	0.643
659.08	0.653
659.27	0.661
659.46	0.660
659.65	0.666
659.84	0.669
660.03	0.673
660.22	0.673
660.41	0.678
660.60	0.678
660.79	0.679
660.98	0.686
661.17	0.684
661.36	0.685
661.55	0.685
661.74	0.683
661.92	0.686
662.11	0.688
662.30	0.686
662.49	0.679
662.68	0.679
662.87	0.683
663.06	0.675
663.25	0.676
663.44	0.676
663.63	0.678
663.82	0.676
664.01	0.671
664.20	0.669
664.38	0.671
664.57	0.672
664.76	0.671
664.95	0.671
665.14	0.676
665.33	0.671
665.52	0.678
665.71	0.682
665.90	0.681
666.09	0.683
666.28	0.680
666.46	0.679
666.65	0.680
666.84	0.677
667.03	0.671
667.22	0.669
667.41	0.673
667.60	0.663
667.79	0.656
667.98	0.657
668.16	0.658
668.35	0.658
668.54	0.654
668.73	0.654
668.92	0.655
669.11	0.655
669.30	0.649
669.49	0.645
669.67	0.646
669.86	0.648
670.05	0.645
670.24	0.642
670.43	0.640
670.62	0.639
670.81	0.634
671.00	0.636
671.18	0.636
671.37	0.635
671.56	0.632
671.75	0.632
671.94	0.630
672.13	0.628
672.32	0.624
672.50	0.624
672.69	0.625
672.88	0.625
673.07	0.621
673.26	0.623
673.45	0.625
673.63	0.625
673.82	0.621
674.01	0.622
674.20	0.623
674.39	0.622
674.58	0.621
674.76	0.621
674.95	0.620
675.14	0.619
675.33	0.614
675.52	0.612
675.71	0.613
675.89	0.612
676.08	0.607
676.27	0.607
676.46	0.607
676.65	0.607
676.84	0.607
677.02	0.608
677.21	0.611
677.40	0.609
677.59	0.606
677.78	0.607
677.96	0.610
678.15	0.609
678.34	0.607
678.53	0.607
678.72	0.607
678.90	0.603
679.09	0.598
679.28	0.595
679.47	0.595
679.66	0.595
679.84	0.591
680.03	0.589
680.22	0.589
680.41	0.591
680.60	0.587
680.78	0.586
680.97	0.589
681.16	0.590
681.35	0.589
681.53	0.588
681.72	0.589
681.91	0.590
682.10	0.588
682.29	0.591
682.47	0.589
682.66	0.589
682.85	0.587
683.04	0.585
683.22	0.584
683.41	0.586
683.60	0.584
683.79	0.586
683.97	0.585
684.16	0.584
684.35	0.580
684.54	0.581
684.72	0.582
684.91	0.583
685.10	0.581
685.29	0.582
685.47	0.579
685.66	0.578
685.85	0.575
686.04	0.574
686.22	0.577
686.41	0.580
686.60	0.577
686.79	0.580
686.97	0.580
687.16	0.582
687.35	0.579
687.54	0.583
687.72	0.587
687.91	0.587
688.10	0.588
688.29	0.587
688.47	0.586
688.66	0.585
688.85	0.581
689.03	0.578
689.22	0.583
689.41	0.584
689.60	0.579
689.78	0.576
689.97	0.577
690.16	0.574
690.34	0.571
690.53	0.571
690.72	0.571
690.91	0.569
691.09	0.567
691.28	0.561
691.47	0.559
691.65	0.557
691.84	0.554
692.03	0.553
692.21	0.551
692.40	0.551
692.59	0.547
692.77	0.546
692.96	0.548
693.15	0.549
693.34	0.547
693.52	0.547
693.71	0.549
693.90	0.550
694.08	0.550
694.27	0.551
694.46	0.561
694.64	0.563
694.83	0.562
695.02	0.561
695.20	0.560
695.39	0.560
695.58	0.559
695.76	0.560
695.95	0.559
696.14	0.558
696.32	0.556
696.51	0.547
696.70	0.547
696.88	0.547
697.07	0.546
697.26	0.548
697.44	0.549
697.63	0.548
697.81	0.545
698.00	0.545
698.19	0.545
698.37	0.545
698.56	0.544
698.75	0.545
698.93	0.544
699.12	0.544
699.31	0.542
699.49	0.542
699.68	0.543
699.87	0.546
700.05	0.546
700.24	0.544
700.42	0.546
700.61	0.545
700.80	0.543
700.98	0.545
701.17	0.546
701.36	0.544
701.54	0.543
701.73	0.545
701.91	0.543
702.10	0.542
702.29	0.540
702.47	0.538
702.66	0.540
702.84	0.541
703.03	0.539
703.22	0.540
703.40	0.541
703.59	0.543
703.77	0.542
703.96	0.542
704.15	0.542
704.33	0.543
704.52	0.542
704.70	0.542
704.89	0.542
705.08	0.541
705.26	0.536
705.45	0.536
705.63	0.535
705.82	0.532
706.00	0.530
706.19	0.530
706.38	0.530
706.56	0.529
706.75	0.527
706.93	0.525
707.12	0.527
707.30	0.527
707.49	0.525
707.68	0.523
707.86	0.522
708.05	0.522
708.23	0.519
708.42	0.519
708.60	0.523
708.79	0.522
708.98	0.521
709.16	0.520
709.35	0.522
709.53	0.526
709.72	0.526
709.90	0.528
710.09	0.530
710.27	0.532
710.46	0.536
710.64	0.534
710.83	0.536
711.02	0.538
711.20	0.536
711.39	0.534
711.57	0.532
711.76	0.533
711.94	0.531
712.13	0.532
712.31	0.532
712.50	0.527
712.68	0.524
712.87	0.524
713.05	0.525
713.24	0.525
713.42	0.524
713.61	0.525
713.79	0.525
713.98	0.526
714.16	0.526
714.35	0.526
714.54	0.527
714.72	0.527
714.91	0.525
715.09	0.531
715.28	0.535
715.46	0.534
715.65	0.532
715.83	0.531
716.02	0.534
716.20	0.530
716.39	0.529
716.57	0.531
716.76	0.533
716.94	0.533
717.12	0.526
717.31	0.527
717.49	0.531
717.68	0.533
717.86	0.532
718.05	0.534
718.23	0.536
718.42	0.539
718.60	0.540
718.79	0.548
718.97	0.551
719.16	0.552
719.34	0.549
719.53	0.548
719.71	0.548
719.90	0.550
720.08	0.547
720.27	0.548
720.45	0.548
720.63	0.547
720.82	0.541
721.00	0.544
721.19	0.548
721.37	0.548
721.56	0.548
721.74	0.552
721.93	0.561
722.11	0.568
722.30	0.568
722.48	0.573
722.66	0.574
722.85	0.573
723.03	0.572
723.22	0.570
723.40	0.573
723.59	0.572
723.77	0.576
723.95	0.569
724.14	0.570
724.32	0.572
724.51	0.570
724.69	0.572
724.88	0.573
725.06	0.571
725.24	0.572
725.43	0.575
725.61	0.578
725.80	0.572
725.98	0.569
726.16	0.566
726.35	0.572
726.53	0.571
726.72	0.570
726.90	0.581
727.09	0.582
727.27	0.588
727.45	0.583
727.64	0.593
727.82	0.603
728.01	0.608
728.19	0.606
728.37	0.612
728.56	0.616
728.74	0.622
728.92	0.609
729.11	0.611
729.29	0.610
729.48	0.612
729.66	0.601
729.84	0.600
730.03	0.604
730.21	0.605
730.40	0.595
730.58	0.596
730.76	0.597
730.95	0.600
731.13	0.600
731.31	0.614
731.50	0.625
731.68	0.629
731.86	0.624
732.05	0.638
732.23	0.644
732.42	0.646
732.60	0.650
732.78	0.655
732.97	0.676
733.15	0.683
733.33	0.670
733.52	0.675
733.70	0.686
733.88	0.697
734.07	0.683
734.25	0.709
734.43	0.718
734.62	0.719
734.80	0.713
734.98	0.704
735.17	0.715
735.35	0.723
735.53	0.713
735.72	0.717
735.90	0.741
736.08	0.764
736.27	0.739
736.45	0.750
736.63	0.766
736.82	0.778
737.00	0.776
737.18	0.787
737.37	0.823
737.55	0.845
737.73	0.837
737.92	0.840
738.10	0.839
738.28	0.863
738.46	0.853
738.65	0.866
738.83	0.891
739.01	0.954
739.20	0.939
739.38	0.920
739.56	0.916
739.75	0.920
739.93	0.879
740.11	0.903
740.29	0.904
740.48	0.911
740.66	0.890
740.84	0.885
741.03	0.846
741.21	0.863
741.39	0.840
741.57	0.856
741.76	0.882
741.94	0.891
742.12	0.850
742.31	0.853
742.49	0.875
742.67	0.900
742.85	0.915
743.04	0.923
743.22	0.936
743.40	0.998
743.58	0.970
743.77	0.987
743.95	1.034
744.13	1.096
744.31	1.070
744.50	1.061
744.68	1.065
744.86	1.033
745.04	1.044
745.23	1.124
745.41	1.108
745.59	1.117
745.77	1.071
745.96	1.055
746.14	1.070
746.32	1.073
746.50	1.064
746.69	1.042
746.87	1.056
747.05	1.037
747.23	0.947
747.42	0.932
747.60	0.967
747.78	0.970
747.96	1.009
748.14	0.953
748.33	0.985
748.51	0.974
748.69	0.967
748.87	1.004
749.06	1.001
749.24	0.997
749.42	0.978
749.60	0.957
749.78	0.969
749.97	0.909
750.15	0.904
750.33	0.911
750.51	0.941
750.69	0.948
750.88	0.948
751.06	0.958
751.24	0.992
751.42	0.975
751.60	0.961
751.79	1.047
751.97	1.107
752.15	1.105
752.33	1.054
752.51	1.134
752.69	1.157
752.88	1.114
753.06	1.172
753.24	1.135
753.42	1.183
753.60	1.422
753.78	1.212
753.97	1.240
754.15	1.267
754.33	1.307
754.51	1.139
754.69	1.117
754.87	1.159
755.06	1.069
755.24	1.068
755.42	1.076
755.60	0.963
755.78	0.972
755.96	0.908
756.15	0.907
756.33	0.915
756.51	0.937
756.69	0.919
756.87	0.884
757.05	0.906
757.23	0.888
757.42	0.854
757.60	0.850
757.78	0.838
757.96	0.838
758.14	0.818
758.32	0.802
758.50	0.817
758.69	0.816
758.87	0.805
759.05	0.810
759.23	0.821
759.41	0.820
759.59	0.811
759.77	0.836
759.95	0.866
760.13	0.923
760.32	0.921
760.50	0.912
760.68	0.935
760.86	0.936
761.04	0.904
761.22	0.911
761.40	0.968
761.58	0.970
761.76	0.934
761.95	0.916
762.13	0.870
762.31	0.868
762.49	0.833
762.67	0.855
762.85	0.869
763.03	0.865
763.21	0.840
763.39	0.818
763.57	0.822
763.75	0.816
763.94	0.794
764.12	0.792
764.30	0.823
764.48	0.828
764.66	0.786
764.84	0.784
765.02	0.825
765.20	0.834
765.38	0.811
765.56	0.820
765.74	0.865
765.92	0.868
766.10	0.877
766.28	0.865
766.46	0.897
766.65	0.900
766.83	0.885
767.01	0.865
767.19	0.877
767.37	0.876
767.55	0.857
767.73	0.837
767.91	0.846
768.09	0.836
768.27	0.824
768.45	0.813
768.63	0.820
768.81	0.823
768.99	0.793
769.17	0.815
769.35	0.833
769.53	0.832
769.71	0.809
769.89	0.815
770.07	0.820
770.25	0.799
770.43	0.775
770.61	0.797
770.79	0.802
770.97	0.812
771.15	0.780
771.33	0.785
771.51	0.789
771.69	0.802
771.87	0.807
772.05	0.815
772.24	0.827
772.42	0.837
772.60	0.814
772.78	0.882
772.96	0.917
773.14	0.917
773.32	0.889
773.49	0.897
773.67	0.894
773.85	0.872
774.03	0.855
774.21	0.891
774.39	0.905
774.57	0.930
774.75	0.848
774.93	0.845
775.11	0.868
775.29	0.871
775.47	0.871
775.65	0.882
775.83	0.905
776.01	0.936
776.19	0.883
776.37	0.885
776.55	0.889
776.73	0.885
776.91	0.873
777.09	0.855
777.27	0.858
777.45	0.842
777.63	0.816
777.81	0.813
777.99	0.798
778.17	0.796
778.35	0.772
778.53	0.759
778.71	0.767
778.89	0.753
779.07	0.740
779.24	0.746
779.42	0.750
779.60	0.770
779.78	0.763
779.96	0.768
780.14	0.776
780.32	0.798
780.50	0.776
780.68	0.774
780.86	0.767
781.04	0.785
781.22	0.789
781.40	0.801
781.58	0.793
781.75	0.785
781.93	0.765
782.11	0.765
782.29	0.753
782.47	0.751
782.65	0.739
782.83	0.773
783.01	0.766
783.19	0.758
783.37	0.742
783.55	0.743
783.72	0.764
783.90	0.777
784.08	0.768
784.26	0.780
784.44	0.806
784.62	0.807
784.80	0.769
784.98	0.776
785.16	0.784
785.33	0.800
785.51	0.785
785.69	0.768
785.87	0.769
786.05	0.780
786.23	0.775
786.41	0.771
786.59	0.778
786.77	0.776
786.94	0.760
787.12	0.762
787.30	0.762
787.48	0.759
787.66	0.746
787.84	0.745
788.02	0.735
788.19	0.731
788.37	0.716
788.55	0.717
788.73	0.717
788.91	0.710
789.09	0.691
789.27	0.680
789.44	0.693
789.62	0.700
789.80	0.708
789.98	0.734
790.16	0.720
790.34	0.716
790.51	0.702
790.69	0.725
790.87	0.734
791.05	0.736
791.23	0.727
791.41	0.728
791.58	0.735
791.76	0.713
791.94	0.680
792.12	0.689
792.30	0.693
792.48	0.692
792.65	0.685
792.83	0.690
793.01	0.695
793.19	0.694
793.37	0.678
793.54	0.676
793.72	0.688
793.90	0.686
794.08	0.674
794.26	0.673
794.43	0.684
794.61	0.666
794.79	0.654
794.97	0.652
795.15	0.659
795.32	0.661
795.50	0.650
795.68	0.644
795.86	0.650
796.04	0.654
796.21	0.647
796.39	0.646
796.57	0.660
796.75	0.670
796.92	0.672
797.10	0.678
797.28	0.682
797.46	0.684
797.64	0.685
797.81	0.693
797.99	0.696
798.17	0.700
798.35	0.691
798.52	0.696
798.70	0.690
798.88	0.698
799.06	0.693
799.23	0.694
799.41	0.703
799.59	0.696
799.77	0.684
799.94	0.690
800.12	0.702
800.30	0.722
800.48	0.718
800.65	0.719
800.83	0.709
801.01	0.702
801.19	0.705
801.36	0.703
801.54	0.707
801.72	0.718
801.90	0.704
802.07	0.698
802.25	0.683
802.43	0.666
802.60	0.661
802.78	0.668
802.96	0.675
803.14	0.666
803.31	0.663
803.49	0.664
803.67	0.662
803.84	0.667
804.02	0.658
804.20	0.663
804.38	0.671
804.55	0.670
804.73	0.653
804.91	0.652
805.08	0.667
805.26	0.662
805.44	0.731
805.61	0.733
805.79	0.734
805.97	0.734
806.15	0.721
806.32	0.717
806.50	0.725
806.68	0.726
806.85	0.716
807.03	0.707
807.21	0.725
807.38	0.652
807.56	0.640
807.74	0.650
807.91	0.657
808.09	0.661
808.27	0.679
808.44	0.706
808.62	0.715
808.80	0.718
808.97	0.712
809.15	0.704
809.33	0.723
809.50	0.729
809.68	0.715
809.86	0.721
810.03	0.758
810.21	0.736
810.39	0.717
810.56	0.724
810.74	0.751
810.91	0.834
811.09	0.826
811.27	0.849
811.44	0.860
811.62	0.863
811.80	0.843
811.97	0.808
812.15	0.807
812.33	0.802
812.50	0.786
812.68	0.773
812.85	0.709
813.03	0.709
813.21	0.675
813.38	0.667
813.56	0.669
813.74	0.680
813.91	0.686
814.09	0.720
814.26	0.714
814.44	0.718
814.62	0.706
814.79	0.710
814.97	0.716
815.14	0.722
815.32	0.727
815.50	0.745
815.67	0.750
815.85	0.740
816.02	0.726
816.20	0.735
816.38	0.753
816.55	0.760
816.73	0.759
816.90	0.769
817.08	0.802
817.26	0.808
817.43	0.788
817.61	0.815
817.78	0.840
817.96	0.817
818.13	0.807
818.31	0.807
818.49	0.821
818.66	0.810
818.84	0.797
819.01	0.773
819.19	0.781
819.36	0.781
819.54	0.747
819.71	0.795
819.89	0.809
820.07	0.821
820.24	0.812
820.42	0.813
820.59	0.838
820.77	0.865
820.94	0.856
821.12	0.877
821.29	0.897
821.47	0.892
821.64	0.820
821.82	0.836
822.00	0.834
822.17	0.834
822.35	0.824
822.52	0.826
822.70	0.809
822.87	0.822
823.05	0.799
823.22	0.814
823.40	0.854
823.57	0.876
823.75	0.857
823.92	0.889
824.10	0.909
824.27	0.960
824.45	0.950
824.62	1.033
824.80	1.057
824.97	1.071
825.15	1.055
825.32	1.071
825.50	1.074
825.67	1.088
825.85	1.060
826.02	1.088
826.20	1.131
826.37	1.332
826.55	1.207
826.72	1.565
826.90	1.825
827.07	2.146
827.25	1.868
827.42	-0.000
827.60	-0.000
827.77	-0.000
827.95	-0.000
828.12	-0.000
828.30	-0.000
828.47	-0.000
828.65	1.993
828.82	2.948
829.00	-0.000
829.17	-0.000
829.34	-0.000
829.52	-0.000
829.69	-0.000
829.87	-0.000
830.04	-0.000
830.22	-0.000
830.39	-0.000
830.57	-0.000
830.74	-0.000
830.92	-0.000
831.09	-0.000
831.26	-0.000
831.44	-0.000
831.61	-0.000
831.79	-0.000
831.96	-0.000
832.14	-0.000
832.31	-0.000
832.49	-0.000
832.66	-0.000
832.83	-0.000
833.01	-0.000
833.18	-0.000
833.36	-0.000
833.53	-0.000
833.70	-0.000
833.88	-0.000
834.05	-0.000
834.23	-0.000
834.40	-0.000
834.58	-0.000
834.75	-0.000
834.92	-0.000
835.10	-0.000
835.27	-0.000
835.45	-0.000
835.62	-0.000
835.79	-0.000
835.97	-0.000
836.14	-0.000
836.32	-0.000
836.49	-0.000
836.66	-0.000
836.84	-0.000
837.01	-0.000
837.18	-0.000
837.36	-0.000
837.53	-0.000
837.71	-0.000
837.88	-0.000
838.05	-0.000
838.23	-0.000
838.40	-0.000
838.58	-0.000
838.75	-0.000
838.92	-0.000
839.10	-0.000
839.27	-0.000
839.44	-0.000
839.62	-0.000
839.79	-0.000
839.96	-0.000
840.14	-0.000
840.31	-0.000
840.48	-0.000
840.66	-0.000
840.83	-0.000
841.01	-0.000
841.18	-0.000
841.35	-0.000
841.53	-0.000
841.70	-0.000
841.87	-0.000
842.05	-0.000
842.22	-0.000
842.39	-0.000
842.57	-0.000
842.74	-0.000
842.91	-0.000
843.09	-0.000
843.26	-0.000
843.43	-0.000
843.60	-0.000
843.78	-0.000
843.95	-0.000
844.12	-0.000
844.30	-0.000
844.47	-0.000
844.64	-0.000
844.82	-0.000
844.99	-0.000
845.16	-0.000
845.34	-0.000
845.51	-0.000
845.68	-0.000
845.85	-0.000
846.03	-0.000
846.20	-0.000
846.37	-0.000
846.55	-0.000
846.72	-0.000
846.89	-0.000
847.06	-0.000
847.24	-0.000
847.41	-0.000
847.58	-0.000
847.76	-0.000
847.93	-0.000
848.10	-0.000
848.27	-0.000
848.45	-0.000
848.62	-0.000
848.79	-0.000
848.97	-0.000
849.14	-0.000
849.31	-0.000
849.48	-0.000
849.66	-0.000
849.83	-0.000
850.00	-0.000
850.17	-0.000
850.35	-0.000
850.52	-0.000
850.69	-0.000
850.86	-0.000
851.04	-0.000
851.21	-0.000
851.38	-0.000
851.55	-0.000
851.72	-0.000
851.90	-0.000
852.07	-0.000
852.24	-0.000
852.41	-0.000
852.59	-0.000
852.76	-0.000
852.93	-0.000
853.10	-0.000
853.28	-0.000
853.45	-0.000
853.62	-0.000
853.79	-0.000
853.96	-0.000
854.14	-0.000
854.31	-0.000
854.48	-0.000
854.65	-0.000
854.82	-0.000
855.00	-0.000
855.17	-0.000
855.34	-0.000
855.51	-0.000
855.68	-0.000
855.86	-0.000
856.03	-0.000
856.20	-0.000
856.37	-0.000
856.54	-0.000
856.72	-0.000
856.89	-0.000
857.06	-0.000
857.23	-0.000
857.40	-0.000
857.57	-0.000
857.75	-0.000
857.92	-0.000
858.09	-0.000
858.26	-0.000
858.43	-0.000
858.60	-0.000
858.78	-0.000
858.95	-0.000
859.12	-0.000
859.29	-0.000
859.46	-0.000
859.63	-0.000
859.81	-0.000
859.98	-0.000
860.15	-0.000
860.32	-0.000
860.49	-0.000
860.66	-0.000
860.83	-0.000
861.01	-0.000
861.18	-0.000
861.35	-0.000
861.52	-0.000
861.69	-0.000
861.86	-0.000
862.03	-0.000
862.21	-0.000
862.38	-0.000
862.55	-0.000
862.72	-0.000
862.89	-0.000
863.06	-0.000
863.23	-0.000
863.40	-0.000
863.58	-0.000
863.75	-0.000
863.92	-0.000
864.09	-0.000
864.26	-0.000
864.43	-0.000
864.60	-0.000
864.77	-0.000
864.94	-0.000
865.11	-0.000
865.29	-0.000
865.46	-0.000
865.63	-0.000
865.80	-0.000
865.97	-0.000
866.14	-0.000
866.31	-0.000
866.48	-0.000
866.65	-0.000
866.82	-0.000
866.99	-0.000
867.16	-0.000
867.34	-0.000
867.51	-0.000
867.68	-0.000
867.85	-0.000
868.02	-0.000
868.19	-0.000
868.36	-0.000
868.53	-0.000
868.70	-0.000
868.87	-0.000
869.04	-0.000
869.21	-0.000
869.38	-0.000
869.55	-0.000
869.72	-0.000
869.89	-0.000
870.06	-0.000
870.24	-0.000
870.41	-0.000
870.58	-0.000
870.75	-0.000
870.92	-0.000
871.09	-0.000
871.26	-0.000
871.43	-0.000
871.60	-0.000
871.77	-0.000
871.94	-0.000
872.11	-0.000
872.28	-0.000
872.45	-0.000
872.62	-0.000
872.79	-0.000
872.96	-0.000
873.13	-0.000
873.30	-0.000
873.47	-0.000
873.64	-0.000
873.81	-0.000
873.98	-0.000
874.15	-0.000
874.32	-0.000
874.49	-0.000
874.66	-0.000
874.83	-0.000
875.00	-0.000
875.17	-0.000
875.34	-0.000
875.51	-0.000
875.68	-0.000
875.85	-0.000
876.02	-0.000
876.19	-0.000
876.36	-0.000
876.53	-0.000
876.70	-0.000
876.87	-0.000
877.04	-0.000
877.21	-0.000
877.38	-0.000
877.55	-0.000
877.72	-0.000
877.89	-0.000
878.06	-0.000
878.23	-0.000
878.39	-0.000
878.56	-0.000
878.73	-0.000
878.90	-0.000
879.07	-0.000
879.24	-0.000
879.41	-0.000
879.58	-0.000
879.75	-0.000
879.92	-0.000
880.09	-0.000
880.26	-0.000
880.43	-0.000
880.60	-0.000
880.77	-0.000
880.94	-0.000
881.11	-0.000
881.27	-0.000
881.44	-0.000
881.61	-0.000
881.78	-0.000
881.95	-0.000
882.12	-0.000
882.29	-0.000
882.46	-0.000
882.63	-0.000
882.80	-0.000
882.97	-0.000
883.14	-0.000
883.30	-0.000
883.47	-0.000
883.64	-0.000
883.81	-0.000
883.98	-0.000
884.15	-0.000
884.32	-0.000
884.49	-0.000
884.66	-0.000
884.82	-0.000
884.99	-0.000
885.16	-0.000
885.33	-0.000
885.50	-0.000
885.67	-0.000
885.84	-0.000
886.01	-0.000
886.17	-0.000
886.34	-0.000
886.51	-0.000
886.68	-0.000
886.85	-0.000
887.02	-0.000
887.19	-0.000
887.36	-0.000
887.52	-0.000
887.69	-0.000
887.86	-0.000
888.03	-0.000
888.20	-0.000
888.37	-0.000
888.54	-0.000
888.70	-0.000
888.87	-0.000
889.04	-0.000
889.21	-0.000
889.38	-0.000
889.55	-0.000
889.71	-0.000
889.88	-0.000
890.05	-0.000
890.22	-0.000
890.39	-0.000
>>>>>End Processed Spectral Data<<<<<
