SpectraSuite Data File
++++++++++++++++++++++++++++++++++++
Date: Fri Jun 19 13:44:54 CEST 2015
User: introlabs
Dark Spectrum Present: Yes
Reference Spectrum Present: Yes
Number of Sampled Component Spectra: 1
Spectrometers: USB4H08886
Integration Time (usec): 745692 (USB4H08886)
Spectra Averaged: 5 (USB4H08886)
Boxcar Smoothing: 5 (USB4H08886)
Correct for Electrical Dark: Yes (USB4H08886)
Strobe/Lamp Enabled: No (USB4H08886)
Correct for Detector Non-linearity: Yes (USB4H08886)
Correct for Stray Light: Yes (USB4H08886)
Number of Pixels in Processed Spectrum: 3648
>>>>>Begin Processed Spectral Data<<<<<
178.14	-0.000
178.36	-0.000
178.57	-0.000
178.79	-0.000
179.01	-0.000
179.22	-0.000
179.44	-0.000
179.65	-0.000
179.87	-0.000
180.08	-0.000
180.30	-0.000
180.52	-0.000
180.73	-0.000
180.95	-0.000
181.16	-0.000
181.38	-0.000
181.59	-0.000
181.81	-0.000
182.03	-0.000
182.24	-0.000
182.46	-0.000
182.67	-0.000
182.89	-0.000
183.10	-0.000
183.32	-0.000
183.54	-0.000
183.75	-0.000
183.97	-0.000
184.18	-0.000
184.40	-0.000
184.61	-0.000
184.83	-0.000
185.04	-0.000
185.26	-0.000
185.48	-0.000
185.69	-0.000
185.91	-0.000
186.12	-0.000
186.34	-0.000
186.55	-0.000
186.77	-0.000
186.98	-0.000
187.20	-0.000
187.42	-0.000
187.63	-0.000
187.85	-0.000
188.06	-0.000
188.28	-0.000
188.49	-0.000
188.71	-0.000
188.92	-0.000
189.14	-0.000
189.36	-0.000
189.57	-0.000
189.79	-0.000
190.00	-0.000
190.22	-0.000
190.43	-0.000
190.65	-0.000
190.86	-0.000
191.08	-0.000
191.29	-0.000
191.51	-0.000
191.72	-0.000
191.94	-0.000
192.16	-0.000
192.37	-0.000
192.59	-0.000
192.80	-0.000
193.02	-0.000
193.23	-0.000
193.45	-0.000
193.66	-0.000
193.88	-0.000
194.09	-0.000
194.31	-0.000
194.52	-0.000
194.74	-0.000
194.95	-0.000
195.17	-0.000
195.38	-0.000
195.60	-0.000
195.81	-0.000
196.03	-0.000
196.25	-0.000
196.46	-0.000
196.68	-0.000
196.89	-0.000
197.11	-0.000
197.32	-0.000
197.54	-0.000
197.75	-0.000
197.97	-0.000
198.18	-0.000
198.40	-0.000
198.61	-0.000
198.83	-0.000
199.04	-0.000
199.26	-0.000
199.47	-0.000
199.69	-0.000
199.90	-0.000
200.12	-0.000
200.33	-0.000
200.55	-0.000
200.76	-0.000
200.98	-0.000
201.19	-0.000
201.41	-0.000
201.62	-0.000
201.84	-0.000
202.05	-0.000
202.27	-0.000
202.48	-0.000
202.70	-0.000
202.91	-0.000
203.13	-0.000
203.34	-0.000
203.56	-0.000
203.77	-0.000
203.99	-0.000
204.20	-0.000
204.42	-0.000
204.63	-0.000
204.85	-0.000
205.06	-0.000
205.28	-0.000
205.49	-0.000
205.71	-0.000
205.92	-0.000
206.14	-0.000
206.35	-0.000
206.56	-0.000
206.78	-0.000
206.99	-0.000
207.21	-0.000
207.42	-0.000
207.64	-0.000
207.85	-0.000
208.07	-0.000
208.28	-0.000
208.50	-0.000
208.71	-0.000
208.93	-0.000
209.14	-0.000
209.36	-0.000
209.57	-0.000
209.79	-0.000
210.00	-0.000
210.22	-0.000
210.43	-0.000
210.64	-0.000
210.86	-0.000
211.07	-0.000
211.29	-0.000
211.50	-0.000
211.72	-0.000
211.93	-0.000
212.15	-0.000
212.36	-0.000
212.58	-0.000
212.79	-0.000
213.01	-0.000
213.22	-0.000
213.43	-0.000
213.65	-0.000
213.86	-0.000
214.08	-0.000
214.29	-0.000
214.51	-0.000
214.72	-0.000
214.94	-0.000
215.15	-0.000
215.36	-0.000
215.58	-0.000
215.79	-0.000
216.01	-0.000
216.22	-0.000
216.44	-0.000
216.65	-0.000
216.87	-0.000
217.08	-0.000
217.29	-0.000
217.51	-0.000
217.72	-0.000
217.94	-0.000
218.15	-0.000
218.37	-0.000
218.58	-0.000
218.80	-0.000
219.01	-0.000
219.22	-0.000
219.44	-0.000
219.65	-0.000
219.87	-0.000
220.08	-0.000
220.30	-0.000
220.51	-0.000
220.72	-0.000
220.94	-0.000
221.15	-0.000
221.37	-0.000
221.58	-0.000
221.79	-0.000
222.01	-0.000
222.22	-0.000
222.44	-0.000
222.65	-0.000
222.87	-0.000
223.08	-0.000
223.29	-0.000
223.51	-0.000
223.72	-0.000
223.94	-0.000
224.15	-0.000
224.36	-0.000
224.58	-0.000
224.79	-0.000
225.01	-0.000
225.22	-0.000
225.44	-0.000
225.65	-0.000
225.86	-0.000
226.08	-0.000
226.29	-0.000
226.51	-0.000
226.72	-0.000
226.93	-0.000
227.15	-0.000
227.36	-0.000
227.58	-0.000
227.79	-0.000
228.00	-0.000
228.22	-0.000
228.43	-0.000
228.65	-0.000
228.86	-0.000
229.07	-0.000
229.29	-0.000
229.50	-0.000
229.72	-0.000
229.93	-0.000
230.14	-0.000
230.36	-0.000
230.57	-0.000
230.78	-0.000
231.00	-0.000
231.21	-0.000
231.43	-0.000
231.64	-0.000
231.85	-0.000
232.07	-0.000
232.28	-0.000
232.50	-0.000
232.71	-0.000
232.92	-0.000
233.14	-0.000
233.35	-0.000
233.56	-0.000
233.78	-0.000
233.99	-0.000
234.21	-0.000
234.42	-0.000
234.63	-0.000
234.85	-0.000
235.06	-0.000
235.27	-0.000
235.49	-0.000
235.70	-0.000
235.91	-0.000
236.13	-0.000
236.34	-0.000
236.56	-0.000
236.77	-0.000
236.98	-0.000
237.20	-0.000
237.41	-0.000
237.62	-0.000
237.84	-0.000
238.05	-0.000
238.26	-0.000
238.48	-0.000
238.69	-0.000
238.91	-0.000
239.12	-0.000
239.33	-0.000
239.55	-0.000
239.76	-0.000
239.97	-0.000
240.19	-0.000
240.40	-0.000
240.61	-0.000
240.83	-0.000
241.04	-0.000
241.25	-0.000
241.47	-0.000
241.68	-0.000
241.89	-0.000
242.11	-0.000
242.32	-0.000
242.53	-0.000
242.75	-0.000
242.96	-0.000
243.17	-0.000
243.39	-0.000
243.60	-0.000
243.81	-0.000
244.03	-0.000
244.24	-0.000
244.45	-0.000
244.67	-0.000
244.88	-0.000
245.09	-0.000
245.31	-0.000
245.52	-0.000
245.73	-0.000
245.95	-0.000
246.16	-0.000
246.37	-0.000
246.59	-0.000
246.80	-0.000
247.01	-0.000
247.23	-0.000
247.44	-0.000
247.65	-0.000
247.87	-0.000
248.08	-0.000
248.29	-0.000
248.51	-0.000
248.72	-0.000
248.93	-0.000
249.15	-0.000
249.36	-0.000
249.57	-0.000
249.78	-0.000
250.00	-0.000
250.21	-0.000
250.42	-0.000
250.64	-0.000
250.85	-0.000
251.06	-0.000
251.28	-0.000
251.49	-0.000
251.70	-0.000
251.92	-0.000
252.13	-0.000
252.34	-0.000
252.55	-0.000
252.77	-0.000
252.98	-0.000
253.19	-0.000
253.41	-0.000
253.62	-0.000
253.83	-0.000
254.05	-0.000
254.26	-0.000
254.47	-0.000
254.68	-0.000
254.90	-0.000
255.11	-0.000
255.32	-0.000
255.54	-0.000
255.75	-0.000
255.96	-0.000
256.17	-0.000
256.39	-0.000
256.60	-0.000
256.81	-0.000
257.03	-0.000
257.24	-0.000
257.45	-0.000
257.66	-0.000
257.88	-0.000
258.09	-0.000
258.30	-0.000
258.51	-0.000
258.73	-0.000
258.94	-0.000
259.15	-0.000
259.37	-0.000
259.58	-0.000
259.79	-0.000
260.00	-0.000
260.22	-0.000
260.43	-0.000
260.64	-0.000
260.85	-0.000
261.07	-0.000
261.28	-0.000
261.49	-0.000
261.71	-0.000
261.92	-0.000
262.13	-0.000
262.34	-0.000
262.56	-0.000
262.77	-0.000
262.98	-0.000
263.19	-0.000
263.41	-0.000
263.62	-0.000
263.83	-0.000
264.04	-0.000
264.26	-0.000
264.47	-0.000
264.68	-0.000
264.89	-0.000
265.11	-0.000
265.32	-0.000
265.53	-0.000
265.74	-0.000
265.96	-0.000
266.17	-0.000
266.38	-0.000
266.59	-0.000
266.81	-0.000
267.02	-0.000
267.23	-0.000
267.44	-0.000
267.65	-0.000
267.87	-0.000
268.08	-0.000
268.29	-0.000
268.50	-0.000
268.72	-0.000
268.93	-0.000
269.14	-0.000
269.35	-0.000
269.57	-0.000
269.78	-0.000
269.99	-0.000
270.20	-0.000
270.41	-0.000
270.63	-0.000
270.84	-0.000
271.05	-0.000
271.26	-0.000
271.48	-0.000
271.69	-0.000
271.90	-0.000
272.11	-0.000
272.32	-0.000
272.54	-0.000
272.75	-0.000
272.96	-0.000
273.17	-0.000
273.39	-0.000
273.60	-0.000
273.81	-0.000
274.02	-0.000
274.23	-0.000
274.45	-0.000
274.66	-0.000
274.87	-0.000
275.08	-0.000
275.29	-0.000
275.51	-0.000
275.72	-0.000
275.93	-0.000
276.14	-0.000
276.35	-0.000
276.57	-0.000
276.78	-0.000
276.99	-0.000
277.20	-0.000
277.41	-0.000
277.63	-0.000
277.84	-0.000
278.05	-0.000
278.26	-0.000
278.47	-0.000
278.69	-0.000
278.90	-0.000
279.11	-0.000
279.32	-0.000
279.53	-0.000
279.74	-0.000
279.96	-0.000
280.17	-0.000
280.38	-0.000
280.59	-0.000
280.80	-0.000
281.02	-0.000
281.23	-0.000
281.44	-0.000
281.65	-0.000
281.86	-0.000
282.07	-0.000
282.29	-0.000
282.50	-0.000
282.71	-0.000
282.92	-0.000
283.13	-0.000
283.35	-0.000
283.56	-0.000
283.77	-0.000
283.98	-0.000
284.19	-0.000
284.40	-0.000
284.62	-0.000
284.83	-0.000
285.04	-0.000
285.25	-0.000
285.46	-0.000
285.67	-0.000
285.88	-0.000
286.10	-0.000
286.31	-0.000
286.52	-0.000
286.73	-0.000
286.94	-0.000
287.15	-0.000
287.37	-0.000
287.58	-0.000
287.79	-0.000
288.00	-0.000
288.21	-0.000
288.42	-0.000
288.63	-0.000
288.85	-0.000
289.06	-0.000
289.27	-0.000
289.48	-0.000
289.69	-0.000
289.90	-0.000
290.11	-0.000
290.33	-0.000
290.54	-0.000
290.75	-0.000
290.96	-0.000
291.17	-0.000
291.38	-0.000
291.59	-0.000
291.81	-0.000
292.02	-0.000
292.23	-0.000
292.44	-0.000
292.65	-0.000
292.86	-0.000
293.07	-0.000
293.28	-0.000
293.50	-0.000
293.71	-0.000
293.92	-0.000
294.13	-0.000
294.34	-0.000
294.55	-0.000
294.76	-0.000
294.97	-0.000
295.19	-0.000
295.40	-0.000
295.61	-0.000
295.82	-0.000
296.03	-0.000
296.24	-0.000
296.45	-0.000
296.66	3.009
296.87	3.403
297.09	-0.000
297.30	-0.000
297.51	2.440
297.72	2.306
297.93	3.191
298.14	2.650
298.35	2.380
298.56	2.282
298.77	-0.000
298.99	3.103
299.20	2.628
299.41	2.457
299.62	2.263
299.83	2.228
300.04	2.003
300.25	1.988
300.46	2.112
300.67	2.040
300.88	1.892
301.10	1.896
301.31	2.071
301.52	1.897
301.73	1.774
301.94	1.770
302.15	1.800
302.36	1.716
302.57	1.601
302.78	1.615
302.99	1.677
303.20	1.704
303.41	1.560
303.63	1.530
303.84	1.543
304.05	1.530
304.26	1.447
304.47	1.453
304.68	1.453
304.89	1.439
305.10	1.382
305.31	1.365
305.52	1.419
305.73	1.409
305.94	1.359
306.15	1.350
306.37	1.379
306.58	1.387
306.79	1.344
307.00	1.373
307.21	1.426
307.42	1.415
307.63	1.367
307.84	1.325
308.05	1.373
308.26	1.372
308.47	1.342
308.68	1.339
308.89	1.342
309.10	1.339
309.31	1.288
309.52	1.275
309.73	1.293
309.95	1.288
310.16	1.250
310.37	1.232
310.58	1.256
310.79	1.253
311.00	1.245
311.21	1.246
311.42	1.248
311.63	1.243
311.84	1.222
312.05	1.221
312.26	1.249
312.47	1.263
312.68	1.235
312.89	1.211
313.10	1.223
313.31	1.192
313.52	1.195
313.73	1.195
313.94	1.198
314.15	1.177
314.36	1.151
314.57	1.141
314.78	1.128
314.99	1.122
315.21	1.108
315.42	1.111
315.63	1.125
315.84	1.097
316.05	1.083
316.26	1.092
316.47	1.113
316.68	1.109
316.89	1.087
317.10	1.107
317.31	1.114
317.52	1.116
317.73	1.092
317.94	1.092
318.15	1.137
318.36	1.138
318.57	1.116
318.78	1.102
318.99	1.140
319.20	1.137
319.41	1.101
319.62	1.102
319.83	1.117
320.04	1.110
320.25	1.093
320.46	1.060
320.67	1.063
320.88	1.060
321.09	1.045
321.30	1.027
321.51	1.043
321.72	1.042
321.93	1.023
322.14	1.015
322.35	1.045
322.56	1.047
322.77	1.032
322.98	1.044
323.19	1.052
323.40	1.057
323.61	1.036
323.82	1.030
324.03	1.036
324.24	1.033
324.45	1.019
324.66	0.997
324.87	0.994
325.08	0.995
325.29	0.973
325.50	0.966
325.71	0.972
325.92	0.979
326.13	0.966
326.34	0.967
326.55	0.975
326.76	0.972
326.97	0.961
327.18	0.955
327.39	0.981
327.60	0.981
327.80	0.981
328.01	0.980
328.22	0.980
328.43	0.984
328.64	0.969
328.85	0.975
329.06	0.978
329.27	0.977
329.48	0.972
329.69	0.952
329.90	0.962
330.11	0.956
330.32	0.948
330.53	0.941
330.74	0.941
330.95	0.940
331.16	0.925
331.37	0.934
331.58	0.934
331.79	0.934
332.00	0.924
332.21	0.917
332.42	0.921
332.63	0.912
332.83	0.908
333.04	0.910
333.25	0.922
333.46	0.919
333.67	0.905
333.88	0.909
334.09	0.920
334.30	0.917
334.51	0.908
334.72	0.902
334.93	0.904
335.14	0.903
335.35	0.894
335.56	0.890
335.77	0.898
335.98	0.897
336.18	0.888
336.39	0.880
336.60	0.885
336.81	0.883
337.02	0.883
337.23	0.889
337.44	0.893
337.65	0.894
337.86	0.884
338.07	0.880
338.28	0.885
338.49	0.883
338.70	0.876
338.91	0.883
339.11	0.891
339.32	0.886
339.53	0.873
339.74	0.870
339.95	0.867
340.16	0.865
340.37	0.856
340.58	0.854
340.79	0.857
341.00	0.856
341.21	0.844
341.41	0.844
341.62	0.847
341.83	0.848
342.04	0.843
342.25	0.854
342.46	0.859
342.67	0.857
342.88	0.851
343.09	0.851
343.30	0.859
343.50	0.863
343.71	0.853
343.92	0.851
344.13	0.857
344.34	0.857
344.55	0.840
344.76	0.840
344.97	0.844
345.18	0.843
345.38	0.840
345.59	0.834
345.80	0.833
346.01	0.830
346.22	0.825
346.43	0.819
346.64	0.827
346.85	0.825
347.06	0.817
347.26	0.818
347.47	0.821
347.68	0.817
347.89	0.812
348.10	0.806
348.31	0.813
348.52	0.811
348.73	0.809
348.93	0.806
349.14	0.809
349.35	0.808
349.56	0.801
349.77	0.797
349.98	0.803
350.19	0.801
350.39	0.797
350.60	0.795
350.81	0.811
351.02	0.810
351.23	0.804
351.44	0.808
351.65	0.812
351.86	0.810
352.06	0.808
352.27	0.808
352.48	0.810
352.69	0.808
352.90	0.802
353.11	0.788
353.31	0.796
353.52	0.792
353.73	0.783
353.94	0.783
354.15	0.789
354.36	0.789
354.57	0.780
354.77	0.782
354.98	0.782
355.19	0.781
355.40	0.782
355.61	0.789
355.82	0.794
356.02	0.793
356.23	0.786
356.44	0.787
356.65	0.792
356.86	0.793
357.07	0.787
357.27	0.791
357.48	0.793
357.69	0.788
357.90	0.772
358.11	0.767
358.32	0.772
358.52	0.775
358.73	0.765
358.94	0.767
359.15	0.771
359.36	0.771
359.56	0.766
359.77	0.763
359.98	0.770
360.19	0.769
360.40	0.766
360.61	0.767
360.81	0.766
361.02	0.767
361.23	0.758
361.44	0.757
361.65	0.758
361.85	0.757
362.06	0.756
362.27	0.758
362.48	0.759
362.69	0.761
362.89	0.754
363.10	0.756
363.31	0.760
363.52	0.763
363.73	0.757
363.93	0.757
364.14	0.759
364.35	0.761
364.56	0.750
364.77	0.751
364.97	0.754
365.18	0.755
365.39	0.749
365.60	0.745
365.81	0.746
366.01	0.746
366.22	0.742
366.43	0.742
366.64	0.744
366.84	0.750
367.05	0.747
367.26	0.746
367.47	0.748
367.68	0.748
367.88	0.746
368.09	0.743
368.30	0.746
368.51	0.746
368.71	0.744
368.92	0.748
369.13	0.746
369.34	0.746
369.55	0.745
369.75	0.746
369.96	0.752
370.17	0.752
370.38	0.750
370.58	0.750
370.79	0.755
371.00	0.753
371.21	0.744
371.41	0.749
371.62	0.753
371.83	0.748
372.04	0.745
372.24	0.738
372.45	0.739
372.66	0.739
372.87	0.735
373.07	0.732
373.28	0.733
373.49	0.736
373.70	0.727
373.90	0.726
374.11	0.736
374.32	0.735
374.53	0.733
374.73	0.734
374.94	0.737
375.15	0.738
375.36	0.734
375.56	0.743
375.77	0.743
375.98	0.743
376.19	0.741
376.39	0.734
376.60	0.737
376.81	0.738
377.02	0.735
377.22	0.734
377.43	0.733
377.64	0.734
377.84	0.724
378.05	0.729
378.26	0.736
378.47	0.735
378.67	0.732
378.88	0.729
379.09	0.730
379.30	0.730
379.50	0.728
379.71	0.730
379.92	0.733
380.12	0.733
380.33	0.724
380.54	0.720
380.75	0.727
380.95	0.727
381.16	0.725
381.37	0.726
381.57	0.728
381.78	0.729
381.99	0.728
382.20	0.728
382.40	0.730
382.61	0.731
382.82	0.726
383.02	0.720
383.23	0.723
383.44	0.724
383.64	0.722
383.85	0.724
384.06	0.727
384.27	0.724
384.47	0.722
384.68	0.723
384.89	0.729
385.09	0.728
385.30	0.728
385.51	0.727
385.71	0.729
385.92	0.729
386.13	0.728
386.33	0.730
386.54	0.731
386.75	0.730
386.95	0.725
387.16	0.720
387.37	0.723
387.58	0.723
387.78	0.721
387.99	0.719
388.20	0.721
388.40	0.718
388.61	0.712
388.82	0.715
389.02	0.718
389.23	0.718
389.44	0.716
389.64	0.717
389.85	0.728
390.06	0.726
390.26	0.727
390.47	0.726
390.68	0.728
390.88	0.727
391.09	0.723
391.30	0.722
391.50	0.722
391.71	0.721
391.92	0.718
392.12	0.711
392.33	0.712
392.53	0.712
392.74	0.713
392.95	0.712
393.15	0.715
393.36	0.717
393.57	0.715
393.77	0.718
393.98	0.721
394.19	0.720
394.39	0.719
394.60	0.720
394.81	0.722
395.01	0.719
395.22	0.717
395.43	0.717
395.63	0.722
395.84	0.723
396.04	0.718
396.25	0.720
396.46	0.722
396.66	0.720
396.87	0.718
397.08	0.714
397.28	0.716
397.49	0.718
397.69	0.715
397.90	0.710
398.11	0.711
398.31	0.712
398.52	0.708
398.73	0.708
398.93	0.707
399.14	0.706
399.34	0.706
399.55	0.707
399.76	0.707
399.96	0.708
400.17	0.706
400.37	0.704
400.58	0.711
400.79	0.714
400.99	0.711
401.20	0.717
401.41	0.719
401.61	0.719
401.82	0.724
402.02	0.723
402.23	0.724
402.44	0.724
402.64	0.723
402.85	0.718
403.05	0.716
403.26	0.715
403.47	0.708
403.67	0.708
403.88	0.709
404.08	0.704
404.29	0.702
404.50	0.702
404.70	0.702
404.91	0.701
405.11	0.698
405.32	0.699
405.52	0.700
405.73	0.699
405.94	0.697
406.14	0.699
406.35	0.701
406.55	0.700
406.76	0.697
406.97	0.698
407.17	0.701
407.38	0.701
407.58	0.699
407.79	0.701
407.99	0.704
408.20	0.704
408.41	0.700
408.61	0.697
408.82	0.699
409.02	0.698
409.23	0.696
409.43	0.695
409.64	0.696
409.84	0.696
410.05	0.692
410.26	0.691
410.46	0.691
410.67	0.691
410.87	0.693
411.08	0.694
411.28	0.696
411.49	0.697
411.69	0.694
411.90	0.696
412.11	0.698
412.31	0.699
412.52	0.697
412.72	0.697
412.93	0.698
413.13	0.697
413.34	0.693
413.54	0.695
413.75	0.696
413.95	0.696
414.16	0.693
414.37	0.695
414.57	0.696
414.78	0.698
414.98	0.696
415.19	0.697
415.39	0.695
415.60	0.697
415.80	0.697
416.01	0.695
416.21	0.697
416.42	0.697
416.62	0.692
416.83	0.692
417.03	0.692
417.24	0.692
417.44	0.690
417.65	0.689
417.86	0.689
418.06	0.687
418.27	0.685
418.47	0.687
418.68	0.688
418.88	0.688
419.09	0.686
419.29	0.687
419.50	0.688
419.70	0.688
419.91	0.687
420.11	0.684
420.32	0.687
420.52	0.687
420.73	0.686
420.93	0.687
421.14	0.688
421.34	0.687
421.55	0.683
421.75	0.683
421.96	0.684
422.16	0.685
422.37	0.684
422.57	0.681
422.78	0.682
422.98	0.679
423.19	0.676
423.39	0.674
423.60	0.679
423.80	0.680
424.01	0.678
424.21	0.681
424.42	0.682
424.62	0.681
424.83	0.681
425.03	0.681
425.23	0.684
425.44	0.685
425.64	0.685
425.85	0.683
426.05	0.685
426.26	0.686
426.46	0.682
426.67	0.681
426.87	0.686
427.08	0.686
427.28	0.683
427.49	0.684
427.69	0.685
427.90	0.684
428.10	0.681
428.31	0.680
428.51	0.681
428.71	0.680
428.92	0.681
429.12	0.678
429.33	0.679
429.53	0.684
429.74	0.688
429.94	0.688
430.15	0.687
430.35	0.688
430.56	0.685
430.76	0.685
430.96	0.686
431.17	0.684
431.37	0.681
431.58	0.679
431.78	0.675
431.99	0.668
432.19	0.670
432.40	0.672
432.60	0.672
432.80	0.675
433.01	0.673
433.21	0.673
433.42	0.675
433.62	0.676
433.83	0.675
434.03	0.678
434.23	0.681
434.44	0.681
434.64	0.678
434.85	0.683
435.05	0.685
435.26	0.685
435.46	0.683
435.66	0.683
435.87	0.683
436.07	0.683
436.28	0.679
436.48	0.676
436.69	0.675
436.89	0.675
437.09	0.668
437.30	0.666
437.50	0.667
437.71	0.679
437.91	0.677
438.11	0.679
438.32	0.684
438.52	0.684
438.73	0.683
438.93	0.682
439.13	0.681
439.34	0.685
439.54	0.684
439.75	0.684
439.95	0.674
440.15	0.678
440.36	0.676
440.56	0.674
440.77	0.674
440.97	0.674
441.17	0.673
441.38	0.675
441.58	0.672
441.79	0.672
441.99	0.670
442.19	0.668
442.40	0.666
442.60	0.666
442.81	0.664
443.01	0.664
443.21	0.665
443.42	0.665
443.62	0.664
443.82	0.664
444.03	0.665
444.23	0.666
444.44	0.666
444.64	0.664
444.84	0.665
445.05	0.665
445.25	0.663
445.45	0.663
445.66	0.665
445.86	0.664
446.06	0.665
446.27	0.664
446.47	0.667
446.68	0.665
446.88	0.665
447.08	0.664
447.29	0.667
447.49	0.667
447.69	0.666
447.90	0.665
448.10	0.669
448.30	0.666
448.51	0.668
448.71	0.666
448.91	0.668
449.12	0.667
449.32	0.668
449.52	0.667
449.73	0.671
449.93	0.671
450.14	0.672
450.34	0.671
450.54	0.673
450.75	0.670
450.95	0.669
451.15	0.669
451.36	0.671
451.56	0.668
451.76	0.667
451.97	0.664
452.17	0.664
452.37	0.663
452.58	0.659
452.78	0.659
452.98	0.662
453.19	0.661
453.39	0.662
453.59	0.660
453.79	0.661
454.00	0.662
454.20	0.661
454.40	0.661
454.61	0.663
454.81	0.664
455.01	0.662
455.22	0.663
455.42	0.665
455.62	0.663
455.83	0.663
456.03	0.666
456.23	0.667
456.44	0.668
456.64	0.667
456.84	0.668
457.04	0.668
457.25	0.668
457.45	0.665
457.65	0.663
457.86	0.664
458.06	0.663
458.26	0.657
458.47	0.656
458.67	0.658
458.87	0.658
459.07	0.654
459.28	0.656
459.48	0.659
459.68	0.659
459.89	0.658
460.09	0.657
460.29	0.659
460.49	0.660
460.70	0.660
460.90	0.659
461.10	0.659
461.31	0.659
461.51	0.657
461.71	0.659
461.91	0.660
462.12	0.660
462.32	0.660
462.52	0.660
462.72	0.663
462.93	0.663
463.13	0.662
463.33	0.663
463.53	0.666
463.74	0.664
463.94	0.660
464.14	0.660
464.35	0.661
464.55	0.661
464.75	0.660
464.95	0.658
465.16	0.659
465.36	0.658
465.56	0.657
465.76	0.656
465.97	0.657
466.17	0.658
466.37	0.655
466.57	0.656
466.78	0.657
466.98	0.657
467.18	0.655
467.38	0.653
467.59	0.655
467.79	0.656
467.99	0.655
468.19	0.655
468.39	0.658
468.60	0.659
468.80	0.656
469.00	0.658
469.20	0.659
469.41	0.659
469.61	0.659
469.81	0.659
470.01	0.658
470.22	0.659
470.42	0.657
470.62	0.656
470.82	0.657
471.02	0.656
471.23	0.654
471.43	0.654
471.63	0.657
471.83	0.656
472.04	0.654
472.24	0.653
472.44	0.658
472.64	0.658
472.84	0.656
473.05	0.656
473.25	0.659
473.45	0.658
473.65	0.656
473.85	0.656
474.06	0.658
474.26	0.658
474.46	0.659
474.66	0.655
474.86	0.656
475.07	0.656
475.27	0.654
475.47	0.651
475.67	0.652
475.87	0.654
476.08	0.651
476.28	0.652
476.48	0.654
476.68	0.652
476.88	0.650
477.09	0.652
477.29	0.654
477.49	0.655
477.69	0.653
477.89	0.654
478.09	0.653
478.30	0.656
478.50	0.652
478.70	0.652
478.90	0.653
479.10	0.656
479.31	0.656
479.51	0.654
479.71	0.655
479.91	0.655
480.11	0.653
480.31	0.653
480.52	0.651
480.72	0.651
480.92	0.650
481.12	0.649
481.32	0.646
481.52	0.644
481.72	0.644
481.93	0.647
482.13	0.648
482.33	0.648
482.53	0.646
482.73	0.647
482.93	0.648
483.14	0.648
483.34	0.648
483.54	0.648
483.74	0.648
483.94	0.647
484.14	0.642
484.34	0.642
484.55	0.643
484.75	0.642
484.95	0.640
485.15	0.639
485.35	0.639
485.55	0.639
485.75	0.637
485.96	0.637
486.16	0.639
486.36	0.639
486.56	0.637
486.76	0.637
486.96	0.638
487.16	0.637
487.36	0.636
487.57	0.636
487.77	0.636
487.97	0.636
488.17	0.634
488.37	0.633
488.57	0.634
488.77	0.635
488.97	0.633
489.18	0.633
489.38	0.636
489.58	0.637
489.78	0.636
489.98	0.636
490.18	0.637
490.38	0.637
490.58	0.636
490.78	0.636
490.98	0.638
491.19	0.638
491.39	0.637
491.59	0.635
491.79	0.638
491.99	0.638
492.19	0.637
492.39	0.640
492.59	0.640
492.79	0.642
492.99	0.642
493.20	0.642
493.40	0.642
493.60	0.644
493.80	0.643
494.00	0.641
494.20	0.641
494.40	0.641
494.60	0.638
494.80	0.643
495.00	0.642
495.20	0.640
495.40	0.639
495.61	0.641
495.81	0.641
496.01	0.644
496.21	0.645
496.41	0.644
496.61	0.645
496.81	0.644
497.01	0.639
497.21	0.638
497.41	0.639
497.61	0.639
497.81	0.637
498.01	0.637
498.21	0.635
498.41	0.632
498.61	0.632
498.82	0.634
499.02	0.636
499.22	0.637
499.42	0.636
499.62	0.637
499.82	0.638
500.02	0.639
500.22	0.637
500.42	0.639
500.62	0.640
500.82	0.641
501.02	0.639
501.22	0.639
501.42	0.639
501.62	0.640
501.82	0.640
502.02	0.640
502.22	0.639
502.42	0.641
502.62	0.639
502.82	0.640
503.02	0.640
503.22	0.640
503.42	0.638
503.63	0.638
503.83	0.636
504.03	0.634
504.23	0.633
504.43	0.633
504.63	0.634
504.83	0.634
505.03	0.632
505.23	0.634
505.43	0.635
505.63	0.636
505.83	0.636
506.03	0.637
506.23	0.640
506.43	0.641
506.63	0.640
506.83	0.639
507.03	0.641
507.23	0.641
507.43	0.638
507.63	0.639
507.83	0.639
508.03	0.639
508.23	0.639
508.43	0.638
508.63	0.639
508.83	0.640
509.03	0.641
509.23	0.639
509.43	0.641
509.63	0.641
509.83	0.639
510.03	0.642
510.23	0.644
510.43	0.644
510.63	0.645
510.83	0.645
511.03	0.647
511.23	0.644
511.43	0.644
511.63	0.646
511.83	0.648
512.03	0.648
512.22	0.645
512.42	0.645
512.62	0.646
512.82	0.645
513.02	0.644
513.22	0.644
513.42	0.646
513.62	0.648
513.82	0.646
514.02	0.646
514.22	0.647
514.42	0.647
514.62	0.647
514.82	0.647
515.02	0.650
515.22	0.653
515.42	0.652
515.62	0.654
515.82	0.653
516.02	0.655
516.22	0.654
516.42	0.656
516.62	0.658
516.82	0.659
517.01	0.657
517.21	0.656
517.41	0.660
517.61	0.660
517.81	0.656
518.01	0.656
518.21	0.655
518.41	0.654
518.61	0.653
518.81	0.653
519.01	0.654
519.21	0.654
519.41	0.653
519.61	0.647
519.81	0.650
520.00	0.651
520.20	0.651
520.40	0.655
520.60	0.656
520.80	0.655
521.00	0.655
521.20	0.656
521.40	0.661
521.60	0.661
521.80	0.661
522.00	0.660
522.20	0.663
522.39	0.662
522.59	0.659
522.79	0.660
522.99	0.663
523.19	0.661
523.39	0.659
523.59	0.657
523.79	0.660
523.99	0.662
524.19	0.661
524.38	0.659
524.58	0.661
524.78	0.661
524.98	0.660
525.18	0.662
525.38	0.663
525.58	0.663
525.78	0.661
525.98	0.658
526.18	0.659
526.37	0.658
526.57	0.659
526.77	0.659
526.97	0.660
527.17	0.661
527.37	0.657
527.57	0.659
527.77	0.660
527.96	0.660
528.16	0.659
528.36	0.660
528.56	0.663
528.76	0.661
528.96	0.660
529.16	0.660
529.36	0.663
529.55	0.664
529.75	0.660
529.95	0.661
530.15	0.663
530.35	0.666
530.55	0.663
530.75	0.663
530.94	0.665
531.14	0.666
531.34	0.664
531.54	0.662
531.74	0.665
531.94	0.669
532.13	0.666
532.33	0.668
532.53	0.666
532.73	0.666
532.93	0.664
533.13	0.665
533.33	0.665
533.52	0.665
533.72	0.668
533.92	0.667
534.12	0.665
534.32	0.666
534.52	0.664
534.71	0.666
534.91	0.669
535.11	0.670
535.31	0.669
535.51	0.671
535.71	0.672
535.90	0.669
536.10	0.671
536.30	0.672
536.50	0.673
536.70	0.673
536.89	0.670
537.09	0.669
537.29	0.670
537.49	0.671
537.69	0.669
537.89	0.670
538.08	0.669
538.28	0.667
538.48	0.668
538.68	0.670
538.88	0.672
539.07	0.672
539.27	0.671
539.47	0.671
539.67	0.671
539.87	0.673
540.06	0.670
540.26	0.671
540.46	0.674
540.66	0.671
540.86	0.668
541.05	0.667
541.25	0.669
541.45	0.669
541.65	0.667
541.84	0.668
542.04	0.668
542.24	0.669
542.44	0.668
542.64	0.669
542.83	0.672
543.03	0.673
543.23	0.671
543.43	0.672
543.62	0.673
543.82	0.674
544.02	0.673
544.22	0.673
544.42	0.677
544.61	0.677
544.81	0.672
545.01	0.671
545.21	0.673
545.40	0.673
545.60	0.671
545.80	0.674
546.00	0.675
546.19	0.674
546.39	0.673
546.59	0.670
546.79	0.672
546.98	0.673
547.18	0.673
547.38	0.674
547.58	0.677
547.77	0.677
547.97	0.673
548.17	0.675
548.37	0.675
548.56	0.676
548.76	0.675
548.96	0.677
549.16	0.679
549.35	0.678
549.55	0.676
549.75	0.676
549.95	0.680
550.14	0.680
550.34	0.679
550.54	0.684
550.73	0.688
550.93	0.689
551.13	0.685
551.33	0.684
551.52	0.685
551.72	0.685
551.92	0.683
552.12	0.683
552.31	0.684
552.51	0.684
552.71	0.679
552.90	0.679
553.10	0.680
553.30	0.680
553.50	0.679
553.69	0.680
553.89	0.680
554.09	0.680
554.28	0.677
554.48	0.679
554.68	0.680
554.87	0.680
555.07	0.677
555.27	0.677
555.47	0.679
555.66	0.680
555.86	0.678
556.06	0.681
556.25	0.683
556.45	0.691
556.65	0.689
556.84	0.693
557.04	0.697
557.24	0.698
557.43	0.698
557.63	0.701
557.83	0.703
558.02	0.704
558.22	0.707
558.42	0.707
558.61	0.700
558.81	0.701
559.01	0.696
559.21	0.696
559.40	0.698
559.60	0.698
559.80	0.693
559.99	0.695
560.19	0.696
560.39	0.690
560.58	0.689
560.78	0.688
560.97	0.692
561.17	0.690
561.37	0.688
561.56	0.688
561.76	0.689
561.96	0.689
562.15	0.686
562.35	0.688
562.55	0.690
562.74	0.690
562.94	0.688
563.14	0.686
563.33	0.687
563.53	0.687
563.73	0.685
563.92	0.686
564.12	0.688
564.31	0.691
564.51	0.688
564.71	0.690
564.90	0.693
565.10	0.694
565.30	0.696
565.49	0.698
565.69	0.700
565.89	0.700
566.08	0.698
566.28	0.699
566.47	0.701
566.67	0.700
566.87	0.696
567.06	0.698
567.26	0.704
567.46	0.700
567.65	0.699
567.85	0.700
568.04	0.703
568.24	0.702
568.44	0.699
568.63	0.697
568.83	0.699
569.02	0.698
569.22	0.693
569.42	0.689
569.61	0.691
569.81	0.689
570.00	0.687
570.20	0.689
570.40	0.690
570.59	0.690
570.79	0.687
570.98	0.686
571.18	0.687
571.38	0.687
571.57	0.684
571.77	0.681
571.96	0.685
572.16	0.683
572.35	0.677
572.55	0.678
572.75	0.675
572.94	0.675
573.14	0.673
573.33	0.674
573.53	0.675
573.73	0.674
573.92	0.672
574.12	0.670
574.31	0.673
574.51	0.674
574.70	0.670
574.90	0.672
575.09	0.675
575.29	0.674
575.49	0.672
575.68	0.672
575.88	0.674
576.07	0.675
576.27	0.673
576.46	0.672
576.66	0.671
576.86	0.670
577.05	0.668
577.25	0.666
577.44	0.668
577.64	0.668
577.83	0.666
578.03	0.667
578.22	0.666
578.42	0.665
578.61	0.663
578.81	0.664
579.00	0.665
579.20	0.665
579.40	0.664
579.59	0.663
579.79	0.663
579.98	0.662
580.18	0.661
580.37	0.662
580.57	0.664
580.76	0.669
580.96	0.667
581.15	0.668
581.35	0.670
581.54	0.669
581.74	0.669
581.93	0.671
582.13	0.672
582.32	0.670
582.52	0.668
582.71	0.667
582.91	0.663
583.10	0.663
583.30	0.662
583.49	0.661
583.69	0.665
583.88	0.666
584.08	0.664
584.27	0.666
584.47	0.669
584.66	0.670
584.86	0.669
585.05	0.671
585.25	0.674
585.44	0.673
585.64	0.671
585.83	0.668
586.03	0.669
586.22	0.668
586.42	0.664
586.61	0.665
586.81	0.668
587.00	0.668
587.20	0.666
587.39	0.666
587.59	0.669
587.78	0.670
587.98	0.671
588.17	0.672
588.37	0.674
588.56	0.677
588.76	0.673
588.95	0.673
589.15	0.677
589.34	0.680
589.54	0.678
589.73	0.678
589.92	0.682
590.12	0.681
590.31	0.679
590.51	0.684
590.70	0.685
590.90	0.686
591.09	0.684
591.29	0.682
591.48	0.682
591.68	0.682
591.87	0.681
592.06	0.680
592.26	0.682
592.45	0.681
592.65	0.675
592.84	0.674
593.04	0.676
593.23	0.678
593.43	0.676
593.62	0.676
593.81	0.677
594.01	0.676
594.20	0.674
594.40	0.673
594.59	0.675
594.79	0.677
594.98	0.675
595.17	0.675
595.37	0.676
595.56	0.678
595.76	0.676
595.95	0.678
596.14	0.681
596.34	0.682
596.53	0.681
596.73	0.682
596.92	0.683
597.12	0.686
597.31	0.685
597.50	0.684
597.70	0.687
597.89	0.687
598.09	0.683
598.28	0.685
598.47	0.687
598.67	0.685
598.86	0.682
599.06	0.684
599.25	0.684
599.44	0.682
599.64	0.680
599.83	0.677
600.03	0.680
600.22	0.681
600.41	0.680
600.61	0.678
600.80	0.681
601.00	0.681
601.19	0.676
601.38	0.675
601.58	0.677
601.77	0.678
601.96	0.680
602.16	0.681
602.35	0.690
602.55	0.687
602.74	0.687
602.93	0.689
603.13	0.694
603.32	0.696
603.51	0.695
603.71	0.699
603.90	0.701
604.09	0.701
604.29	0.699
604.48	0.693
604.68	0.696
604.87	0.694
605.06	0.690
605.26	0.686
605.45	0.687
605.64	0.686
605.84	0.682
606.03	0.681
606.22	0.680
606.42	0.679
606.61	0.674
606.80	0.674
607.00	0.677
607.19	0.677
607.38	0.676
607.58	0.677
607.77	0.680
607.96	0.680
608.16	0.678
608.35	0.683
608.54	0.687
608.74	0.690
608.93	0.695
609.12	0.698
609.32	0.702
609.51	0.705
609.70	0.704
609.90	0.705
610.09	0.710
610.28	0.715
610.48	0.709
610.67	0.710
610.86	0.711
611.06	0.706
611.25	0.702
611.44	0.703
611.64	0.703
611.83	0.705
612.02	0.701
612.21	0.700
612.41	0.699
612.60	0.698
612.79	0.694
612.99	0.694
613.18	0.696
613.37	0.694
613.57	0.691
613.76	0.693
613.95	0.691
614.14	0.690
614.34	0.687
614.53	0.688
614.72	0.692
614.92	0.692
615.11	0.689
615.30	0.686
615.49	0.687
615.69	0.690
615.88	0.687
616.07	0.688
616.26	0.691
616.46	0.692
616.65	0.689
616.84	0.687
617.04	0.688
617.23	0.692
617.42	0.692
617.61	0.695
617.81	0.696
618.00	0.698
618.19	0.697
618.38	0.700
618.58	0.704
618.77	0.705
618.96	0.705
619.15	0.707
619.35	0.709
619.54	0.710
619.73	0.706
619.92	0.708
620.12	0.713
620.31	0.713
620.50	0.708
620.69	0.707
620.89	0.711
621.08	0.711
621.27	0.711
621.46	0.710
621.66	0.714
621.85	0.714
622.04	0.709
622.23	0.709
622.43	0.711
622.62	0.711
622.81	0.710
623.00	0.709
623.19	0.713
623.39	0.711
623.58	0.708
623.77	0.707
623.96	0.710
624.16	0.711
624.35	0.706
624.54	0.709
624.73	0.714
624.92	0.710
625.12	0.708
625.31	0.708
625.50	0.712
625.69	0.714
625.88	0.710
626.08	0.709
626.27	0.711
626.46	0.711
626.65	0.707
626.84	0.706
627.04	0.711
627.23	0.712
627.42	0.707
627.61	0.709
627.80	0.712
628.00	0.713
628.19	0.711
628.38	0.715
628.57	0.719
628.76	0.718
628.96	0.716
629.15	0.718
629.34	0.721
629.53	0.721
629.72	0.715
629.91	0.715
630.11	0.720
630.30	0.720
630.49	0.722
630.68	0.722
630.87	0.726
631.06	0.727
631.26	0.722
631.45	0.724
631.64	0.732
631.83	0.735
632.02	0.732
632.21	0.731
632.41	0.739
632.60	0.734
632.79	0.732
632.98	0.732
633.17	0.733
633.36	0.735
633.55	0.732
633.75	0.728
633.94	0.731
634.13	0.731
634.32	0.727
634.51	0.720
634.70	0.723
634.89	0.722
635.09	0.718
635.28	0.720
635.47	0.721
635.66	0.723
635.85	0.719
636.04	0.720
636.23	0.726
636.43	0.727
636.62	0.726
636.81	0.724
637.00	0.728
637.19	0.732
637.38	0.727
637.57	0.727
637.76	0.729
637.95	0.728
638.15	0.723
638.34	0.719
638.53	0.723
638.72	0.724
638.91	0.721
639.10	0.719
639.29	0.719
639.48	0.720
639.67	0.720
639.87	0.719
640.06	0.726
640.25	0.726
640.44	0.727
640.63	0.726
640.82	0.730
641.01	0.730
641.20	0.729
641.39	0.731
641.58	0.734
641.78	0.733
641.97	0.728
642.16	0.742
642.35	0.744
642.54	0.743
642.73	0.737
642.92	0.734
643.11	0.739
643.30	0.738
643.49	0.733
643.68	0.735
643.87	0.736
644.06	0.737
644.25	0.716
644.45	0.718
644.64	0.720
644.83	0.721
645.02	0.717
645.21	0.716
645.40	0.717
645.59	0.717
645.78	0.711
645.97	0.714
646.16	0.715
646.35	0.714
646.54	0.712
646.73	0.713
646.92	0.715
647.11	0.714
647.30	0.710
647.49	0.712
647.68	0.713
647.88	0.712
648.07	0.704
648.26	0.707
648.45	0.710
648.64	0.705
648.83	0.702
649.02	0.705
649.21	0.716
649.40	0.715
649.59	0.709
649.78	0.710
649.97	0.724
650.16	0.724
650.35	0.717
650.54	0.720
650.73	0.730
650.92	0.727
651.11	0.720
651.30	0.717
651.49	0.722
651.68	0.723
651.87	0.720
652.06	0.709
652.25	0.713
652.44	0.715
652.63	0.711
652.82	0.710
653.01	0.710
653.20	0.708
653.39	0.696
653.58	0.693
653.77	0.692
653.96	0.687
654.15	0.679
654.34	0.676
654.53	0.672
654.72	0.666
654.91	0.657
655.10	0.653
655.29	0.651
655.48	0.649
655.67	0.643
655.86	0.641
656.05	0.640
656.24	0.640
656.43	0.635
656.62	0.635
656.81	0.635
657.00	0.632
657.19	0.630
657.38	0.631
657.57	0.630
657.76	0.633
657.95	0.631
658.14	0.634
658.33	0.637
658.51	0.642
658.70	0.642
658.89	0.644
659.08	0.654
659.27	0.661
659.46	0.660
659.65	0.667
659.84	0.671
660.03	0.674
660.22	0.675
660.41	0.680
660.60	0.679
660.79	0.680
660.98	0.686
661.17	0.685
661.36	0.684
661.55	0.686
661.74	0.683
661.92	0.686
662.11	0.688
662.30	0.687
662.49	0.680
662.68	0.680
662.87	0.684
663.06	0.677
663.25	0.677
663.44	0.678
663.63	0.679
663.82	0.678
664.01	0.673
664.20	0.672
664.38	0.673
664.57	0.673
664.76	0.672
664.95	0.672
665.14	0.677
665.33	0.673
665.52	0.680
665.71	0.684
665.90	0.684
666.09	0.685
666.28	0.682
666.46	0.682
666.65	0.684
666.84	0.682
667.03	0.676
667.22	0.674
667.41	0.677
667.60	0.667
667.79	0.659
667.98	0.660
668.16	0.661
668.35	0.661
668.54	0.656
668.73	0.657
668.92	0.658
669.11	0.657
669.30	0.651
669.49	0.647
669.67	0.650
669.86	0.652
670.05	0.648
670.24	0.646
670.43	0.644
670.62	0.643
670.81	0.638
671.00	0.638
671.18	0.638
671.37	0.637
671.56	0.635
671.75	0.633
671.94	0.631
672.13	0.628
672.32	0.624
672.50	0.623
672.69	0.624
672.88	0.624
673.07	0.619
673.26	0.621
673.45	0.623
673.63	0.623
673.82	0.619
674.01	0.621
674.20	0.621
674.39	0.620
674.58	0.619
674.76	0.619
674.95	0.618
675.14	0.617
675.33	0.613
675.52	0.611
675.71	0.611
675.89	0.611
676.08	0.606
676.27	0.607
676.46	0.608
676.65	0.608
676.84	0.607
677.02	0.610
677.21	0.612
677.40	0.610
677.59	0.608
677.78	0.609
677.96	0.612
678.15	0.611
678.34	0.608
678.53	0.608
678.72	0.608
678.90	0.605
679.09	0.600
679.28	0.597
679.47	0.598
679.66	0.597
679.84	0.594
680.03	0.591
680.22	0.590
680.41	0.592
680.60	0.588
680.78	0.587
680.97	0.590
681.16	0.590
681.35	0.589
681.53	0.588
681.72	0.589
681.91	0.590
682.10	0.588
682.29	0.591
682.47	0.589
682.66	0.589
682.85	0.587
683.04	0.585
683.22	0.585
683.41	0.586
683.60	0.584
683.79	0.586
683.97	0.585
684.16	0.585
684.35	0.580
684.54	0.581
684.72	0.582
684.91	0.583
685.10	0.580
685.29	0.582
685.47	0.580
685.66	0.579
685.85	0.575
686.04	0.575
686.22	0.577
686.41	0.580
686.60	0.577
686.79	0.580
686.97	0.581
687.16	0.583
687.35	0.579
687.54	0.583
687.72	0.587
687.91	0.586
688.10	0.588
688.29	0.588
688.47	0.586
688.66	0.585
688.85	0.581
689.03	0.578
689.22	0.583
689.41	0.584
689.60	0.579
689.78	0.577
689.97	0.578
690.16	0.575
690.34	0.571
690.53	0.571
690.72	0.572
690.91	0.570
691.09	0.568
691.28	0.562
691.47	0.560
691.65	0.559
691.84	0.555
692.03	0.554
692.21	0.552
692.40	0.552
692.59	0.550
692.77	0.549
692.96	0.550
693.15	0.551
693.34	0.549
693.52	0.549
693.71	0.550
693.90	0.551
694.08	0.552
694.27	0.553
694.46	0.562
694.64	0.563
694.83	0.562
695.02	0.561
695.20	0.561
695.39	0.561
695.58	0.560
695.76	0.561
695.95	0.561
696.14	0.560
696.32	0.558
696.51	0.548
696.70	0.548
696.88	0.549
697.07	0.548
697.26	0.549
697.44	0.550
697.63	0.549
697.81	0.546
698.00	0.546
698.19	0.545
698.37	0.546
698.56	0.545
698.75	0.545
698.93	0.545
699.12	0.544
699.31	0.542
699.49	0.542
699.68	0.543
699.87	0.546
700.05	0.545
700.24	0.544
700.42	0.546
700.61	0.546
700.80	0.544
700.98	0.544
701.17	0.546
701.36	0.545
701.54	0.544
701.73	0.545
701.91	0.542
702.10	0.542
702.29	0.540
702.47	0.539
702.66	0.541
702.84	0.542
703.03	0.540
703.22	0.541
703.40	0.541
703.59	0.541
703.77	0.541
703.96	0.541
704.15	0.542
704.33	0.542
704.52	0.540
704.70	0.539
704.89	0.539
705.08	0.537
705.26	0.534
705.45	0.534
705.63	0.534
705.82	0.531
706.00	0.530
706.19	0.529
706.38	0.529
706.56	0.529
706.75	0.526
706.93	0.525
707.12	0.528
707.30	0.527
707.49	0.525
707.68	0.523
707.86	0.523
708.05	0.523
708.23	0.520
708.42	0.521
708.60	0.524
708.79	0.524
708.98	0.522
709.16	0.521
709.35	0.524
709.53	0.527
709.72	0.527
709.90	0.529
710.09	0.531
710.27	0.533
710.46	0.537
710.64	0.535
710.83	0.537
711.02	0.539
711.20	0.537
711.39	0.536
711.57	0.534
711.76	0.535
711.94	0.532
712.13	0.533
712.31	0.532
712.50	0.527
712.68	0.524
712.87	0.525
713.05	0.525
713.24	0.526
713.42	0.525
713.61	0.526
713.79	0.527
713.98	0.527
714.16	0.528
714.35	0.528
714.54	0.529
714.72	0.530
714.91	0.527
715.09	0.534
715.28	0.537
715.46	0.536
715.65	0.534
715.83	0.534
716.02	0.537
716.20	0.534
716.39	0.532
716.57	0.534
716.76	0.536
716.94	0.537
717.12	0.528
717.31	0.530
717.49	0.533
717.68	0.535
717.86	0.534
718.05	0.536
718.23	0.539
718.42	0.542
718.60	0.542
718.79	0.550
718.97	0.553
719.16	0.554
719.34	0.551
719.53	0.550
719.71	0.551
719.90	0.552
720.08	0.549
720.27	0.549
720.45	0.549
720.63	0.548
720.82	0.542
721.00	0.545
721.19	0.548
721.37	0.548
721.56	0.548
721.74	0.551
721.93	0.560
722.11	0.567
722.30	0.566
722.48	0.570
722.66	0.572
722.85	0.572
723.03	0.572
723.22	0.570
723.40	0.573
723.59	0.574
723.77	0.578
723.95	0.571
724.14	0.573
724.32	0.574
724.51	0.574
724.69	0.575
724.88	0.575
725.06	0.573
725.24	0.573
725.43	0.575
725.61	0.578
725.80	0.571
725.98	0.569
726.16	0.566
726.35	0.572
726.53	0.571
726.72	0.570
726.90	0.581
727.09	0.582
727.27	0.588
727.45	0.585
727.64	0.595
727.82	0.604
728.01	0.609
728.19	0.606
728.37	0.612
728.56	0.616
728.74	0.623
728.92	0.610
729.11	0.612
729.29	0.611
729.48	0.612
729.66	0.601
729.84	0.600
730.03	0.603
730.21	0.605
730.40	0.596
730.58	0.597
730.76	0.597
730.95	0.600
731.13	0.601
731.31	0.616
731.50	0.626
731.68	0.630
731.86	0.626
732.05	0.641
732.23	0.645
732.42	0.648
732.60	0.652
732.78	0.658
732.97	0.679
733.15	0.686
733.33	0.673
733.52	0.682
733.70	0.693
733.88	0.704
734.07	0.688
734.25	0.718
734.43	0.727
734.62	0.730
734.80	0.724
734.98	0.715
735.17	0.723
735.35	0.728
735.53	0.715
735.72	0.718
735.90	0.742
736.08	0.763
736.27	0.736
736.45	0.747
736.63	0.761
736.82	0.772
737.00	0.771
737.18	0.784
737.37	0.819
737.55	0.844
737.73	0.840
737.92	0.842
738.10	0.841
738.28	0.865
738.46	0.851
738.65	0.865
738.83	0.894
739.01	0.955
739.20	0.945
739.38	0.926
739.56	0.915
739.75	0.923
739.93	0.886
740.11	0.914
740.29	0.915
740.48	0.927
740.66	0.901
740.84	0.895
741.03	0.857
741.21	0.868
741.39	0.846
741.57	0.864
741.76	0.883
741.94	0.892
742.12	0.852
742.31	0.859
742.49	0.880
742.67	0.910
742.85	0.923
743.04	0.930
743.22	0.944
743.40	1.011
743.58	0.985
743.77	1.002
743.95	1.048
744.13	1.116
744.31	1.094
744.50	1.086
744.68	1.086
744.86	1.047
745.04	1.061
745.23	1.142
745.41	1.124
745.59	1.134
745.77	1.088
745.96	1.060
746.14	1.074
746.32	1.065
746.50	1.052
746.69	1.030
746.87	1.052
747.05	1.030
747.23	0.943
747.42	0.927
747.60	0.962
747.78	0.965
747.96	1.009
748.14	0.955
748.33	0.993
748.51	0.987
748.69	0.980
748.87	1.017
749.06	1.018
749.24	1.015
749.42	0.997
749.60	0.969
749.78	0.986
749.97	0.928
750.15	0.923
750.33	0.923
750.51	0.961
750.69	0.968
750.88	0.966
751.06	0.978
751.24	1.017
751.42	1.002
751.60	0.991
751.79	1.082
751.97	1.150
752.15	1.143
752.33	1.095
752.51	1.171
752.69	1.192
752.88	1.149
753.06	1.210
753.24	1.172
753.42	1.229
753.60	1.505
753.78	1.263
753.97	1.281
754.15	1.313
754.33	1.365
754.51	1.182
754.69	1.156
754.87	1.199
755.06	1.096
755.24	1.091
755.42	1.099
755.60	0.978
755.78	0.990
755.96	0.924
756.15	0.923
756.33	0.931
756.51	0.952
756.69	0.937
756.87	0.899
757.05	0.922
757.23	0.906
757.42	0.864
757.60	0.861
757.78	0.845
757.96	0.842
758.14	0.821
758.32	0.805
758.50	0.820
758.69	0.819
758.87	0.809
759.05	0.814
759.23	0.823
759.41	0.826
759.59	0.817
759.77	0.845
759.95	0.877
760.13	0.937
760.32	0.931
760.50	0.922
760.68	0.952
760.86	0.950
761.04	0.915
761.22	0.919
761.40	0.976
761.58	0.975
761.76	0.942
761.95	0.922
762.13	0.871
762.31	0.871
762.49	0.839
762.67	0.855
762.85	0.871
763.03	0.867
763.21	0.849
763.39	0.827
763.57	0.834
763.75	0.829
763.94	0.810
764.12	0.811
764.30	0.837
764.48	0.840
764.66	0.799
764.84	0.796
765.02	0.839
765.20	0.846
765.38	0.821
765.56	0.828
765.74	0.871
765.92	0.873
766.10	0.882
766.28	0.872
766.46	0.907
766.65	0.911
766.83	0.898
767.01	0.880
767.19	0.889
767.37	0.892
767.55	0.872
767.73	0.851
767.91	0.854
768.09	0.843
768.27	0.832
768.45	0.822
768.63	0.823
768.81	0.822
768.99	0.794
769.17	0.818
769.35	0.835
769.53	0.833
769.71	0.809
769.89	0.819
770.07	0.824
770.25	0.806
770.43	0.781
770.61	0.810
770.79	0.818
770.97	0.829
771.15	0.796
771.33	0.799
771.51	0.803
771.69	0.815
771.87	0.821
772.05	0.826
772.24	0.837
772.42	0.843
772.60	0.817
772.78	0.883
772.96	0.914
773.14	0.908
773.32	0.881
773.49	0.889
773.67	0.891
773.85	0.869
774.03	0.857
774.21	0.892
774.39	0.908
774.57	0.936
774.75	0.855
774.93	0.850
775.11	0.876
775.29	0.883
775.47	0.880
775.65	0.893
775.83	0.917
776.01	0.943
776.19	0.885
776.37	0.887
776.55	0.884
776.73	0.878
776.91	0.870
777.09	0.849
777.27	0.848
777.45	0.836
777.63	0.809
777.81	0.806
777.99	0.793
778.17	0.792
778.35	0.769
778.53	0.757
778.71	0.767
778.89	0.756
779.07	0.743
779.24	0.752
779.42	0.753
779.60	0.774
779.78	0.768
779.96	0.773
780.14	0.783
780.32	0.805
780.50	0.787
780.68	0.785
780.86	0.775
781.04	0.795
781.22	0.795
781.40	0.807
781.58	0.798
781.75	0.787
781.93	0.768
782.11	0.767
782.29	0.752
782.47	0.749
782.65	0.738
782.83	0.767
783.01	0.761
783.19	0.753
783.37	0.739
783.55	0.742
783.72	0.764
783.90	0.775
784.08	0.766
784.26	0.782
784.44	0.805
784.62	0.806
784.80	0.771
784.98	0.778
785.16	0.786
785.33	0.801
785.51	0.786
785.69	0.769
785.87	0.769
786.05	0.780
786.23	0.771
786.41	0.768
786.59	0.775
786.77	0.773
786.94	0.757
787.12	0.760
787.30	0.763
787.48	0.758
787.66	0.745
787.84	0.746
788.02	0.736
788.19	0.733
788.37	0.718
788.55	0.719
788.73	0.721
788.91	0.714
789.09	0.696
789.27	0.683
789.44	0.695
789.62	0.701
789.80	0.710
789.98	0.737
790.16	0.725
790.34	0.722
790.51	0.709
790.69	0.729
790.87	0.738
791.05	0.736
791.23	0.728
791.41	0.729
791.58	0.735
791.76	0.712
791.94	0.679
792.12	0.687
792.30	0.690
792.48	0.689
792.65	0.682
792.83	0.688
793.01	0.697
793.19	0.697
793.37	0.681
793.54	0.678
793.72	0.691
793.90	0.690
794.08	0.679
794.26	0.679
794.43	0.689
794.61	0.670
794.79	0.657
794.97	0.657
795.15	0.661
795.32	0.666
795.50	0.653
795.68	0.647
795.86	0.651
796.04	0.651
796.21	0.645
796.39	0.643
796.57	0.659
796.75	0.667
796.92	0.666
797.10	0.675
797.28	0.677
797.46	0.683
797.64	0.683
797.81	0.692
797.99	0.699
798.17	0.703
798.35	0.698
798.52	0.700
798.70	0.697
798.88	0.707
799.06	0.702
799.23	0.705
799.41	0.712
799.59	0.704
799.77	0.691
799.94	0.699
800.12	0.710
800.30	0.728
800.48	0.727
800.65	0.727
800.83	0.716
801.01	0.708
801.19	0.706
801.36	0.701
801.54	0.707
801.72	0.719
801.90	0.703
802.07	0.697
802.25	0.683
802.43	0.667
802.60	0.663
802.78	0.671
802.96	0.677
803.14	0.672
803.31	0.673
803.49	0.674
803.67	0.667
803.84	0.672
804.02	0.663
804.20	0.664
804.38	0.670
804.55	0.667
804.73	0.650
804.91	0.651
805.08	0.664
805.26	0.657
805.44	0.727
805.61	0.733
805.79	0.732
805.97	0.732
806.15	0.723
806.32	0.718
806.50	0.728
806.68	0.728
806.85	0.716
807.03	0.708
807.21	0.727
807.38	0.652
807.56	0.641
807.74	0.651
807.91	0.658
808.09	0.661
808.27	0.681
808.44	0.706
808.62	0.718
808.80	0.720
808.97	0.712
809.15	0.707
809.33	0.726
809.50	0.734
809.68	0.719
809.86	0.729
810.03	0.766
810.21	0.742
810.39	0.724
810.56	0.730
810.74	0.756
810.91	0.839
811.09	0.827
811.27	0.851
811.44	0.859
811.62	0.862
811.80	0.840
811.97	0.805
812.15	0.804
812.33	0.796
812.50	0.778
812.68	0.767
812.85	0.707
813.03	0.707
813.21	0.674
813.38	0.667
813.56	0.673
813.74	0.684
813.91	0.691
814.09	0.725
814.26	0.721
814.44	0.726
814.62	0.713
814.79	0.717
814.97	0.725
815.14	0.729
815.32	0.731
815.50	0.749
815.67	0.755
815.85	0.745
816.02	0.733
816.20	0.739
816.38	0.756
816.55	0.763
816.73	0.760
816.90	0.769
817.08	0.803
817.26	0.811
817.43	0.789
817.61	0.814
817.78	0.838
817.96	0.814
818.13	0.802
818.31	0.804
818.49	0.821
818.66	0.814
818.84	0.800
819.01	0.778
819.19	0.785
819.36	0.786
819.54	0.750
819.71	0.797
819.89	0.814
820.07	0.829
820.24	0.819
820.42	0.820
820.59	0.845
820.77	0.872
820.94	0.858
821.12	0.881
821.29	0.899
821.47	0.903
821.64	0.823
821.82	0.836
822.00	0.833
822.17	0.835
822.35	0.824
822.52	0.823
822.70	0.812
822.87	0.827
823.05	0.800
823.22	0.815
823.40	0.846
823.57	0.879
823.75	0.857
823.92	0.894
824.10	0.917
824.27	0.966
824.45	0.955
824.62	1.031
824.80	1.050
824.97	1.067
825.15	1.058
825.32	1.086
825.50	1.088
825.67	1.110
825.85	1.077
826.02	1.106
826.20	1.156
826.37	1.383
826.55	1.242
826.72	1.680
826.90	2.093
827.07	2.711
827.25	2.038
827.42	-0.000
827.60	-0.000
827.77	-0.000
827.95	-0.000
828.12	-0.000
828.30	-0.000
828.47	-0.000
828.65	2.251
828.82	-0.000
829.00	-0.000
829.17	-0.000
829.34	-0.000
829.52	-0.000
829.69	-0.000
829.87	-0.000
830.04	-0.000
830.22	-0.000
830.39	-0.000
830.57	-0.000
830.74	-0.000
830.92	-0.000
831.09	-0.000
831.26	-0.000
831.44	-0.000
831.61	-0.000
831.79	-0.000
831.96	-0.000
832.14	-0.000
832.31	-0.000
832.49	-0.000
832.66	-0.000
832.83	-0.000
833.01	-0.000
833.18	-0.000
833.36	-0.000
833.53	-0.000
833.70	-0.000
833.88	-0.000
834.05	-0.000
834.23	-0.000
834.40	-0.000
834.58	-0.000
834.75	-0.000
834.92	-0.000
835.10	-0.000
835.27	-0.000
835.45	-0.000
835.62	-0.000
835.79	-0.000
835.97	-0.000
836.14	-0.000
836.32	-0.000
836.49	-0.000
836.66	-0.000
836.84	-0.000
837.01	-0.000
837.18	-0.000
837.36	-0.000
837.53	-0.000
837.71	-0.000
837.88	-0.000
838.05	-0.000
838.23	-0.000
838.40	-0.000
838.58	-0.000
838.75	-0.000
838.92	-0.000
839.10	-0.000
839.27	-0.000
839.44	-0.000
839.62	-0.000
839.79	-0.000
839.96	-0.000
840.14	-0.000
840.31	-0.000
840.48	-0.000
840.66	-0.000
840.83	-0.000
841.01	-0.000
841.18	-0.000
841.35	-0.000
841.53	-0.000
841.70	-0.000
841.87	-0.000
842.05	-0.000
842.22	-0.000
842.39	-0.000
842.57	-0.000
842.74	-0.000
842.91	-0.000
843.09	-0.000
843.26	-0.000
843.43	-0.000
843.60	-0.000
843.78	-0.000
843.95	-0.000
844.12	-0.000
844.30	-0.000
844.47	-0.000
844.64	-0.000
844.82	-0.000
844.99	-0.000
845.16	-0.000
845.34	-0.000
845.51	-0.000
845.68	-0.000
845.85	-0.000
846.03	-0.000
846.20	-0.000
846.37	-0.000
846.55	-0.000
846.72	-0.000
846.89	-0.000
847.06	-0.000
847.24	-0.000
847.41	-0.000
847.58	-0.000
847.76	-0.000
847.93	-0.000
848.10	-0.000
848.27	-0.000
848.45	-0.000
848.62	-0.000
848.79	-0.000
848.97	-0.000
849.14	-0.000
849.31	-0.000
849.48	-0.000
849.66	-0.000
849.83	-0.000
850.00	-0.000
850.17	-0.000
850.35	-0.000
850.52	-0.000
850.69	-0.000
850.86	-0.000
851.04	-0.000
851.21	-0.000
851.38	-0.000
851.55	-0.000
851.72	-0.000
851.90	-0.000
852.07	-0.000
852.24	-0.000
852.41	-0.000
852.59	-0.000
852.76	-0.000
852.93	-0.000
853.10	-0.000
853.28	-0.000
853.45	-0.000
853.62	-0.000
853.79	-0.000
853.96	-0.000
854.14	-0.000
854.31	-0.000
854.48	-0.000
854.65	-0.000
854.82	-0.000
855.00	-0.000
855.17	-0.000
855.34	-0.000
855.51	-0.000
855.68	-0.000
855.86	-0.000
856.03	-0.000
856.20	-0.000
856.37	-0.000
856.54	-0.000
856.72	-0.000
856.89	-0.000
857.06	-0.000
857.23	-0.000
857.40	-0.000
857.57	-0.000
857.75	-0.000
857.92	-0.000
858.09	-0.000
858.26	-0.000
858.43	-0.000
858.60	-0.000
858.78	-0.000
858.95	-0.000
859.12	-0.000
859.29	-0.000
859.46	-0.000
859.63	-0.000
859.81	-0.000
859.98	-0.000
860.15	-0.000
860.32	-0.000
860.49	-0.000
860.66	-0.000
860.83	-0.000
861.01	-0.000
861.18	-0.000
861.35	-0.000
861.52	-0.000
861.69	-0.000
861.86	-0.000
862.03	-0.000
862.21	-0.000
862.38	-0.000
862.55	-0.000
862.72	-0.000
862.89	-0.000
863.06	-0.000
863.23	-0.000
863.40	-0.000
863.58	-0.000
863.75	-0.000
863.92	-0.000
864.09	-0.000
864.26	-0.000
864.43	-0.000
864.60	-0.000
864.77	-0.000
864.94	-0.000
865.11	-0.000
865.29	-0.000
865.46	-0.000
865.63	-0.000
865.80	-0.000
865.97	-0.000
866.14	-0.000
866.31	-0.000
866.48	-0.000
866.65	-0.000
866.82	-0.000
866.99	-0.000
867.16	-0.000
867.34	-0.000
867.51	-0.000
867.68	-0.000
867.85	-0.000
868.02	-0.000
868.19	-0.000
868.36	-0.000
868.53	-0.000
868.70	-0.000
868.87	-0.000
869.04	-0.000
869.21	-0.000
869.38	-0.000
869.55	-0.000
869.72	-0.000
869.89	-0.000
870.06	-0.000
870.24	-0.000
870.41	-0.000
870.58	-0.000
870.75	-0.000
870.92	-0.000
871.09	-0.000
871.26	-0.000
871.43	-0.000
871.60	-0.000
871.77	-0.000
871.94	-0.000
872.11	-0.000
872.28	-0.000
872.45	-0.000
872.62	-0.000
872.79	-0.000
872.96	-0.000
873.13	-0.000
873.30	-0.000
873.47	-0.000
873.64	-0.000
873.81	-0.000
873.98	-0.000
874.15	-0.000
874.32	-0.000
874.49	-0.000
874.66	-0.000
874.83	-0.000
875.00	-0.000
875.17	-0.000
875.34	-0.000
875.51	-0.000
875.68	-0.000
875.85	-0.000
876.02	-0.000
876.19	-0.000
876.36	-0.000
876.53	-0.000
876.70	-0.000
876.87	-0.000
877.04	-0.000
877.21	-0.000
877.38	-0.000
877.55	-0.000
877.72	-0.000
877.89	-0.000
878.06	-0.000
878.23	-0.000
878.39	-0.000
878.56	-0.000
878.73	-0.000
878.90	-0.000
879.07	-0.000
879.24	-0.000
879.41	-0.000
879.58	-0.000
879.75	-0.000
879.92	-0.000
880.09	-0.000
880.26	-0.000
880.43	-0.000
880.60	-0.000
880.77	-0.000
880.94	-0.000
881.11	-0.000
881.27	-0.000
881.44	-0.000
881.61	-0.000
881.78	-0.000
881.95	-0.000
882.12	-0.000
882.29	-0.000
882.46	-0.000
882.63	-0.000
882.80	-0.000
882.97	-0.000
883.14	-0.000
883.30	-0.000
883.47	-0.000
883.64	-0.000
883.81	-0.000
883.98	-0.000
884.15	-0.000
884.32	-0.000
884.49	-0.000
884.66	-0.000
884.82	-0.000
884.99	-0.000
885.16	-0.000
885.33	-0.000
885.50	-0.000
885.67	-0.000
885.84	-0.000
886.01	-0.000
886.17	-0.000
886.34	-0.000
886.51	-0.000
886.68	-0.000
886.85	-0.000
887.02	-0.000
887.19	-0.000
887.36	-0.000
887.52	-0.000
887.69	-0.000
887.86	-0.000
888.03	-0.000
888.20	-0.000
888.37	-0.000
888.54	-0.000
888.70	-0.000
888.87	-0.000
889.04	-0.000
889.21	-0.000
889.38	-0.000
889.55	-0.000
889.71	-0.000
889.88	-0.000
890.05	-0.000
890.22	-0.000
890.39	-0.000
>>>>>End Processed Spectral Data<<<<<
