SpectraSuite Data File
++++++++++++++++++++++++++++++++++++
Date: Fri Jun 19 12:40:37 CEST 2015
User: introlabs
Dark Spectrum Present: Yes
Reference Spectrum Present: Yes
Number of Sampled Component Spectra: 1
Spectrometers: USB4H08886
Integration Time (usec): 745692 (USB4H08886)
Spectra Averaged: 5 (USB4H08886)
Boxcar Smoothing: 5 (USB4H08886)
Correct for Electrical Dark: Yes (USB4H08886)
Strobe/Lamp Enabled: No (USB4H08886)
Correct for Detector Non-linearity: Yes (USB4H08886)
Correct for Stray Light: Yes (USB4H08886)
Number of Pixels in Processed Spectrum: 3648
>>>>>Begin Processed Spectral Data<<<<<
178.14	-0.000
178.36	-0.000
178.57	-0.000
178.79	-0.000
179.01	-0.000
179.22	-0.000
179.44	-0.000
179.65	-0.000
179.87	-0.000
180.08	-0.000
180.30	-0.000
180.52	-0.000
180.73	-0.000
180.95	-0.000
181.16	-0.000
181.38	-0.000
181.59	-0.000
181.81	-0.000
182.03	-0.000
182.24	-0.000
182.46	-0.000
182.67	-0.000
182.89	-0.000
183.10	-0.000
183.32	-0.000
183.54	-0.000
183.75	-0.000
183.97	-0.000
184.18	-0.000
184.40	-0.000
184.61	-0.000
184.83	-0.000
185.04	-0.000
185.26	-0.000
185.48	-0.000
185.69	-0.000
185.91	-0.000
186.12	-0.000
186.34	-0.000
186.55	-0.000
186.77	-0.000
186.98	-0.000
187.20	-0.000
187.42	-0.000
187.63	-0.000
187.85	-0.000
188.06	-0.000
188.28	-0.000
188.49	-0.000
188.71	-0.000
188.92	-0.000
189.14	-0.000
189.36	-0.000
189.57	-0.000
189.79	-0.000
190.00	-0.000
190.22	-0.000
190.43	-0.000
190.65	-0.000
190.86	-0.000
191.08	-0.000
191.29	-0.000
191.51	-0.000
191.72	-0.000
191.94	-0.000
192.16	-0.000
192.37	-0.000
192.59	-0.000
192.80	-0.000
193.02	-0.000
193.23	-0.000
193.45	-0.000
193.66	-0.000
193.88	-0.000
194.09	-0.000
194.31	-0.000
194.52	-0.000
194.74	-0.000
194.95	-0.000
195.17	-0.000
195.38	-0.000
195.60	-0.000
195.81	-0.000
196.03	-0.000
196.25	-0.000
196.46	-0.000
196.68	-0.000
196.89	-0.000
197.11	-0.000
197.32	-0.000
197.54	-0.000
197.75	-0.000
197.97	-0.000
198.18	-0.000
198.40	-0.000
198.61	-0.000
198.83	-0.000
199.04	-0.000
199.26	-0.000
199.47	-0.000
199.69	-0.000
199.90	-0.000
200.12	-0.000
200.33	-0.000
200.55	-0.000
200.76	-0.000
200.98	-0.000
201.19	-0.000
201.41	-0.000
201.62	-0.000
201.84	-0.000
202.05	-0.000
202.27	-0.000
202.48	-0.000
202.70	-0.000
202.91	-0.000
203.13	-0.000
203.34	-0.000
203.56	-0.000
203.77	-0.000
203.99	-0.000
204.20	-0.000
204.42	-0.000
204.63	-0.000
204.85	-0.000
205.06	-0.000
205.28	-0.000
205.49	-0.000
205.71	-0.000
205.92	-0.000
206.14	-0.000
206.35	-0.000
206.56	-0.000
206.78	-0.000
206.99	-0.000
207.21	-0.000
207.42	-0.000
207.64	-0.000
207.85	-0.000
208.07	-0.000
208.28	-0.000
208.50	-0.000
208.71	-0.000
208.93	-0.000
209.14	-0.000
209.36	-0.000
209.57	-0.000
209.79	-0.000
210.00	-0.000
210.22	-0.000
210.43	-0.000
210.64	-0.000
210.86	-0.000
211.07	-0.000
211.29	-0.000
211.50	-0.000
211.72	-0.000
211.93	-0.000
212.15	-0.000
212.36	-0.000
212.58	-0.000
212.79	-0.000
213.01	-0.000
213.22	-0.000
213.43	-0.000
213.65	-0.000
213.86	-0.000
214.08	-0.000
214.29	-0.000
214.51	-0.000
214.72	-0.000
214.94	-0.000
215.15	-0.000
215.36	-0.000
215.58	-0.000
215.79	-0.000
216.01	-0.000
216.22	-0.000
216.44	-0.000
216.65	-0.000
216.87	-0.000
217.08	-0.000
217.29	-0.000
217.51	-0.000
217.72	-0.000
217.94	-0.000
218.15	-0.000
218.37	-0.000
218.58	-0.000
218.80	-0.000
219.01	-0.000
219.22	-0.000
219.44	-0.000
219.65	-0.000
219.87	-0.000
220.08	-0.000
220.30	-0.000
220.51	-0.000
220.72	-0.000
220.94	-0.000
221.15	-0.000
221.37	-0.000
221.58	-0.000
221.79	-0.000
222.01	-0.000
222.22	-0.000
222.44	-0.000
222.65	-0.000
222.87	-0.000
223.08	-0.000
223.29	-0.000
223.51	-0.000
223.72	-0.000
223.94	-0.000
224.15	-0.000
224.36	-0.000
224.58	-0.000
224.79	-0.000
225.01	-0.000
225.22	-0.000
225.44	-0.000
225.65	-0.000
225.86	-0.000
226.08	-0.000
226.29	-0.000
226.51	-0.000
226.72	-0.000
226.93	-0.000
227.15	-0.000
227.36	-0.000
227.58	-0.000
227.79	-0.000
228.00	-0.000
228.22	-0.000
228.43	-0.000
228.65	-0.000
228.86	-0.000
229.07	-0.000
229.29	-0.000
229.50	-0.000
229.72	-0.000
229.93	-0.000
230.14	-0.000
230.36	-0.000
230.57	-0.000
230.78	-0.000
231.00	-0.000
231.21	-0.000
231.43	-0.000
231.64	-0.000
231.85	-0.000
232.07	-0.000
232.28	-0.000
232.50	-0.000
232.71	-0.000
232.92	-0.000
233.14	-0.000
233.35	-0.000
233.56	-0.000
233.78	-0.000
233.99	-0.000
234.21	-0.000
234.42	-0.000
234.63	-0.000
234.85	-0.000
235.06	-0.000
235.27	-0.000
235.49	-0.000
235.70	-0.000
235.91	-0.000
236.13	-0.000
236.34	-0.000
236.56	-0.000
236.77	-0.000
236.98	-0.000
237.20	-0.000
237.41	-0.000
237.62	-0.000
237.84	-0.000
238.05	-0.000
238.26	-0.000
238.48	-0.000
238.69	-0.000
238.91	-0.000
239.12	-0.000
239.33	-0.000
239.55	-0.000
239.76	-0.000
239.97	-0.000
240.19	-0.000
240.40	-0.000
240.61	-0.000
240.83	-0.000
241.04	-0.000
241.25	-0.000
241.47	-0.000
241.68	-0.000
241.89	-0.000
242.11	-0.000
242.32	-0.000
242.53	-0.000
242.75	-0.000
242.96	-0.000
243.17	-0.000
243.39	-0.000
243.60	-0.000
243.81	-0.000
244.03	-0.000
244.24	-0.000
244.45	-0.000
244.67	-0.000
244.88	-0.000
245.09	-0.000
245.31	-0.000
245.52	-0.000
245.73	-0.000
245.95	-0.000
246.16	-0.000
246.37	-0.000
246.59	-0.000
246.80	-0.000
247.01	-0.000
247.23	-0.000
247.44	-0.000
247.65	-0.000
247.87	-0.000
248.08	-0.000
248.29	-0.000
248.51	-0.000
248.72	-0.000
248.93	-0.000
249.15	-0.000
249.36	-0.000
249.57	-0.000
249.78	-0.000
250.00	-0.000
250.21	-0.000
250.42	-0.000
250.64	-0.000
250.85	-0.000
251.06	-0.000
251.28	-0.000
251.49	-0.000
251.70	-0.000
251.92	-0.000
252.13	-0.000
252.34	-0.000
252.55	-0.000
252.77	-0.000
252.98	-0.000
253.19	-0.000
253.41	-0.000
253.62	-0.000
253.83	-0.000
254.05	-0.000
254.26	-0.000
254.47	-0.000
254.68	-0.000
254.90	-0.000
255.11	-0.000
255.32	-0.000
255.54	-0.000
255.75	-0.000
255.96	-0.000
256.17	-0.000
256.39	-0.000
256.60	-0.000
256.81	-0.000
257.03	-0.000
257.24	-0.000
257.45	-0.000
257.66	-0.000
257.88	-0.000
258.09	-0.000
258.30	-0.000
258.51	-0.000
258.73	-0.000
258.94	-0.000
259.15	-0.000
259.37	-0.000
259.58	-0.000
259.79	-0.000
260.00	-0.000
260.22	-0.000
260.43	-0.000
260.64	-0.000
260.85	-0.000
261.07	-0.000
261.28	-0.000
261.49	-0.000
261.71	-0.000
261.92	-0.000
262.13	-0.000
262.34	-0.000
262.56	-0.000
262.77	-0.000
262.98	-0.000
263.19	-0.000
263.41	-0.000
263.62	-0.000
263.83	-0.000
264.04	-0.000
264.26	-0.000
264.47	-0.000
264.68	-0.000
264.89	-0.000
265.11	-0.000
265.32	-0.000
265.53	-0.000
265.74	-0.000
265.96	-0.000
266.17	-0.000
266.38	-0.000
266.59	-0.000
266.81	-0.000
267.02	-0.000
267.23	-0.000
267.44	-0.000
267.65	-0.000
267.87	-0.000
268.08	-0.000
268.29	-0.000
268.50	-0.000
268.72	-0.000
268.93	-0.000
269.14	-0.000
269.35	-0.000
269.57	-0.000
269.78	-0.000
269.99	-0.000
270.20	-0.000
270.41	-0.000
270.63	-0.000
270.84	-0.000
271.05	-0.000
271.26	-0.000
271.48	-0.000
271.69	-0.000
271.90	-0.000
272.11	-0.000
272.32	-0.000
272.54	-0.000
272.75	-0.000
272.96	-0.000
273.17	-0.000
273.39	-0.000
273.60	-0.000
273.81	-0.000
274.02	-0.000
274.23	-0.000
274.45	-0.000
274.66	-0.000
274.87	-0.000
275.08	-0.000
275.29	-0.000
275.51	-0.000
275.72	-0.000
275.93	-0.000
276.14	-0.000
276.35	-0.000
276.57	-0.000
276.78	-0.000
276.99	-0.000
277.20	-0.000
277.41	-0.000
277.63	-0.000
277.84	-0.000
278.05	-0.000
278.26	-0.000
278.47	-0.000
278.69	-0.000
278.90	-0.000
279.11	-0.000
279.32	-0.000
279.53	-0.000
279.74	-0.000
279.96	-0.000
280.17	-0.000
280.38	-0.000
280.59	-0.000
280.80	-0.000
281.02	-0.000
281.23	-0.000
281.44	-0.000
281.65	-0.000
281.86	-0.000
282.07	-0.000
282.29	-0.000
282.50	-0.000
282.71	-0.000
282.92	-0.000
283.13	-0.000
283.35	-0.000
283.56	-0.000
283.77	-0.000
283.98	-0.000
284.19	-0.000
284.40	-0.000
284.62	-0.000
284.83	-0.000
285.04	-0.000
285.25	-0.000
285.46	-0.000
285.67	-0.000
285.88	-0.000
286.10	-0.000
286.31	-0.000
286.52	-0.000
286.73	-0.000
286.94	-0.000
287.15	-0.000
287.37	-0.000
287.58	-0.000
287.79	-0.000
288.00	-0.000
288.21	-0.000
288.42	-0.000
288.63	-0.000
288.85	-0.000
289.06	-0.000
289.27	-0.000
289.48	-0.000
289.69	-0.000
289.90	-0.000
290.11	-0.000
290.33	-0.000
290.54	-0.000
290.75	-0.000
290.96	-0.000
291.17	-0.000
291.38	-0.000
291.59	-0.000
291.81	-0.000
292.02	-0.000
292.23	-0.000
292.44	-0.000
292.65	-0.000
292.86	-0.000
293.07	-0.000
293.28	-0.000
293.50	-0.000
293.71	-0.000
293.92	-0.000
294.13	-0.000
294.34	-0.000
294.55	-0.000
294.76	-0.000
294.97	-0.000
295.19	-0.000
295.40	-0.000
295.61	-0.000
295.82	-0.000
296.03	3.020
296.24	-0.000
296.45	2.053
296.66	1.694
296.87	1.701
297.09	1.782
297.30	1.944
297.51	1.626
297.72	1.588
297.93	1.682
298.14	1.650
298.35	1.588
298.56	1.555
298.77	1.672
298.99	1.656
299.20	1.620
299.41	1.597
299.62	1.571
299.83	1.565
300.04	1.499
300.25	1.488
300.46	1.536
300.67	1.516
300.88	1.460
301.10	1.453
301.31	1.515
301.52	1.457
301.73	1.404
301.94	1.406
302.15	1.428
302.36	1.385
302.57	1.327
302.78	1.330
302.99	1.371
303.20	1.385
303.41	1.307
303.63	1.290
303.84	1.303
304.05	1.299
304.26	1.242
304.47	1.248
304.68	1.260
304.89	1.250
305.10	1.207
305.31	1.198
305.52	1.235
305.73	1.228
305.94	1.192
306.15	1.187
306.37	1.210
306.58	1.217
306.79	1.184
307.00	1.197
307.21	1.236
307.42	1.230
307.63	1.193
307.84	1.166
308.05	1.202
308.26	1.203
308.47	1.176
308.68	1.175
308.89	1.177
309.10	1.176
309.31	1.139
309.52	1.132
309.73	1.148
309.95	1.142
310.16	1.115
310.37	1.106
310.58	1.124
310.79	1.125
311.00	1.119
311.21	1.120
311.42	1.124
311.63	1.118
311.84	1.097
312.05	1.099
312.26	1.122
312.47	1.133
312.68	1.106
312.89	1.093
313.10	1.103
313.31	1.075
313.52	1.075
313.73	1.075
313.94	1.079
314.15	1.064
314.36	1.038
314.57	1.031
314.78	1.018
314.99	1.014
315.21	1.001
315.42	1.003
315.63	1.018
315.84	0.995
316.05	0.981
316.26	0.989
316.47	1.007
316.68	1.004
316.89	0.985
317.10	1.004
317.31	1.010
317.52	1.009
317.73	0.988
317.94	0.987
318.15	1.027
318.36	1.024
318.57	1.006
318.78	0.996
318.99	1.030
319.20	1.027
319.41	0.996
319.62	0.998
319.83	1.012
320.04	1.008
320.25	0.992
320.46	0.964
320.67	0.970
320.88	0.968
321.09	0.953
321.30	0.939
321.51	0.954
321.72	0.952
321.93	0.935
322.14	0.930
322.35	0.956
322.56	0.957
322.77	0.944
322.98	0.952
323.19	0.961
323.40	0.967
323.61	0.947
323.82	0.942
324.03	0.949
324.24	0.946
324.45	0.934
324.66	0.916
324.87	0.915
325.08	0.915
325.29	0.897
325.50	0.889
325.71	0.896
325.92	0.903
326.13	0.890
326.34	0.889
326.55	0.899
326.76	0.896
326.97	0.885
327.18	0.880
327.39	0.904
327.60	0.906
327.80	0.905
328.01	0.903
328.22	0.904
328.43	0.907
328.64	0.895
328.85	0.896
329.06	0.900
329.27	0.900
329.48	0.894
329.69	0.877
329.90	0.885
330.11	0.879
330.32	0.870
330.53	0.864
330.74	0.866
330.95	0.866
331.16	0.853
331.37	0.860
331.58	0.860
331.79	0.861
332.00	0.852
332.21	0.847
332.42	0.851
332.63	0.844
332.83	0.840
333.04	0.840
333.25	0.852
333.46	0.850
333.67	0.836
333.88	0.840
334.09	0.848
334.30	0.845
334.51	0.837
334.72	0.834
334.93	0.838
335.14	0.837
335.35	0.829
335.56	0.826
335.77	0.835
335.98	0.834
336.18	0.826
336.39	0.821
336.60	0.826
336.81	0.824
337.02	0.823
337.23	0.827
337.44	0.831
337.65	0.832
337.86	0.821
338.07	0.816
338.28	0.822
338.49	0.819
338.70	0.811
338.91	0.817
339.11	0.824
339.32	0.819
339.53	0.808
339.74	0.806
339.95	0.803
340.16	0.802
340.37	0.794
340.58	0.793
340.79	0.798
341.00	0.798
341.21	0.786
341.41	0.787
341.62	0.791
341.83	0.790
342.04	0.785
342.25	0.794
342.46	0.799
342.67	0.799
342.88	0.791
343.09	0.790
343.30	0.798
343.50	0.801
343.71	0.791
343.92	0.789
344.13	0.796
344.34	0.796
344.55	0.780
344.76	0.780
344.97	0.785
345.18	0.784
345.38	0.781
345.59	0.776
345.80	0.776
346.01	0.775
346.22	0.770
346.43	0.764
346.64	0.773
346.85	0.772
347.06	0.764
347.26	0.766
347.47	0.771
347.68	0.765
347.89	0.761
348.10	0.756
348.31	0.763
348.52	0.763
348.73	0.760
348.93	0.756
349.14	0.760
349.35	0.759
349.56	0.751
349.77	0.747
349.98	0.753
350.19	0.751
350.39	0.745
350.60	0.741
350.81	0.757
351.02	0.756
351.23	0.752
351.44	0.754
351.65	0.759
351.86	0.757
352.06	0.755
352.27	0.755
352.48	0.758
352.69	0.758
352.90	0.753
353.11	0.739
353.31	0.746
353.52	0.742
353.73	0.733
353.94	0.734
354.15	0.740
354.36	0.740
354.57	0.731
354.77	0.732
354.98	0.732
355.19	0.732
355.40	0.731
355.61	0.738
355.82	0.743
356.02	0.743
356.23	0.736
356.44	0.737
356.65	0.742
356.86	0.744
357.07	0.737
357.27	0.740
357.48	0.744
357.69	0.740
357.90	0.725
358.11	0.722
358.32	0.726
358.52	0.729
358.73	0.719
358.94	0.721
359.15	0.725
359.36	0.725
359.56	0.720
359.77	0.717
359.98	0.724
360.19	0.724
360.40	0.720
360.61	0.720
360.81	0.721
361.02	0.722
361.23	0.714
361.44	0.713
361.65	0.716
361.85	0.715
362.06	0.712
362.27	0.714
362.48	0.715
362.69	0.718
362.89	0.712
363.10	0.713
363.31	0.718
363.52	0.721
363.73	0.716
363.93	0.717
364.14	0.720
364.35	0.722
364.56	0.712
364.77	0.714
364.97	0.717
365.18	0.717
365.39	0.711
365.60	0.708
365.81	0.710
366.01	0.709
366.22	0.705
366.43	0.704
366.64	0.707
366.84	0.713
367.05	0.708
367.26	0.708
367.47	0.711
367.68	0.710
367.88	0.707
368.09	0.705
368.30	0.708
368.51	0.708
368.71	0.707
368.92	0.711
369.13	0.709
369.34	0.708
369.55	0.707
369.75	0.707
369.96	0.714
370.17	0.714
370.38	0.711
370.58	0.710
370.79	0.716
371.00	0.715
371.21	0.706
371.41	0.712
371.62	0.718
371.83	0.713
372.04	0.711
372.24	0.705
372.45	0.707
372.66	0.707
372.87	0.703
373.07	0.699
373.28	0.701
373.49	0.704
373.70	0.694
373.90	0.692
374.11	0.702
374.32	0.700
374.53	0.699
374.73	0.699
374.94	0.703
375.15	0.703
375.36	0.700
375.56	0.708
375.77	0.709
375.98	0.709
376.19	0.706
376.39	0.699
376.60	0.704
376.81	0.704
377.02	0.700
377.22	0.699
377.43	0.699
377.64	0.699
377.84	0.689
378.05	0.694
378.26	0.700
378.47	0.699
378.67	0.696
378.88	0.693
379.09	0.694
379.30	0.695
379.50	0.693
379.71	0.695
379.92	0.698
380.12	0.699
380.33	0.690
380.54	0.687
380.75	0.693
380.95	0.693
381.16	0.690
381.37	0.690
381.57	0.692
381.78	0.691
381.99	0.690
382.20	0.690
382.40	0.693
382.61	0.693
382.82	0.689
383.02	0.682
383.23	0.686
383.44	0.686
383.64	0.684
383.85	0.687
384.06	0.690
384.27	0.689
384.47	0.686
384.68	0.685
384.89	0.692
385.09	0.691
385.30	0.690
385.51	0.689
385.71	0.693
385.92	0.693
386.13	0.691
386.33	0.693
386.54	0.694
386.75	0.693
386.95	0.688
387.16	0.683
387.37	0.687
387.58	0.686
387.78	0.684
387.99	0.682
388.20	0.684
388.40	0.681
388.61	0.677
388.82	0.680
389.02	0.683
389.23	0.684
389.44	0.681
389.64	0.681
389.85	0.692
390.06	0.691
390.26	0.691
390.47	0.690
390.68	0.692
390.88	0.690
391.09	0.686
391.30	0.685
391.50	0.684
391.71	0.684
391.92	0.680
392.12	0.673
392.33	0.674
392.53	0.673
392.74	0.673
392.95	0.673
393.15	0.676
393.36	0.677
393.57	0.675
393.77	0.678
393.98	0.680
394.19	0.680
394.39	0.679
394.60	0.681
394.81	0.683
395.01	0.681
395.22	0.678
395.43	0.679
395.63	0.684
395.84	0.684
396.04	0.679
396.25	0.682
396.46	0.684
396.66	0.683
396.87	0.679
397.08	0.676
397.28	0.679
397.49	0.680
397.69	0.676
397.90	0.671
398.11	0.672
398.31	0.673
398.52	0.669
398.73	0.669
398.93	0.668
399.14	0.667
399.34	0.665
399.55	0.666
399.76	0.667
399.96	0.668
400.17	0.666
400.37	0.665
400.58	0.671
400.79	0.672
400.99	0.669
401.20	0.675
401.41	0.677
401.61	0.678
401.82	0.682
402.02	0.681
402.23	0.682
402.44	0.682
402.64	0.681
402.85	0.676
403.05	0.675
403.26	0.673
403.47	0.667
403.67	0.666
403.88	0.667
404.08	0.662
404.29	0.660
404.50	0.659
404.70	0.660
404.91	0.659
405.11	0.656
405.32	0.656
405.52	0.657
405.73	0.657
405.94	0.654
406.14	0.656
406.35	0.659
406.55	0.658
406.76	0.655
406.97	0.656
407.17	0.659
407.38	0.658
407.58	0.656
407.79	0.659
407.99	0.662
408.20	0.663
408.41	0.658
408.61	0.656
408.82	0.659
409.02	0.659
409.23	0.656
409.43	0.655
409.64	0.657
409.84	0.657
410.05	0.653
410.26	0.652
410.46	0.652
410.67	0.652
410.87	0.652
411.08	0.653
411.28	0.655
411.49	0.656
411.69	0.654
411.90	0.655
412.11	0.657
412.31	0.657
412.52	0.655
412.72	0.656
412.93	0.657
413.13	0.656
413.34	0.652
413.54	0.653
413.75	0.655
413.95	0.654
414.16	0.650
414.37	0.653
414.57	0.654
414.78	0.657
414.98	0.654
415.19	0.656
415.39	0.654
415.60	0.656
415.80	0.656
416.01	0.655
416.21	0.657
416.42	0.657
416.62	0.652
416.83	0.653
417.03	0.653
417.24	0.653
417.44	0.650
417.65	0.650
417.86	0.651
418.06	0.649
418.27	0.648
418.47	0.649
418.68	0.651
418.88	0.652
419.09	0.650
419.29	0.650
419.50	0.651
419.70	0.651
419.91	0.649
420.11	0.647
420.32	0.649
420.52	0.648
420.73	0.646
420.93	0.647
421.14	0.648
421.34	0.646
421.55	0.643
421.75	0.643
421.96	0.645
422.16	0.644
422.37	0.644
422.57	0.641
422.78	0.643
422.98	0.640
423.19	0.639
423.39	0.638
423.60	0.643
423.80	0.644
424.01	0.642
424.21	0.644
424.42	0.646
424.62	0.646
424.83	0.645
425.03	0.645
425.23	0.648
425.44	0.648
425.64	0.648
425.85	0.647
426.05	0.648
426.26	0.649
426.46	0.645
426.67	0.644
426.87	0.649
427.08	0.649
427.28	0.646
427.49	0.647
427.69	0.648
427.90	0.647
428.10	0.643
428.31	0.643
428.51	0.645
428.71	0.644
428.92	0.645
429.12	0.642
429.33	0.644
429.53	0.648
429.74	0.652
429.94	0.652
430.15	0.652
430.35	0.653
430.56	0.650
430.76	0.649
430.96	0.651
431.17	0.648
431.37	0.646
431.58	0.644
431.78	0.641
431.99	0.635
432.19	0.637
432.40	0.638
432.60	0.639
432.80	0.641
433.01	0.639
433.21	0.639
433.42	0.641
433.62	0.642
433.83	0.641
434.03	0.644
434.23	0.647
434.44	0.646
434.64	0.644
434.85	0.648
435.05	0.650
435.26	0.650
435.46	0.649
435.66	0.648
435.87	0.649
436.07	0.649
436.28	0.644
436.48	0.641
436.69	0.641
436.89	0.641
437.09	0.635
437.30	0.635
437.50	0.636
437.71	0.647
437.91	0.646
438.11	0.647
438.32	0.652
438.52	0.652
438.73	0.651
438.93	0.649
439.13	0.650
439.34	0.653
439.54	0.651
439.75	0.651
439.95	0.643
440.15	0.647
440.36	0.646
440.56	0.644
440.77	0.645
440.97	0.646
441.17	0.645
441.38	0.646
441.58	0.643
441.79	0.643
441.99	0.641
442.19	0.640
442.40	0.638
442.60	0.639
442.81	0.636
443.01	0.636
443.21	0.637
443.42	0.636
443.62	0.635
443.82	0.635
444.03	0.637
444.23	0.637
444.44	0.637
444.64	0.636
444.84	0.637
445.05	0.637
445.25	0.635
445.45	0.636
445.66	0.638
445.86	0.638
446.06	0.639
446.27	0.638
446.47	0.642
446.68	0.640
446.88	0.639
447.08	0.638
447.29	0.641
447.49	0.640
447.69	0.640
447.90	0.638
448.10	0.643
448.30	0.640
448.51	0.641
448.71	0.638
448.91	0.641
449.12	0.640
449.32	0.641
449.52	0.640
449.73	0.645
449.93	0.644
450.14	0.645
450.34	0.643
450.54	0.647
450.75	0.645
450.95	0.644
451.15	0.644
451.36	0.647
451.56	0.643
451.76	0.642
451.97	0.639
452.17	0.640
452.37	0.638
452.58	0.635
452.78	0.635
452.98	0.637
453.19	0.636
453.39	0.637
453.59	0.636
453.79	0.638
454.00	0.638
454.20	0.637
454.40	0.638
454.61	0.641
454.81	0.641
455.01	0.639
455.22	0.640
455.42	0.642
455.62	0.640
455.83	0.639
456.03	0.642
456.23	0.644
456.44	0.645
456.64	0.643
456.84	0.643
457.04	0.644
457.25	0.643
457.45	0.640
457.65	0.639
457.86	0.640
458.06	0.639
458.26	0.633
458.47	0.633
458.67	0.634
458.87	0.635
459.07	0.633
459.28	0.635
459.48	0.638
459.68	0.638
459.89	0.637
460.09	0.636
460.29	0.638
460.49	0.639
460.70	0.637
460.90	0.637
461.10	0.638
461.31	0.637
461.51	0.634
461.71	0.635
461.91	0.637
462.12	0.637
462.32	0.636
462.52	0.636
462.72	0.640
462.93	0.640
463.13	0.639
463.33	0.639
463.53	0.641
463.74	0.640
463.94	0.636
464.14	0.636
464.35	0.637
464.55	0.638
464.75	0.635
464.95	0.633
465.16	0.636
465.36	0.634
465.56	0.633
465.76	0.633
465.97	0.634
466.17	0.635
466.37	0.633
466.57	0.635
466.78	0.636
466.98	0.637
467.18	0.634
467.38	0.633
467.59	0.636
467.79	0.637
467.99	0.636
468.19	0.637
468.39	0.640
468.60	0.641
468.80	0.638
469.00	0.639
469.20	0.641
469.41	0.641
469.61	0.640
469.81	0.640
470.01	0.639
470.22	0.640
470.42	0.637
470.62	0.635
470.82	0.637
471.02	0.637
471.23	0.634
471.43	0.635
471.63	0.637
471.83	0.636
472.04	0.634
472.24	0.633
472.44	0.638
472.64	0.638
472.84	0.635
473.05	0.635
473.25	0.638
473.45	0.638
473.65	0.636
473.85	0.637
474.06	0.639
474.26	0.639
474.46	0.640
474.66	0.637
474.86	0.639
475.07	0.639
475.27	0.637
475.47	0.635
475.67	0.636
475.87	0.638
476.08	0.634
476.28	0.635
476.48	0.636
476.68	0.634
476.88	0.631
477.09	0.632
477.29	0.634
477.49	0.634
477.69	0.633
477.89	0.632
478.09	0.632
478.30	0.634
478.50	0.631
478.70	0.631
478.90	0.632
479.10	0.636
479.31	0.636
479.51	0.634
479.71	0.635
479.91	0.635
480.11	0.634
480.31	0.634
480.52	0.634
480.72	0.633
480.92	0.632
481.12	0.631
481.32	0.629
481.52	0.627
481.72	0.627
481.93	0.630
482.13	0.631
482.33	0.630
482.53	0.627
482.73	0.628
482.93	0.629
483.14	0.629
483.34	0.627
483.54	0.628
483.74	0.628
483.94	0.627
484.14	0.623
484.34	0.623
484.55	0.624
484.75	0.624
484.95	0.622
485.15	0.622
485.35	0.623
485.55	0.622
485.75	0.620
485.96	0.621
486.16	0.622
486.36	0.622
486.56	0.620
486.76	0.621
486.96	0.622
487.16	0.621
487.36	0.619
487.57	0.619
487.77	0.621
487.97	0.621
488.17	0.619
488.37	0.618
488.57	0.619
488.77	0.620
488.97	0.618
489.18	0.618
489.38	0.620
489.58	0.621
489.78	0.620
489.98	0.619
490.18	0.620
490.38	0.620
490.58	0.619
490.78	0.619
490.98	0.620
491.19	0.620
491.39	0.620
491.59	0.619
491.79	0.622
491.99	0.623
492.19	0.623
492.39	0.626
492.59	0.626
492.79	0.628
492.99	0.628
493.20	0.628
493.40	0.629
493.60	0.631
493.80	0.629
494.00	0.626
494.20	0.627
494.40	0.627
494.60	0.624
494.80	0.628
495.00	0.628
495.20	0.626
495.40	0.625
495.61	0.627
495.81	0.627
496.01	0.630
496.21	0.631
496.41	0.629
496.61	0.630
496.81	0.629
497.01	0.624
497.21	0.624
497.41	0.625
497.61	0.625
497.81	0.622
498.01	0.622
498.21	0.620
498.41	0.618
498.61	0.619
498.82	0.619
499.02	0.622
499.22	0.622
499.42	0.621
499.62	0.622
499.82	0.623
500.02	0.625
500.22	0.623
500.42	0.625
500.62	0.626
500.82	0.626
501.02	0.624
501.22	0.624
501.42	0.625
501.62	0.627
501.82	0.626
502.02	0.626
502.22	0.625
502.42	0.627
502.62	0.624
502.82	0.624
503.02	0.625
503.22	0.625
503.42	0.623
503.63	0.623
503.83	0.621
504.03	0.620
504.23	0.619
504.43	0.619
504.63	0.620
504.83	0.620
505.03	0.619
505.23	0.621
505.43	0.623
505.63	0.624
505.83	0.623
506.03	0.625
506.23	0.627
506.43	0.628
506.63	0.627
506.83	0.626
507.03	0.627
507.23	0.628
507.43	0.625
507.63	0.626
507.83	0.626
508.03	0.626
508.23	0.625
508.43	0.624
508.63	0.626
508.83	0.627
509.03	0.627
509.23	0.627
509.43	0.628
509.63	0.628
509.83	0.626
510.03	0.629
510.23	0.630
510.43	0.631
510.63	0.631
510.83	0.630
511.03	0.632
511.23	0.630
511.43	0.629
511.63	0.630
511.83	0.633
512.03	0.634
512.22	0.630
512.42	0.630
512.62	0.631
512.82	0.631
513.02	0.630
513.22	0.630
513.42	0.632
513.62	0.635
513.82	0.632
514.02	0.632
514.22	0.634
514.42	0.634
514.62	0.634
514.82	0.634
515.02	0.637
515.22	0.640
515.42	0.638
515.62	0.640
515.82	0.640
516.02	0.641
516.22	0.641
516.42	0.642
516.62	0.644
516.82	0.644
517.01	0.642
517.21	0.641
517.41	0.645
517.61	0.645
517.81	0.641
518.01	0.641
518.21	0.641
518.41	0.640
518.61	0.639
518.81	0.640
519.01	0.641
519.21	0.641
519.41	0.640
519.61	0.634
519.81	0.638
520.00	0.638
520.20	0.638
520.40	0.642
520.60	0.643
520.80	0.641
521.00	0.641
521.20	0.643
521.40	0.648
521.60	0.648
521.80	0.647
522.00	0.647
522.20	0.650
522.39	0.649
522.59	0.645
522.79	0.647
522.99	0.650
523.19	0.648
523.39	0.645
523.59	0.643
523.79	0.647
523.99	0.649
524.19	0.647
524.38	0.645
524.58	0.648
524.78	0.648
524.98	0.646
525.18	0.648
525.38	0.650
525.58	0.650
525.78	0.648
525.98	0.646
526.18	0.647
526.37	0.646
526.57	0.648
526.77	0.647
526.97	0.648
527.17	0.648
527.37	0.644
527.57	0.647
527.77	0.649
527.96	0.649
528.16	0.647
528.36	0.648
528.56	0.650
528.76	0.647
528.96	0.647
529.16	0.648
529.36	0.651
529.55	0.651
529.75	0.647
529.95	0.648
530.15	0.650
530.35	0.653
530.55	0.650
530.75	0.650
530.94	0.653
531.14	0.653
531.34	0.651
531.54	0.649
531.74	0.653
531.94	0.656
532.13	0.653
532.33	0.655
532.53	0.654
532.73	0.653
532.93	0.651
533.13	0.652
533.33	0.653
533.52	0.653
533.72	0.656
533.92	0.654
534.12	0.652
534.32	0.653
534.52	0.651
534.71	0.653
534.91	0.656
535.11	0.658
535.31	0.656
535.51	0.658
535.71	0.660
535.90	0.658
536.10	0.658
536.30	0.660
536.50	0.661
536.70	0.662
536.89	0.659
537.09	0.658
537.29	0.660
537.49	0.661
537.69	0.658
537.89	0.659
538.08	0.658
538.28	0.656
538.48	0.656
538.68	0.657
538.88	0.659
539.07	0.660
539.27	0.658
539.47	0.657
539.67	0.657
539.87	0.658
540.06	0.656
540.26	0.657
540.46	0.659
540.66	0.657
540.86	0.654
541.05	0.655
541.25	0.657
541.45	0.656
541.65	0.654
541.84	0.656
542.04	0.657
542.24	0.658
542.44	0.657
542.64	0.657
542.83	0.660
543.03	0.661
543.23	0.658
543.43	0.659
543.62	0.661
543.82	0.661
544.02	0.660
544.22	0.660
544.42	0.663
544.61	0.663
544.81	0.661
545.01	0.660
545.21	0.662
545.40	0.662
545.60	0.659
545.80	0.662
546.00	0.663
546.19	0.662
546.39	0.660
546.59	0.658
546.79	0.660
546.98	0.660
547.18	0.659
547.38	0.660
547.58	0.663
547.77	0.664
547.97	0.660
548.17	0.661
548.37	0.662
548.56	0.663
548.76	0.662
548.96	0.664
549.16	0.668
549.35	0.668
549.55	0.665
549.75	0.667
549.95	0.671
550.14	0.671
550.34	0.669
550.54	0.674
550.73	0.677
550.93	0.678
551.13	0.674
551.33	0.671
551.52	0.673
551.72	0.673
551.92	0.670
552.12	0.670
552.31	0.671
552.51	0.671
552.71	0.666
552.90	0.666
553.10	0.668
553.30	0.669
553.50	0.667
553.69	0.669
553.89	0.670
554.09	0.670
554.28	0.667
554.48	0.669
554.68	0.672
554.87	0.672
555.07	0.668
555.27	0.668
555.47	0.671
555.66	0.671
555.86	0.669
556.06	0.671
556.25	0.673
556.45	0.680
556.65	0.677
556.84	0.681
557.04	0.684
557.24	0.686
557.43	0.685
557.63	0.688
557.83	0.690
558.02	0.691
558.22	0.694
558.42	0.696
558.61	0.689
558.81	0.689
559.01	0.684
559.21	0.685
559.40	0.687
559.60	0.687
559.80	0.682
559.99	0.683
560.19	0.686
560.39	0.679
560.58	0.675
560.78	0.676
560.97	0.681
561.17	0.680
561.37	0.676
561.56	0.676
561.76	0.678
561.96	0.678
562.15	0.675
562.35	0.677
562.55	0.680
562.74	0.680
562.94	0.677
563.14	0.675
563.33	0.677
563.53	0.677
563.73	0.674
563.92	0.676
564.12	0.679
564.31	0.681
564.51	0.679
564.71	0.680
564.90	0.684
565.10	0.685
565.30	0.687
565.49	0.689
565.69	0.691
565.89	0.691
566.08	0.687
566.28	0.688
566.47	0.690
566.67	0.688
566.87	0.684
567.06	0.685
567.26	0.692
567.46	0.688
567.65	0.686
567.85	0.688
568.04	0.691
568.24	0.690
568.44	0.686
568.63	0.684
568.83	0.687
569.02	0.686
569.22	0.681
569.42	0.677
569.61	0.680
569.81	0.678
570.00	0.675
570.20	0.677
570.40	0.679
570.59	0.679
570.79	0.677
570.98	0.675
571.18	0.677
571.38	0.677
571.57	0.673
571.77	0.671
571.96	0.675
572.16	0.672
572.35	0.666
572.55	0.668
572.75	0.666
572.94	0.666
573.14	0.664
573.33	0.664
573.53	0.665
573.73	0.665
573.92	0.662
574.12	0.660
574.31	0.663
574.51	0.664
574.70	0.660
574.90	0.662
575.09	0.664
575.29	0.665
575.49	0.662
575.68	0.663
575.88	0.664
576.07	0.666
576.27	0.664
576.46	0.662
576.66	0.663
576.86	0.662
577.05	0.659
577.25	0.657
577.44	0.659
577.64	0.659
577.83	0.657
578.03	0.658
578.22	0.657
578.42	0.656
578.61	0.654
578.81	0.654
579.00	0.656
579.20	0.656
579.40	0.655
579.59	0.653
579.79	0.654
579.98	0.654
580.18	0.653
580.37	0.654
580.57	0.657
580.76	0.662
580.96	0.660
581.15	0.660
581.35	0.662
581.54	0.662
581.74	0.661
581.93	0.663
582.13	0.664
582.32	0.662
582.52	0.660
582.71	0.659
582.91	0.656
583.10	0.656
583.30	0.655
583.49	0.654
583.69	0.658
583.88	0.659
584.08	0.658
584.27	0.660
584.47	0.663
584.66	0.664
584.86	0.662
585.05	0.663
585.25	0.666
585.44	0.665
585.64	0.663
585.83	0.660
586.03	0.661
586.22	0.660
586.42	0.656
586.61	0.658
586.81	0.662
587.00	0.662
587.20	0.660
587.39	0.661
587.59	0.664
587.78	0.665
587.98	0.665
588.17	0.666
588.37	0.669
588.56	0.671
588.76	0.666
588.95	0.666
589.15	0.669
589.34	0.672
589.54	0.670
589.73	0.670
589.92	0.673
590.12	0.673
590.31	0.670
590.51	0.675
590.70	0.676
590.90	0.677
591.09	0.674
591.29	0.672
591.48	0.672
591.68	0.673
591.87	0.671
592.06	0.670
592.26	0.673
592.45	0.672
592.65	0.665
592.84	0.665
593.04	0.668
593.23	0.671
593.43	0.668
593.62	0.668
593.81	0.668
594.01	0.668
594.20	0.666
594.40	0.665
594.59	0.668
594.79	0.669
594.98	0.667
595.17	0.666
595.37	0.668
595.56	0.669
595.76	0.668
595.95	0.669
596.14	0.672
596.34	0.673
596.53	0.671
596.73	0.673
596.92	0.674
597.12	0.676
597.31	0.676
597.50	0.674
597.70	0.677
597.89	0.677
598.09	0.673
598.28	0.674
598.47	0.677
598.67	0.675
598.86	0.672
599.06	0.674
599.25	0.674
599.44	0.672
599.64	0.670
599.83	0.668
600.03	0.672
600.22	0.672
600.41	0.672
600.61	0.670
600.80	0.674
601.00	0.675
601.19	0.670
601.38	0.669
601.58	0.672
601.77	0.673
601.96	0.674
602.16	0.674
602.35	0.684
602.55	0.681
602.74	0.681
602.93	0.681
603.13	0.687
603.32	0.688
603.51	0.686
603.71	0.688
603.90	0.691
604.09	0.691
604.29	0.687
604.48	0.681
604.68	0.683
604.87	0.682
605.06	0.678
605.26	0.675
605.45	0.677
605.64	0.677
605.84	0.672
606.03	0.671
606.22	0.670
606.42	0.670
606.61	0.666
606.80	0.666
607.00	0.669
607.19	0.670
607.38	0.668
607.58	0.669
607.77	0.672
607.96	0.672
608.16	0.670
608.35	0.675
608.54	0.679
608.74	0.682
608.93	0.687
609.12	0.690
609.32	0.693
609.51	0.696
609.70	0.694
609.90	0.696
610.09	0.701
610.28	0.706
610.48	0.698
610.67	0.699
610.86	0.700
611.06	0.693
611.25	0.690
611.44	0.691
611.64	0.691
611.83	0.694
612.02	0.689
612.21	0.688
612.41	0.687
612.60	0.687
612.79	0.682
612.99	0.683
613.18	0.686
613.37	0.683
613.57	0.680
613.76	0.683
613.95	0.681
614.14	0.682
614.34	0.679
614.53	0.681
614.72	0.684
614.92	0.684
615.11	0.681
615.30	0.678
615.49	0.680
615.69	0.684
615.88	0.679
616.07	0.681
616.26	0.683
616.46	0.684
616.65	0.680
616.84	0.680
617.04	0.682
617.23	0.686
617.42	0.686
617.61	0.690
617.81	0.692
618.00	0.693
618.19	0.690
618.38	0.694
618.58	0.698
618.77	0.699
618.96	0.697
619.15	0.699
619.35	0.702
619.54	0.701
619.73	0.696
619.92	0.697
620.12	0.703
620.31	0.703
620.50	0.697
620.69	0.698
620.89	0.702
621.08	0.702
621.27	0.701
621.46	0.700
621.66	0.705
621.85	0.705
622.04	0.700
622.23	0.701
622.43	0.702
622.62	0.702
622.81	0.701
623.00	0.700
623.19	0.705
623.39	0.704
623.58	0.700
623.77	0.698
623.96	0.702
624.16	0.702
624.35	0.696
624.54	0.699
624.73	0.704
624.92	0.702
625.12	0.699
625.31	0.700
625.50	0.704
625.69	0.704
625.88	0.699
626.08	0.699
626.27	0.701
626.46	0.703
626.65	0.698
626.84	0.699
627.04	0.705
627.23	0.704
627.42	0.699
627.61	0.701
627.80	0.705
628.00	0.706
628.19	0.703
628.38	0.707
628.57	0.711
628.76	0.710
628.96	0.706
629.15	0.706
629.34	0.710
629.53	0.710
629.72	0.704
629.91	0.705
630.11	0.712
630.30	0.713
630.49	0.714
630.68	0.715
630.87	0.720
631.06	0.722
631.26	0.715
631.45	0.718
631.64	0.727
631.83	0.729
632.02	0.726
632.21	0.723
632.41	0.731
632.60	0.725
632.79	0.722
632.98	0.722
633.17	0.725
633.36	0.728
633.55	0.723
633.75	0.719
633.94	0.722
634.13	0.722
634.32	0.717
634.51	0.712
634.70	0.715
634.89	0.715
635.09	0.710
635.28	0.712
635.47	0.714
635.66	0.716
635.85	0.711
636.04	0.713
636.23	0.719
636.43	0.722
636.62	0.720
636.81	0.719
637.00	0.723
637.19	0.726
637.38	0.721
637.57	0.721
637.76	0.724
637.95	0.725
638.15	0.720
638.34	0.717
638.53	0.721
638.72	0.722
638.91	0.718
639.10	0.714
639.29	0.715
639.48	0.716
639.67	0.715
639.87	0.714
640.06	0.720
640.25	0.719
640.44	0.720
640.63	0.721
640.82	0.724
641.01	0.725
641.20	0.724
641.39	0.727
641.58	0.729
641.78	0.728
641.97	0.722
642.16	0.736
642.35	0.738
642.54	0.736
642.73	0.728
642.92	0.726
643.11	0.730
643.30	0.730
643.49	0.724
643.68	0.727
643.87	0.730
644.06	0.730
644.25	0.709
644.45	0.712
644.64	0.713
644.83	0.715
645.02	0.711
645.21	0.711
645.40	0.714
645.59	0.714
645.78	0.707
645.97	0.709
646.16	0.710
646.35	0.709
646.54	0.706
646.73	0.708
646.92	0.710
647.11	0.710
647.30	0.704
647.49	0.706
647.68	0.707
647.88	0.706
648.07	0.697
648.26	0.701
648.45	0.705
648.64	0.700
648.83	0.697
649.02	0.699
649.21	0.711
649.40	0.711
649.59	0.705
649.78	0.705
649.97	0.720
650.16	0.720
650.35	0.713
650.54	0.715
650.73	0.725
650.92	0.721
651.11	0.713
651.30	0.710
651.49	0.715
651.68	0.716
651.87	0.711
652.06	0.701
652.25	0.704
652.44	0.705
652.63	0.699
652.82	0.697
653.01	0.697
653.20	0.694
653.39	0.681
653.58	0.679
653.77	0.678
653.96	0.674
654.15	0.665
654.34	0.664
654.53	0.661
654.72	0.656
654.91	0.647
655.10	0.644
655.29	0.643
655.48	0.642
655.67	0.636
655.86	0.634
656.05	0.633
656.24	0.633
656.43	0.627
656.62	0.627
656.81	0.630
657.00	0.629
657.19	0.627
657.38	0.628
657.57	0.629
657.76	0.632
657.95	0.630
658.14	0.635
658.33	0.639
658.51	0.645
658.70	0.644
658.89	0.644
659.08	0.652
659.27	0.659
659.46	0.658
659.65	0.663
659.84	0.667
660.03	0.670
660.22	0.669
660.41	0.673
660.60	0.673
660.79	0.675
660.98	0.680
661.17	0.679
661.36	0.679
661.55	0.679
661.74	0.675
661.92	0.677
662.11	0.680
662.30	0.679
662.49	0.671
662.68	0.671
662.87	0.675
663.06	0.669
663.25	0.669
663.44	0.669
663.63	0.672
663.82	0.671
664.01	0.665
664.20	0.664
664.38	0.667
664.57	0.667
664.76	0.666
664.95	0.666
665.14	0.672
665.33	0.666
665.52	0.673
665.71	0.676
665.90	0.677
666.09	0.678
666.28	0.674
666.46	0.673
666.65	0.674
666.84	0.672
667.03	0.665
667.22	0.663
667.41	0.667
667.60	0.656
667.79	0.649
667.98	0.651
668.16	0.653
668.35	0.653
668.54	0.649
668.73	0.650
668.92	0.652
669.11	0.650
669.30	0.643
669.49	0.639
669.67	0.641
669.86	0.643
670.05	0.640
670.24	0.637
670.43	0.635
670.62	0.634
670.81	0.628
671.00	0.630
671.18	0.631
671.37	0.631
671.56	0.628
671.75	0.628
671.94	0.626
672.13	0.624
672.32	0.619
672.50	0.618
672.69	0.619
672.88	0.620
673.07	0.614
673.26	0.617
673.45	0.618
673.63	0.618
673.82	0.614
674.01	0.616
674.20	0.616
674.39	0.616
674.58	0.614
674.76	0.613
674.95	0.612
675.14	0.612
675.33	0.606
675.52	0.605
675.71	0.605
675.89	0.605
676.08	0.599
676.27	0.599
676.46	0.600
676.65	0.600
676.84	0.600
677.02	0.602
677.21	0.605
677.40	0.605
677.59	0.602
677.78	0.603
677.96	0.606
678.15	0.606
678.34	0.602
678.53	0.603
678.72	0.604
678.90	0.601
679.09	0.595
679.28	0.592
679.47	0.592
679.66	0.592
679.84	0.587
680.03	0.585
680.22	0.584
680.41	0.586
680.60	0.582
680.78	0.582
680.97	0.584
681.16	0.584
681.35	0.583
681.53	0.581
681.72	0.582
681.91	0.584
682.10	0.582
682.29	0.585
682.47	0.583
682.66	0.583
682.85	0.580
683.04	0.578
683.22	0.579
683.41	0.581
683.60	0.580
683.79	0.581
683.97	0.580
684.16	0.579
684.35	0.574
684.54	0.576
684.72	0.577
684.91	0.578
685.10	0.576
685.29	0.576
685.47	0.574
685.66	0.574
685.85	0.570
686.04	0.570
686.22	0.573
686.41	0.576
686.60	0.572
686.79	0.575
686.97	0.577
687.16	0.578
687.35	0.575
687.54	0.578
687.72	0.583
687.91	0.582
688.10	0.583
688.29	0.582
688.47	0.580
688.66	0.579
688.85	0.575
689.03	0.572
689.22	0.577
689.41	0.577
689.60	0.572
689.78	0.569
689.97	0.571
690.16	0.568
690.34	0.564
690.53	0.564
690.72	0.565
690.91	0.563
691.09	0.561
691.28	0.555
691.47	0.553
691.65	0.553
691.84	0.550
692.03	0.548
692.21	0.547
692.40	0.547
692.59	0.543
692.77	0.542
692.96	0.545
693.15	0.546
693.34	0.544
693.52	0.544
693.71	0.545
693.90	0.545
694.08	0.545
694.27	0.546
694.46	0.557
694.64	0.557
694.83	0.557
695.02	0.554
695.20	0.554
695.39	0.553
695.58	0.553
695.76	0.554
695.95	0.554
696.14	0.553
696.32	0.551
696.51	0.541
696.70	0.542
696.88	0.542
697.07	0.541
697.26	0.542
697.44	0.544
697.63	0.543
697.81	0.540
698.00	0.540
698.19	0.540
698.37	0.540
698.56	0.539
698.75	0.539
698.93	0.539
699.12	0.539
699.31	0.538
699.49	0.537
699.68	0.538
699.87	0.541
700.05	0.541
700.24	0.539
700.42	0.541
700.61	0.540
700.80	0.538
700.98	0.538
701.17	0.539
701.36	0.538
701.54	0.537
701.73	0.538
701.91	0.536
702.10	0.535
702.29	0.533
702.47	0.532
702.66	0.534
702.84	0.535
703.03	0.533
703.22	0.535
703.40	0.535
703.59	0.536
703.77	0.534
703.96	0.534
704.15	0.536
704.33	0.536
704.52	0.535
704.70	0.534
704.89	0.535
705.08	0.533
705.26	0.529
705.45	0.529
705.63	0.529
705.82	0.526
706.00	0.525
706.19	0.524
706.38	0.524
706.56	0.524
706.75	0.521
706.93	0.520
707.12	0.522
707.30	0.522
707.49	0.519
707.68	0.517
707.86	0.517
708.05	0.517
708.23	0.515
708.42	0.516
708.60	0.519
708.79	0.520
708.98	0.517
709.16	0.517
709.35	0.520
709.53	0.524
709.72	0.522
709.90	0.523
710.09	0.525
710.27	0.526
710.46	0.529
710.64	0.527
710.83	0.529
711.02	0.530
711.20	0.528
711.39	0.526
711.57	0.524
711.76	0.525
711.94	0.522
712.13	0.523
712.31	0.523
712.50	0.518
712.68	0.515
712.87	0.517
713.05	0.518
713.24	0.518
713.42	0.517
713.61	0.518
713.79	0.520
713.98	0.520
714.16	0.521
714.35	0.520
714.54	0.521
714.72	0.521
714.91	0.519
715.09	0.525
715.28	0.529
715.46	0.529
715.65	0.525
715.83	0.525
716.02	0.528
716.20	0.524
716.39	0.524
716.57	0.526
716.76	0.529
716.94	0.528
717.12	0.520
717.31	0.521
717.49	0.525
717.68	0.527
717.86	0.526
718.05	0.528
718.23	0.530
718.42	0.532
718.60	0.532
718.79	0.540
718.97	0.544
719.16	0.544
719.34	0.541
719.53	0.541
719.71	0.541
719.90	0.543
720.08	0.538
720.27	0.539
720.45	0.540
720.63	0.539
720.82	0.532
721.00	0.535
721.19	0.541
721.37	0.539
721.56	0.538
721.74	0.542
721.93	0.551
722.11	0.557
722.30	0.555
722.48	0.560
722.66	0.562
722.85	0.561
723.03	0.560
723.22	0.557
723.40	0.563
723.59	0.563
723.77	0.565
723.95	0.559
724.14	0.562
724.32	0.563
724.51	0.561
724.69	0.562
724.88	0.563
725.06	0.562
725.24	0.561
725.43	0.562
725.61	0.565
725.80	0.560
725.98	0.556
726.16	0.554
726.35	0.560
726.53	0.559
726.72	0.556
726.90	0.567
727.09	0.568
727.27	0.575
727.45	0.570
727.64	0.581
727.82	0.589
728.01	0.594
728.19	0.591
728.37	0.597
728.56	0.602
728.74	0.609
728.92	0.595
729.11	0.596
729.29	0.595
729.48	0.597
729.66	0.585
729.84	0.585
730.03	0.589
730.21	0.592
730.40	0.581
730.58	0.583
730.76	0.584
730.95	0.587
731.13	0.586
731.31	0.601
731.50	0.612
731.68	0.615
731.86	0.608
732.05	0.623
732.23	0.626
732.42	0.630
732.60	0.631
732.78	0.637
732.97	0.657
733.15	0.665
733.33	0.649
733.52	0.656
733.70	0.671
733.88	0.679
734.07	0.663
734.25	0.690
734.43	0.700
734.62	0.704
734.80	0.695
734.98	0.683
735.17	0.689
735.35	0.696
735.53	0.683
735.72	0.687
735.90	0.715
736.08	0.735
736.27	0.708
736.45	0.718
736.63	0.734
736.82	0.744
737.00	0.744
737.18	0.756
737.37	0.794
737.55	0.818
737.73	0.807
737.92	0.808
738.10	0.809
738.28	0.831
738.46	0.813
738.65	0.827
738.83	0.854
739.01	0.913
739.20	0.899
739.38	0.881
739.56	0.876
739.75	0.885
739.93	0.843
740.11	0.869
740.29	0.877
740.48	0.886
740.66	0.859
740.84	0.853
741.03	0.819
741.21	0.830
741.39	0.805
741.57	0.817
741.76	0.841
741.94	0.848
742.12	0.808
742.31	0.813
742.49	0.840
742.67	0.861
742.85	0.872
743.04	0.880
743.22	0.898
743.40	0.960
743.58	0.937
743.77	0.951
743.95	0.997
744.13	1.055
744.31	1.027
744.50	1.020
744.68	1.030
744.86	0.998
745.04	1.002
745.23	1.076
745.41	1.062
745.59	1.068
745.77	1.016
745.96	0.996
746.14	1.012
746.32	1.005
746.50	0.986
746.69	0.974
746.87	0.996
747.05	0.977
747.23	0.890
747.42	0.879
747.60	0.918
747.78	0.927
747.96	0.963
748.14	0.916
748.33	0.953
748.51	0.943
748.69	0.925
748.87	0.955
749.06	0.957
749.24	0.960
749.42	0.931
749.60	0.903
749.78	0.921
749.97	0.868
750.15	0.857
750.33	0.860
750.51	0.898
750.69	0.908
750.88	0.906
751.06	0.919
751.24	0.956
751.42	0.945
751.60	0.932
751.79	1.007
751.97	1.071
752.15	1.068
752.33	1.028
752.51	1.101
752.69	1.129
752.88	1.087
753.06	1.136
753.24	1.099
753.42	1.156
753.60	1.391
753.78	1.181
753.97	1.201
754.15	1.238
754.33	1.269
754.51	1.098
754.69	1.073
754.87	1.123
755.06	1.036
755.24	1.030
755.42	1.033
755.60	0.927
755.78	0.937
755.96	0.874
756.15	0.873
756.33	0.878
756.51	0.900
756.69	0.883
756.87	0.844
757.05	0.869
757.23	0.850
757.42	0.814
757.60	0.812
757.78	0.803
757.96	0.802
758.14	0.781
758.32	0.771
758.50	0.789
758.69	0.787
758.87	0.776
759.05	0.780
759.23	0.799
759.41	0.799
759.59	0.789
759.77	0.814
759.95	0.847
760.13	0.902
760.32	0.893
760.50	0.884
760.68	0.913
760.86	0.916
761.04	0.884
761.22	0.885
761.40	0.945
761.58	0.945
761.76	0.911
761.95	0.892
762.13	0.846
762.31	0.849
762.49	0.809
762.67	0.831
762.85	0.848
763.03	0.840
763.21	0.815
763.39	0.797
763.57	0.804
763.75	0.797
763.94	0.777
764.12	0.778
764.30	0.806
764.48	0.813
764.66	0.768
764.84	0.765
765.02	0.808
765.20	0.818
765.38	0.790
765.56	0.797
765.74	0.843
765.92	0.846
766.10	0.854
766.28	0.844
766.46	0.879
766.65	0.880
766.83	0.862
767.01	0.848
767.19	0.858
767.37	0.858
767.55	0.840
767.73	0.820
767.91	0.828
768.09	0.814
768.27	0.799
768.45	0.787
768.63	0.797
768.81	0.801
768.99	0.766
769.17	0.791
769.35	0.811
769.53	0.807
769.71	0.782
769.89	0.792
770.07	0.803
770.25	0.783
770.43	0.757
770.61	0.783
770.79	0.792
770.97	0.805
771.15	0.768
771.33	0.770
771.51	0.777
771.69	0.789
771.87	0.789
772.05	0.793
772.24	0.807
772.42	0.817
772.60	0.790
772.78	0.855
772.96	0.889
773.14	0.884
773.32	0.857
773.49	0.866
773.67	0.865
773.85	0.845
774.03	0.830
774.21	0.867
774.39	0.884
774.57	0.911
774.75	0.826
774.93	0.822
775.11	0.853
775.29	0.859
775.47	0.857
775.65	0.869
775.83	0.896
776.01	0.922
776.19	0.861
776.37	0.866
776.55	0.866
776.73	0.863
776.91	0.851
777.09	0.832
777.27	0.834
777.45	0.820
777.63	0.794
777.81	0.789
777.99	0.779
778.17	0.778
778.35	0.750
778.53	0.738
778.71	0.749
778.89	0.737
779.07	0.720
779.24	0.725
779.42	0.730
779.60	0.750
779.78	0.743
779.96	0.750
780.14	0.763
780.32	0.784
780.50	0.762
780.68	0.761
780.86	0.755
781.04	0.777
781.22	0.780
781.40	0.794
781.58	0.788
781.75	0.779
781.93	0.756
782.11	0.754
782.29	0.743
782.47	0.744
782.65	0.728
782.83	0.760
783.01	0.759
783.19	0.750
783.37	0.731
783.55	0.736
783.72	0.758
783.90	0.769
784.08	0.758
784.26	0.771
784.44	0.796
784.62	0.799
784.80	0.756
784.98	0.758
785.16	0.770
785.33	0.783
785.51	0.761
785.69	0.746
785.87	0.750
786.05	0.762
786.23	0.753
786.41	0.749
786.59	0.757
786.77	0.757
786.94	0.740
787.12	0.742
787.30	0.746
787.48	0.744
787.66	0.727
787.84	0.726
788.02	0.717
788.19	0.715
788.37	0.699
788.55	0.700
788.73	0.703
788.91	0.697
789.09	0.677
789.27	0.668
789.44	0.681
789.62	0.690
789.80	0.696
789.98	0.724
790.16	0.712
790.34	0.708
790.51	0.692
790.69	0.714
790.87	0.723
791.05	0.720
791.23	0.710
791.41	0.713
791.58	0.723
791.76	0.700
791.94	0.666
792.12	0.677
792.30	0.683
792.48	0.682
792.65	0.673
792.83	0.680
793.01	0.691
793.19	0.688
793.37	0.670
793.54	0.664
793.72	0.678
793.90	0.676
794.08	0.663
794.26	0.665
794.43	0.678
794.61	0.660
794.79	0.646
794.97	0.645
795.15	0.655
795.32	0.658
795.50	0.645
795.68	0.642
795.86	0.647
796.04	0.648
796.21	0.639
796.39	0.636
796.57	0.653
796.75	0.661
796.92	0.659
797.10	0.663
797.28	0.668
797.46	0.672
797.64	0.670
797.81	0.679
797.99	0.685
798.17	0.689
798.35	0.682
798.52	0.686
798.70	0.683
798.88	0.694
799.06	0.690
799.23	0.695
799.41	0.705
799.59	0.698
799.77	0.683
799.94	0.693
800.12	0.706
800.30	0.725
800.48	0.720
800.65	0.721
800.83	0.712
801.01	0.702
801.19	0.698
801.36	0.697
801.54	0.704
801.72	0.717
801.90	0.700
802.07	0.693
802.25	0.680
802.43	0.663
802.60	0.657
802.78	0.663
802.96	0.673
803.14	0.666
803.31	0.661
803.49	0.658
803.67	0.656
803.84	0.658
804.02	0.646
804.20	0.650
804.38	0.658
804.55	0.655
804.73	0.638
804.91	0.637
805.08	0.653
805.26	0.648
805.44	0.707
805.61	0.712
805.79	0.716
805.97	0.719
806.15	0.704
806.32	0.698
806.50	0.706
806.68	0.707
806.85	0.697
807.03	0.687
807.21	0.707
807.38	0.641
807.56	0.627
807.74	0.639
807.91	0.646
808.09	0.649
808.27	0.668
808.44	0.697
808.62	0.710
808.80	0.709
808.97	0.703
809.15	0.697
809.33	0.720
809.50	0.729
809.68	0.708
809.86	0.719
810.03	0.758
810.21	0.735
810.39	0.713
810.56	0.720
810.74	0.748
810.91	0.826
811.09	0.812
811.27	0.835
811.44	0.842
811.62	0.844
811.80	0.820
811.97	0.784
812.15	0.786
812.33	0.778
812.50	0.759
812.68	0.748
812.85	0.691
813.03	0.694
813.21	0.659
813.38	0.653
813.56	0.659
813.74	0.668
813.91	0.675
814.09	0.709
814.26	0.707
814.44	0.711
814.62	0.697
814.79	0.700
814.97	0.708
815.14	0.711
815.32	0.713
815.50	0.731
815.67	0.739
815.85	0.730
816.02	0.715
816.20	0.724
816.38	0.742
816.55	0.749
816.73	0.747
816.90	0.759
817.08	0.798
817.26	0.803
817.43	0.777
817.61	0.804
817.78	0.832
817.96	0.806
818.13	0.791
818.31	0.793
818.49	0.812
818.66	0.801
818.84	0.778
819.01	0.753
819.19	0.763
819.36	0.765
819.54	0.730
819.71	0.771
819.89	0.791
820.07	0.806
820.24	0.794
820.42	0.794
820.59	0.821
820.77	0.851
820.94	0.836
821.12	0.859
821.29	0.883
821.47	0.883
821.64	0.806
821.82	0.822
822.00	0.820
822.17	0.820
822.35	0.807
822.52	0.805
822.70	0.793
822.87	0.807
823.05	0.779
823.22	0.793
823.40	0.826
823.57	0.852
823.75	0.825
823.92	0.857
824.10	0.883
824.27	0.929
824.45	0.915
824.62	0.989
824.80	1.012
824.97	1.028
825.15	1.011
825.32	1.028
825.50	1.039
825.67	1.059
825.85	1.018
826.02	1.043
826.20	1.083
826.37	1.256
826.55	1.138
826.72	1.455
826.90	1.658
827.07	1.810
827.25	1.630
827.42	2.433
827.60	-0.000
827.77	-0.000
827.95	-0.000
828.12	-0.000
828.30	-0.000
828.47	-0.000
828.65	1.680
828.82	1.862
829.00	2.550
829.17	-0.000
829.34	-0.000
829.52	-0.000
829.69	-0.000
829.87	-0.000
830.04	-0.000
830.22	-0.000
830.39	-0.000
830.57	-0.000
830.74	-0.000
830.92	-0.000
831.09	-0.000
831.26	-0.000
831.44	-0.000
831.61	-0.000
831.79	-0.000
831.96	-0.000
832.14	-0.000
832.31	-0.000
832.49	-0.000
832.66	-0.000
832.83	-0.000
833.01	-0.000
833.18	-0.000
833.36	-0.000
833.53	-0.000
833.70	-0.000
833.88	-0.000
834.05	-0.000
834.23	-0.000
834.40	-0.000
834.58	-0.000
834.75	-0.000
834.92	-0.000
835.10	-0.000
835.27	-0.000
835.45	-0.000
835.62	-0.000
835.79	-0.000
835.97	-0.000
836.14	-0.000
836.32	-0.000
836.49	-0.000
836.66	-0.000
836.84	-0.000
837.01	-0.000
837.18	-0.000
837.36	-0.000
837.53	-0.000
837.71	-0.000
837.88	-0.000
838.05	-0.000
838.23	-0.000
838.40	-0.000
838.58	-0.000
838.75	-0.000
838.92	-0.000
839.10	-0.000
839.27	-0.000
839.44	-0.000
839.62	-0.000
839.79	-0.000
839.96	-0.000
840.14	-0.000
840.31	-0.000
840.48	-0.000
840.66	-0.000
840.83	-0.000
841.01	-0.000
841.18	-0.000
841.35	-0.000
841.53	-0.000
841.70	-0.000
841.87	-0.000
842.05	-0.000
842.22	-0.000
842.39	-0.000
842.57	-0.000
842.74	-0.000
842.91	-0.000
843.09	-0.000
843.26	-0.000
843.43	-0.000
843.60	-0.000
843.78	-0.000
843.95	-0.000
844.12	-0.000
844.30	-0.000
844.47	-0.000
844.64	-0.000
844.82	-0.000
844.99	-0.000
845.16	-0.000
845.34	-0.000
845.51	-0.000
845.68	-0.000
845.85	-0.000
846.03	-0.000
846.20	-0.000
846.37	-0.000
846.55	-0.000
846.72	-0.000
846.89	-0.000
847.06	-0.000
847.24	-0.000
847.41	-0.000
847.58	-0.000
847.76	-0.000
847.93	-0.000
848.10	-0.000
848.27	-0.000
848.45	-0.000
848.62	-0.000
848.79	-0.000
848.97	-0.000
849.14	-0.000
849.31	-0.000
849.48	-0.000
849.66	-0.000
849.83	-0.000
850.00	-0.000
850.17	-0.000
850.35	-0.000
850.52	-0.000
850.69	-0.000
850.86	-0.000
851.04	-0.000
851.21	-0.000
851.38	-0.000
851.55	-0.000
851.72	-0.000
851.90	-0.000
852.07	-0.000
852.24	-0.000
852.41	-0.000
852.59	-0.000
852.76	-0.000
852.93	-0.000
853.10	-0.000
853.28	-0.000
853.45	-0.000
853.62	-0.000
853.79	-0.000
853.96	-0.000
854.14	-0.000
854.31	-0.000
854.48	-0.000
854.65	-0.000
854.82	-0.000
855.00	-0.000
855.17	-0.000
855.34	-0.000
855.51	-0.000
855.68	-0.000
855.86	-0.000
856.03	-0.000
856.20	-0.000
856.37	-0.000
856.54	-0.000
856.72	-0.000
856.89	-0.000
857.06	-0.000
857.23	-0.000
857.40	-0.000
857.57	-0.000
857.75	-0.000
857.92	-0.000
858.09	-0.000
858.26	-0.000
858.43	-0.000
858.60	-0.000
858.78	-0.000
858.95	-0.000
859.12	-0.000
859.29	-0.000
859.46	-0.000
859.63	-0.000
859.81	-0.000
859.98	-0.000
860.15	-0.000
860.32	-0.000
860.49	-0.000
860.66	-0.000
860.83	-0.000
861.01	-0.000
861.18	-0.000
861.35	-0.000
861.52	-0.000
861.69	-0.000
861.86	-0.000
862.03	-0.000
862.21	-0.000
862.38	-0.000
862.55	-0.000
862.72	-0.000
862.89	-0.000
863.06	-0.000
863.23	-0.000
863.40	-0.000
863.58	-0.000
863.75	-0.000
863.92	-0.000
864.09	-0.000
864.26	-0.000
864.43	-0.000
864.60	-0.000
864.77	-0.000
864.94	-0.000
865.11	-0.000
865.29	-0.000
865.46	-0.000
865.63	-0.000
865.80	-0.000
865.97	-0.000
866.14	-0.000
866.31	-0.000
866.48	-0.000
866.65	-0.000
866.82	-0.000
866.99	-0.000
867.16	-0.000
867.34	-0.000
867.51	-0.000
867.68	-0.000
867.85	-0.000
868.02	-0.000
868.19	-0.000
868.36	-0.000
868.53	-0.000
868.70	-0.000
868.87	-0.000
869.04	-0.000
869.21	-0.000
869.38	-0.000
869.55	-0.000
869.72	-0.000
869.89	-0.000
870.06	-0.000
870.24	-0.000
870.41	-0.000
870.58	-0.000
870.75	-0.000
870.92	-0.000
871.09	-0.000
871.26	-0.000
871.43	-0.000
871.60	-0.000
871.77	-0.000
871.94	-0.000
872.11	-0.000
872.28	-0.000
872.45	-0.000
872.62	-0.000
872.79	-0.000
872.96	-0.000
873.13	-0.000
873.30	-0.000
873.47	-0.000
873.64	-0.000
873.81	-0.000
873.98	-0.000
874.15	-0.000
874.32	-0.000
874.49	-0.000
874.66	-0.000
874.83	-0.000
875.00	-0.000
875.17	-0.000
875.34	-0.000
875.51	-0.000
875.68	-0.000
875.85	-0.000
876.02	-0.000
876.19	-0.000
876.36	-0.000
876.53	-0.000
876.70	-0.000
876.87	-0.000
877.04	-0.000
877.21	-0.000
877.38	-0.000
877.55	-0.000
877.72	-0.000
877.89	-0.000
878.06	-0.000
878.23	-0.000
878.39	-0.000
878.56	-0.000
878.73	-0.000
878.90	-0.000
879.07	-0.000
879.24	-0.000
879.41	-0.000
879.58	-0.000
879.75	-0.000
879.92	-0.000
880.09	-0.000
880.26	-0.000
880.43	-0.000
880.60	-0.000
880.77	-0.000
880.94	-0.000
881.11	-0.000
881.27	-0.000
881.44	-0.000
881.61	-0.000
881.78	-0.000
881.95	-0.000
882.12	-0.000
882.29	-0.000
882.46	-0.000
882.63	-0.000
882.80	-0.000
882.97	-0.000
883.14	-0.000
883.30	-0.000
883.47	-0.000
883.64	-0.000
883.81	-0.000
883.98	-0.000
884.15	-0.000
884.32	-0.000
884.49	-0.000
884.66	-0.000
884.82	-0.000
884.99	-0.000
885.16	-0.000
885.33	-0.000
885.50	-0.000
885.67	-0.000
885.84	-0.000
886.01	-0.000
886.17	-0.000
886.34	-0.000
886.51	-0.000
886.68	-0.000
886.85	-0.000
887.02	-0.000
887.19	-0.000
887.36	-0.000
887.52	-0.000
887.69	-0.000
887.86	-0.000
888.03	-0.000
888.20	-0.000
888.37	-0.000
888.54	-0.000
888.70	-0.000
888.87	-0.000
889.04	-0.000
889.21	-0.000
889.38	-0.000
889.55	-0.000
889.71	-0.000
889.88	-0.000
890.05	-0.000
890.22	-0.000
890.39	-0.000
>>>>>End Processed Spectral Data<<<<<
