SpectraSuite Data File
++++++++++++++++++++++++++++++++++++
Date: Fri Jun 19 11:43:38 CEST 2015
User: introlabs
Dark Spectrum Present: Yes
Reference Spectrum Present: Yes
Number of Sampled Component Spectra: 1
Spectrometers: USB4H08886
Integration Time (usec): 5245692 (USB4H08886)
Spectra Averaged: 5 (USB4H08886)
Boxcar Smoothing: 5 (USB4H08886)
Correct for Electrical Dark: Yes (USB4H08886)
Strobe/Lamp Enabled: No (USB4H08886)
Correct for Detector Non-linearity: Yes (USB4H08886)
Correct for Stray Light: Yes (USB4H08886)
Number of Pixels in Processed Spectrum: 3648
>>>>>Begin Processed Spectral Data<<<<<
178.14	-0.000
178.36	-0.000
178.57	-0.000
178.79	-0.000
179.01	-0.000
179.22	-0.000
179.44	-0.000
179.65	-0.000
179.87	-0.000
180.08	-0.000
180.30	-0.000
180.52	-0.000
180.73	-0.000
180.95	-0.000
181.16	-0.000
181.38	-0.000
181.59	-0.000
181.81	-0.000
182.03	-0.000
182.24	-0.000
182.46	-0.000
182.67	-0.000
182.89	-0.000
183.10	-0.000
183.32	-0.000
183.54	-0.000
183.75	-0.000
183.97	-0.000
184.18	-0.000
184.40	-0.000
184.61	-0.000
184.83	-0.000
185.04	-0.000
185.26	-0.000
185.48	-0.000
185.69	-0.000
185.91	-0.000
186.12	-0.000
186.34	-0.000
186.55	-0.000
186.77	-0.000
186.98	-0.000
187.20	-0.000
187.42	-0.000
187.63	-0.000
187.85	-0.000
188.06	-0.000
188.28	-0.000
188.49	-0.000
188.71	-0.000
188.92	-0.000
189.14	-0.000
189.36	-0.000
189.57	-0.000
189.79	-0.000
190.00	-0.000
190.22	-0.000
190.43	-0.000
190.65	-0.000
190.86	-0.000
191.08	-0.000
191.29	-0.000
191.51	-0.000
191.72	-0.000
191.94	-0.000
192.16	-0.000
192.37	-0.000
192.59	-0.000
192.80	-0.000
193.02	-0.000
193.23	-0.000
193.45	-0.000
193.66	-0.000
193.88	-0.000
194.09	-0.000
194.31	-0.000
194.52	-0.000
194.74	-0.000
194.95	-0.000
195.17	-0.000
195.38	-0.000
195.60	-0.000
195.81	-0.000
196.03	-0.000
196.25	-0.000
196.46	-0.000
196.68	-0.000
196.89	-0.000
197.11	-0.000
197.32	-0.000
197.54	-0.000
197.75	-0.000
197.97	-0.000
198.18	-0.000
198.40	-0.000
198.61	-0.000
198.83	-0.000
199.04	-0.000
199.26	-0.000
199.47	-0.000
199.69	-0.000
199.90	-0.000
200.12	-0.000
200.33	-0.000
200.55	-0.000
200.76	-0.000
200.98	-0.000
201.19	-0.000
201.41	-0.000
201.62	-0.000
201.84	-0.000
202.05	-0.000
202.27	-0.000
202.48	-0.000
202.70	-0.000
202.91	-0.000
203.13	-0.000
203.34	-0.000
203.56	-0.000
203.77	-0.000
203.99	-0.000
204.20	-0.000
204.42	-0.000
204.63	-0.000
204.85	-0.000
205.06	-0.000
205.28	-0.000
205.49	-0.000
205.71	-0.000
205.92	-0.000
206.14	-0.000
206.35	-0.000
206.56	-0.000
206.78	-0.000
206.99	-0.000
207.21	-0.000
207.42	-0.000
207.64	-0.000
207.85	-0.000
208.07	-0.000
208.28	-0.000
208.50	-0.000
208.71	-0.000
208.93	-0.000
209.14	-0.000
209.36	-0.000
209.57	-0.000
209.79	-0.000
210.00	-0.000
210.22	-0.000
210.43	-0.000
210.64	-0.000
210.86	-0.000
211.07	-0.000
211.29	-0.000
211.50	-0.000
211.72	-0.000
211.93	-0.000
212.15	-0.000
212.36	-0.000
212.58	-0.000
212.79	-0.000
213.01	-0.000
213.22	-0.000
213.43	-0.000
213.65	-0.000
213.86	-0.000
214.08	-0.000
214.29	-0.000
214.51	-0.000
214.72	-0.000
214.94	-0.000
215.15	-0.000
215.36	-0.000
215.58	-0.000
215.79	-0.000
216.01	-0.000
216.22	-0.000
216.44	-0.000
216.65	-0.000
216.87	-0.000
217.08	-0.000
217.29	-0.000
217.51	-0.000
217.72	-0.000
217.94	-0.000
218.15	-0.000
218.37	-0.000
218.58	-0.000
218.80	-0.000
219.01	-0.000
219.22	-0.000
219.44	-0.000
219.65	-0.000
219.87	-0.000
220.08	-0.000
220.30	-0.000
220.51	-0.000
220.72	-0.000
220.94	-0.000
221.15	-0.000
221.37	-0.000
221.58	-0.000
221.79	-0.000
222.01	-0.000
222.22	-0.000
222.44	-0.000
222.65	-0.000
222.87	-0.000
223.08	-0.000
223.29	-0.000
223.51	-0.000
223.72	-0.000
223.94	-0.000
224.15	-0.000
224.36	-0.000
224.58	-0.000
224.79	-0.000
225.01	-0.000
225.22	-0.000
225.44	-0.000
225.65	-0.000
225.86	-0.000
226.08	-0.000
226.29	-0.000
226.51	-0.000
226.72	-0.000
226.93	-0.000
227.15	-0.000
227.36	-0.000
227.58	-0.000
227.79	-0.000
228.00	-0.000
228.22	-0.000
228.43	-0.000
228.65	-0.000
228.86	-0.000
229.07	-0.000
229.29	-0.000
229.50	-0.000
229.72	-0.000
229.93	-0.000
230.14	-0.000
230.36	-0.000
230.57	-0.000
230.78	-0.000
231.00	-0.000
231.21	-0.000
231.43	-0.000
231.64	-0.000
231.85	-0.000
232.07	-0.000
232.28	-0.000
232.50	-0.000
232.71	-0.000
232.92	-0.000
233.14	-0.000
233.35	-0.000
233.56	-0.000
233.78	-0.000
233.99	-0.000
234.21	-0.000
234.42	-0.000
234.63	-0.000
234.85	-0.000
235.06	-0.000
235.27	-0.000
235.49	-0.000
235.70	-0.000
235.91	-0.000
236.13	-0.000
236.34	-0.000
236.56	-0.000
236.77	-0.000
236.98	-0.000
237.20	-0.000
237.41	-0.000
237.62	-0.000
237.84	-0.000
238.05	-0.000
238.26	-0.000
238.48	-0.000
238.69	-0.000
238.91	-0.000
239.12	-0.000
239.33	-0.000
239.55	-0.000
239.76	-0.000
239.97	-0.000
240.19	-0.000
240.40	-0.000
240.61	-0.000
240.83	-0.000
241.04	-0.000
241.25	-0.000
241.47	-0.000
241.68	-0.000
241.89	-0.000
242.11	-0.000
242.32	-0.000
242.53	-0.000
242.75	-0.000
242.96	-0.000
243.17	-0.000
243.39	-0.000
243.60	-0.000
243.81	-0.000
244.03	-0.000
244.24	-0.000
244.45	-0.000
244.67	-0.000
244.88	-0.000
245.09	-0.000
245.31	-0.000
245.52	-0.000
245.73	-0.000
245.95	-0.000
246.16	-0.000
246.37	-0.000
246.59	-0.000
246.80	-0.000
247.01	-0.000
247.23	-0.000
247.44	-0.000
247.65	-0.000
247.87	-0.000
248.08	-0.000
248.29	-0.000
248.51	-0.000
248.72	-0.000
248.93	-0.000
249.15	-0.000
249.36	-0.000
249.57	-0.000
249.78	-0.000
250.00	-0.000
250.21	-0.000
250.42	-0.000
250.64	-0.000
250.85	-0.000
251.06	-0.000
251.28	-0.000
251.49	-0.000
251.70	-0.000
251.92	-0.000
252.13	-0.000
252.34	-0.000
252.55	-0.000
252.77	-0.000
252.98	-0.000
253.19	-0.000
253.41	-0.000
253.62	-0.000
253.83	-0.000
254.05	-0.000
254.26	-0.000
254.47	-0.000
254.68	-0.000
254.90	-0.000
255.11	-0.000
255.32	-0.000
255.54	-0.000
255.75	-0.000
255.96	-0.000
256.17	-0.000
256.39	-0.000
256.60	-0.000
256.81	-0.000
257.03	-0.000
257.24	-0.000
257.45	-0.000
257.66	-0.000
257.88	-0.000
258.09	-0.000
258.30	-0.000
258.51	-0.000
258.73	-0.000
258.94	-0.000
259.15	-0.000
259.37	-0.000
259.58	-0.000
259.79	-0.000
260.00	-0.000
260.22	-0.000
260.43	-0.000
260.64	-0.000
260.85	-0.000
261.07	-0.000
261.28	-0.000
261.49	-0.000
261.71	-0.000
261.92	-0.000
262.13	-0.000
262.34	-0.000
262.56	-0.000
262.77	-0.000
262.98	-0.000
263.19	-0.000
263.41	-0.000
263.62	-0.000
263.83	-0.000
264.04	-0.000
264.26	-0.000
264.47	-0.000
264.68	-0.000
264.89	-0.000
265.11	-0.000
265.32	-0.000
265.53	-0.000
265.74	-0.000
265.96	-0.000
266.17	-0.000
266.38	-0.000
266.59	-0.000
266.81	-0.000
267.02	-0.000
267.23	-0.000
267.44	-0.000
267.65	-0.000
267.87	-0.000
268.08	-0.000
268.29	-0.000
268.50	-0.000
268.72	-0.000
268.93	-0.000
269.14	-0.000
269.35	-0.000
269.57	-0.000
269.78	-0.000
269.99	-0.000
270.20	-0.000
270.41	-0.000
270.63	-0.000
270.84	-0.000
271.05	-0.000
271.26	-0.000
271.48	-0.000
271.69	-0.000
271.90	-0.000
272.11	-0.000
272.32	-0.000
272.54	-0.000
272.75	-0.000
272.96	-0.000
273.17	-0.000
273.39	-0.000
273.60	-0.000
273.81	-0.000
274.02	-0.000
274.23	-0.000
274.45	-0.000
274.66	-0.000
274.87	-0.000
275.08	-0.000
275.29	-0.000
275.51	-0.000
275.72	-0.000
275.93	-0.000
276.14	-0.000
276.35	-0.000
276.57	-0.000
276.78	-0.000
276.99	-0.000
277.20	-0.000
277.41	-0.000
277.63	-0.000
277.84	-0.000
278.05	-0.000
278.26	-0.000
278.47	-0.000
278.69	-0.000
278.90	-0.000
279.11	-0.000
279.32	-0.000
279.53	-0.000
279.74	-0.000
279.96	-0.000
280.17	-0.000
280.38	-0.000
280.59	-0.000
280.80	-0.000
281.02	-0.000
281.23	-0.000
281.44	-0.000
281.65	-0.000
281.86	-0.000
282.07	-0.000
282.29	-0.000
282.50	-0.000
282.71	-0.000
282.92	-0.000
283.13	-0.000
283.35	-0.000
283.56	-0.000
283.77	-0.000
283.98	-0.000
284.19	-0.000
284.40	-0.000
284.62	-0.000
284.83	-0.000
285.04	-0.000
285.25	-0.000
285.46	-0.000
285.67	-0.000
285.88	-0.000
286.10	-0.000
286.31	-0.000
286.52	-0.000
286.73	-0.000
286.94	-0.000
287.15	-0.000
287.37	-0.000
287.58	-0.000
287.79	-0.000
288.00	-0.000
288.21	-0.000
288.42	-0.000
288.63	-0.000
288.85	2.044
289.06	1.686
289.27	1.665
289.48	1.610
289.69	1.433
289.90	1.393
290.11	1.376
290.33	1.294
290.54	1.242
290.75	1.290
290.96	1.237
291.17	1.247
291.38	1.244
291.59	1.206
291.81	1.223
292.02	1.219
292.23	1.211
292.44	1.195
292.65	1.194
292.86	1.167
293.07	1.127
293.28	1.133
293.50	1.098
293.71	1.095
293.92	1.093
294.13	1.056
294.34	1.042
294.55	1.026
294.76	1.024
294.97	1.025
295.19	1.012
295.40	0.997
295.61	0.990
295.82	1.015
296.03	1.014
296.24	1.003
296.45	1.012
296.66	1.040
296.87	1.039
297.09	1.045
297.30	1.016
297.51	1.031
297.72	1.023
297.93	1.010
298.14	0.987
298.35	0.971
298.56	0.986
298.77	0.973
298.99	0.960
299.20	0.949
299.41	0.934
299.62	0.938
299.83	0.927
300.04	0.923
300.25	0.925
300.46	0.927
300.67	0.928
300.88	0.913
301.10	0.909
301.31	0.893
301.52	0.893
301.73	0.890
301.94	0.891
302.15	0.892
302.36	0.902
302.57	0.901
302.78	0.888
302.99	0.893
303.20	0.883
303.41	0.885
303.63	0.898
303.84	0.907
304.05	0.898
304.26	0.898
304.47	0.886
304.68	0.877
304.89	0.872
305.10	0.885
305.31	0.871
305.52	0.867
305.73	0.870
305.94	0.859
306.15	0.848
306.37	0.846
306.58	0.834
306.79	0.838
307.00	0.836
307.21	0.836
307.42	0.824
307.63	0.827
307.84	0.839
308.05	0.829
308.26	0.823
308.47	0.827
308.68	0.823
308.89	0.825
309.10	0.818
309.31	0.822
309.52	0.811
309.73	0.808
309.95	0.809
310.16	0.798
310.37	0.795
310.58	0.793
310.79	0.783
311.00	0.781
311.21	0.779
311.42	0.787
311.63	0.781
311.84	0.780
312.05	0.775
312.26	0.768
312.47	0.765
312.68	0.765
312.89	0.773
313.10	0.780
313.31	0.782
313.52	0.775
313.73	0.765
313.94	0.769
314.15	0.775
314.36	0.773
314.57	0.775
314.78	0.783
314.99	0.779
315.21	0.771
315.42	0.763
315.63	0.759
315.84	0.763
316.05	0.764
316.26	0.757
316.47	0.750
316.68	0.757
316.89	0.758
317.10	0.749
317.31	0.753
317.52	0.753
317.73	0.759
317.94	0.759
318.15	0.764
318.36	0.768
318.57	0.777
318.78	0.780
318.99	0.771
319.20	0.774
319.41	0.778
319.62	0.777
319.83	0.784
320.04	0.779
320.25	0.777
320.46	0.770
320.67	0.763
320.88	0.759
321.09	0.756
321.30	0.756
321.51	0.749
321.72	0.746
321.93	0.745
322.14	0.736
322.35	0.731
322.56	0.730
322.77	0.728
322.98	0.724
323.19	0.717
323.40	0.713
323.61	0.713
323.82	0.709
324.03	0.709
324.24	0.710
324.45	0.710
324.66	0.714
324.87	0.716
325.08	0.715
325.29	0.722
325.50	0.724
325.71	0.728
325.92	0.726
326.13	0.729
326.34	0.731
326.55	0.732
326.76	0.733
326.97	0.733
327.18	0.735
327.39	0.732
327.60	0.723
327.80	0.721
328.01	0.716
328.22	0.719
328.43	0.716
328.64	0.712
328.85	0.705
329.06	0.703
329.27	0.701
329.48	0.699
329.69	0.702
329.90	0.703
330.11	0.705
330.32	0.705
330.53	0.701
330.74	0.701
330.95	0.700
331.16	0.700
331.37	0.700
331.58	0.697
331.79	0.696
332.00	0.693
332.21	0.695
332.42	0.694
332.63	0.696
332.83	0.700
333.04	0.706
333.25	0.702
333.46	0.705
333.67	0.705
333.88	0.706
334.09	0.703
334.30	0.707
334.51	0.708
334.72	0.705
334.93	0.706
335.14	0.701
335.35	0.693
335.56	0.694
335.77	0.689
335.98	0.690
336.18	0.687
336.39	0.687
336.60	0.684
336.81	0.685
337.02	0.682
337.23	0.678
337.44	0.679
337.65	0.678
337.86	0.679
338.07	0.679
338.28	0.675
338.49	0.679
338.70	0.678
338.91	0.675
339.11	0.673
339.32	0.674
339.53	0.680
339.74	0.682
339.95	0.684
340.16	0.686
340.37	0.688
340.58	0.692
340.79	0.687
341.00	0.686
341.21	0.685
341.41	0.681
341.62	0.682
341.83	0.676
342.04	0.673
342.25	0.670
342.46	0.666
342.67	0.665
342.88	0.665
343.09	0.663
343.30	0.661
343.50	0.661
343.71	0.661
343.92	0.659
344.13	0.658
344.34	0.657
344.55	0.658
344.76	0.660
344.97	0.656
345.18	0.656
345.38	0.656
345.59	0.660
345.80	0.662
346.01	0.666
346.22	0.670
346.43	0.670
346.64	0.668
346.85	0.668
347.06	0.668
347.26	0.668
347.47	0.666
347.68	0.671
347.89	0.666
348.10	0.668
348.31	0.662
348.52	0.660
348.73	0.659
348.93	0.660
349.14	0.661
349.35	0.661
349.56	0.662
349.77	0.662
349.98	0.662
350.19	0.663
350.39	0.663
350.60	0.667
350.81	0.662
351.02	0.662
351.23	0.661
351.44	0.659
351.65	0.659
351.86	0.660
352.06	0.657
352.27	0.652
352.48	0.654
352.69	0.653
352.90	0.650
353.11	0.650
353.31	0.650
353.52	0.652
353.73	0.655
353.94	0.651
354.15	0.650
354.36	0.649
354.57	0.652
354.77	0.649
354.98	0.649
355.19	0.649
355.40	0.649
355.61	0.648
355.82	0.645
356.02	0.644
356.23	0.643
356.44	0.643
356.65	0.642
356.86	0.639
357.07	0.642
357.27	0.639
357.48	0.638
357.69	0.640
357.90	0.642
358.11	0.642
358.32	0.641
358.52	0.639
358.73	0.640
358.94	0.638
359.15	0.640
359.36	0.637
359.56	0.639
359.77	0.639
359.98	0.636
360.19	0.636
360.40	0.637
360.61	0.638
360.81	0.639
361.02	0.637
361.23	0.639
361.44	0.640
361.65	0.642
361.85	0.640
362.06	0.643
362.27	0.642
362.48	0.643
362.69	0.639
362.89	0.640
363.10	0.643
363.31	0.643
363.52	0.642
363.73	0.639
363.93	0.641
364.14	0.641
364.35	0.637
364.56	0.642
364.77	0.640
364.97	0.642
365.18	0.638
365.39	0.638
365.60	0.638
365.81	0.639
366.01	0.639
366.22	0.635
366.43	0.634
366.64	0.634
366.84	0.628
367.05	0.628
367.26	0.626
367.47	0.629
367.68	0.626
367.88	0.628
368.09	0.627
368.30	0.625
368.51	0.626
368.71	0.624
368.92	0.622
369.13	0.627
369.34	0.628
369.55	0.628
369.75	0.626
369.96	0.625
370.17	0.626
370.38	0.629
370.58	0.630
370.79	0.628
371.00	0.628
371.21	0.632
371.41	0.628
371.62	0.626
371.83	0.628
372.04	0.626
372.24	0.627
372.45	0.624
372.66	0.621
372.87	0.624
373.07	0.624
373.28	0.626
373.49	0.622
373.70	0.624
373.90	0.622
374.11	0.620
374.32	0.620
374.53	0.621
374.73	0.623
374.94	0.622
375.15	0.618
375.36	0.619
375.56	0.615
375.77	0.616
375.98	0.614
376.19	0.616
376.39	0.619
376.60	0.618
376.81	0.616
377.02	0.615
377.22	0.617
377.43	0.619
377.64	0.620
377.84	0.620
378.05	0.619
378.26	0.618
378.47	0.619
378.67	0.618
378.88	0.618
379.09	0.617
379.30	0.615
379.50	0.614
379.71	0.612
379.92	0.610
380.12	0.610
380.33	0.614
380.54	0.614
380.75	0.610
380.95	0.609
381.16	0.611
381.37	0.611
381.57	0.612
381.78	0.611
381.99	0.611
382.20	0.612
382.40	0.614
382.61	0.612
382.82	0.613
383.02	0.616
383.23	0.616
383.44	0.616
383.64	0.616
383.85	0.613
384.06	0.613
384.27	0.614
384.47	0.614
384.68	0.611
384.89	0.608
385.09	0.609
385.30	0.609
385.51	0.609
385.71	0.608
385.92	0.606
386.13	0.605
386.33	0.606
386.54	0.606
386.75	0.604
386.95	0.606
387.16	0.608
387.37	0.607
387.58	0.606
387.78	0.605
387.99	0.605
388.20	0.604
388.40	0.606
388.61	0.603
388.82	0.604
389.02	0.603
389.23	0.601
389.44	0.601
389.64	0.603
389.85	0.599
390.06	0.599
390.26	0.596
390.47	0.597
390.68	0.598
390.88	0.601
391.09	0.597
391.30	0.599
391.50	0.600
391.71	0.599
391.92	0.597
392.12	0.598
392.33	0.598
392.53	0.598
392.74	0.597
392.95	0.593
393.15	0.592
393.36	0.592
393.57	0.593
393.77	0.591
393.98	0.590
394.19	0.591
394.39	0.589
394.60	0.587
394.81	0.589
395.01	0.591
395.22	0.592
395.43	0.591
395.63	0.590
395.84	0.586
396.04	0.589
396.25	0.586
396.46	0.585
396.66	0.585
396.87	0.585
397.08	0.585
397.28	0.584
397.49	0.583
397.69	0.585
397.90	0.586
398.11	0.586
398.31	0.584
398.52	0.585
398.73	0.586
398.93	0.587
399.14	0.586
399.34	0.586
399.55	0.585
399.76	0.586
399.96	0.583
400.17	0.584
400.37	0.584
400.58	0.584
400.79	0.582
400.99	0.580
401.20	0.578
401.41	0.578
401.61	0.577
401.82	0.575
402.02	0.576
402.23	0.578
402.44	0.577
402.64	0.576
402.85	0.576
403.05	0.577
403.26	0.578
403.47	0.580
403.67	0.579
403.88	0.579
404.08	0.579
404.29	0.579
404.50	0.579
404.70	0.578
404.91	0.579
405.11	0.579
405.32	0.579
405.52	0.579
405.73	0.578
405.94	0.579
406.14	0.578
406.35	0.577
406.55	0.577
406.76	0.575
406.97	0.574
407.17	0.574
407.38	0.575
407.58	0.574
407.79	0.573
407.99	0.572
408.20	0.571
408.41	0.571
408.61	0.572
408.82	0.571
409.02	0.571
409.23	0.573
409.43	0.571
409.64	0.569
409.84	0.570
410.05	0.571
410.26	0.572
410.46	0.572
410.67	0.573
410.87	0.572
411.08	0.570
411.28	0.569
411.49	0.568
411.69	0.569
411.90	0.571
412.11	0.570
412.31	0.569
412.52	0.568
412.72	0.567
412.93	0.567
413.13	0.567
413.34	0.569
413.54	0.569
413.75	0.571
413.95	0.572
414.16	0.572
414.37	0.570
414.57	0.571
414.78	0.570
414.98	0.572
415.19	0.571
415.39	0.572
415.60	0.570
415.80	0.569
416.01	0.568
416.21	0.566
416.42	0.566
416.62	0.567
416.83	0.566
417.03	0.567
417.24	0.566
417.44	0.564
417.65	0.565
417.86	0.566
418.06	0.567
418.27	0.567
418.47	0.567
418.68	0.565
418.88	0.565
419.09	0.565
419.29	0.565
419.50	0.565
419.70	0.567
419.91	0.567
420.11	0.566
420.32	0.565
420.52	0.566
420.73	0.565
420.93	0.565
421.14	0.566
421.34	0.566
421.55	0.568
421.75	0.566
421.96	0.565
422.16	0.564
422.37	0.563
422.57	0.564
422.78	0.564
422.98	0.565
423.19	0.566
423.39	0.565
423.60	0.565
423.80	0.562
424.01	0.564
424.21	0.563
424.42	0.563
424.62	0.563
424.83	0.563
425.03	0.563
425.23	0.562
425.44	0.560
425.64	0.559
425.85	0.558
426.05	0.559
426.26	0.558
426.46	0.558
426.67	0.558
426.87	0.557
427.08	0.557
427.28	0.557
427.49	0.556
427.69	0.556
427.90	0.556
428.10	0.558
428.31	0.558
428.51	0.560
428.71	0.560
428.92	0.560
429.12	0.561
429.33	0.562
429.53	0.561
429.74	0.561
429.94	0.562
430.15	0.563
430.35	0.561
430.56	0.561
430.76	0.560
430.96	0.561
431.17	0.562
431.37	0.562
431.58	0.562
431.78	0.563
431.99	0.564
432.19	0.562
432.40	0.563
432.60	0.565
432.80	0.565
433.01	0.565
433.21	0.564
433.42	0.564
433.62	0.564
433.83	0.564
434.03	0.564
434.23	0.563
434.44	0.563
434.64	0.563
434.85	0.560
435.05	0.562
435.26	0.562
435.46	0.563
435.66	0.563
435.87	0.563
436.07	0.563
436.28	0.565
436.48	0.567
436.69	0.569
436.89	0.569
437.09	0.569
437.30	0.570
437.50	0.570
437.71	0.567
437.91	0.567
438.11	0.567
438.32	0.566
438.52	0.564
438.73	0.564
438.93	0.564
439.13	0.564
439.34	0.564
439.54	0.563
439.75	0.564
439.95	0.567
440.15	0.566
440.36	0.566
440.56	0.567
440.77	0.568
440.97	0.568
441.17	0.567
441.38	0.567
441.58	0.568
441.79	0.568
441.99	0.569
442.19	0.567
442.40	0.567
442.60	0.567
442.81	0.567
443.01	0.566
443.21	0.566
443.42	0.566
443.62	0.565
443.82	0.564
444.03	0.566
444.23	0.566
444.44	0.565
444.64	0.567
444.84	0.569
445.05	0.569
445.25	0.570
445.45	0.570
445.66	0.568
445.86	0.570
446.06	0.569
446.27	0.568
446.47	0.566
446.68	0.567
446.88	0.566
447.08	0.564
447.29	0.563
447.49	0.563
447.69	0.562
447.90	0.564
448.10	0.561
448.30	0.562
448.51	0.560
448.71	0.561
448.91	0.560
449.12	0.562
449.32	0.561
449.52	0.561
449.73	0.559
449.93	0.560
450.14	0.559
450.34	0.560
450.54	0.559
450.75	0.560
450.95	0.560
451.15	0.561
451.36	0.560
451.56	0.562
451.76	0.563
451.97	0.565
452.17	0.566
452.37	0.567
452.58	0.569
452.78	0.571
452.98	0.572
453.19	0.574
453.39	0.573
453.59	0.573
453.79	0.572
454.00	0.572
454.20	0.572
454.40	0.572
454.61	0.573
454.81	0.572
455.01	0.571
455.22	0.570
455.42	0.569
455.62	0.569
455.83	0.569
456.03	0.567
456.23	0.567
456.44	0.566
456.64	0.566
456.84	0.565
457.04	0.567
457.25	0.569
457.45	0.569
457.65	0.570
457.86	0.572
458.06	0.575
458.26	0.577
458.47	0.576
458.67	0.577
458.87	0.576
459.07	0.575
459.28	0.572
459.48	0.571
459.68	0.570
459.89	0.568
460.09	0.567
460.29	0.567
460.49	0.565
460.70	0.566
460.90	0.566
461.10	0.566
461.31	0.567
461.51	0.569
461.71	0.570
461.91	0.571
462.12	0.573
462.32	0.574
462.52	0.573
462.72	0.573
462.93	0.572
463.13	0.572
463.33	0.572
463.53	0.572
463.74	0.573
463.94	0.571
464.14	0.572
464.35	0.571
464.55	0.570
464.75	0.573
464.95	0.572
465.16	0.572
465.36	0.573
465.56	0.572
465.76	0.573
465.97	0.573
466.17	0.572
466.37	0.571
466.57	0.569
466.78	0.570
466.98	0.568
467.18	0.568
467.38	0.569
467.59	0.568
467.79	0.568
467.99	0.567
468.19	0.565
468.39	0.566
468.60	0.565
468.80	0.565
469.00	0.565
469.20	0.566
469.41	0.567
469.61	0.567
469.81	0.567
470.01	0.568
470.22	0.568
470.42	0.569
470.62	0.571
470.82	0.571
471.02	0.573
471.23	0.572
471.43	0.571
471.63	0.571
471.83	0.573
472.04	0.573
472.24	0.572
472.44	0.571
472.64	0.571
472.84	0.571
473.05	0.570
473.25	0.568
473.45	0.568
473.65	0.567
473.85	0.565
474.06	0.564
474.26	0.563
474.46	0.561
474.66	0.562
474.86	0.562
475.07	0.561
475.27	0.563
475.47	0.563
475.67	0.563
475.87	0.562
476.08	0.562
476.28	0.564
476.48	0.565
476.68	0.566
476.88	0.565
477.09	0.562
477.29	0.562
477.49	0.562
477.69	0.563
477.89	0.563
478.09	0.563
478.30	0.563
478.50	0.563
478.70	0.561
478.90	0.563
479.10	0.562
479.31	0.562
479.51	0.562
479.71	0.561
479.91	0.560
480.11	0.560
480.31	0.559
480.52	0.559
480.72	0.558
480.92	0.558
481.12	0.558
481.32	0.559
481.52	0.559
481.72	0.558
481.93	0.557
482.13	0.558
482.33	0.559
482.53	0.560
482.73	0.561
482.93	0.561
483.14	0.561
483.34	0.560
483.54	0.560
483.74	0.560
483.94	0.561
484.14	0.561
484.34	0.560
484.55	0.559
484.75	0.558
484.95	0.556
485.15	0.557
485.35	0.556
485.55	0.557
485.75	0.556
485.96	0.556
486.16	0.556
486.36	0.556
486.56	0.556
486.76	0.557
486.96	0.558
487.16	0.559
487.36	0.560
487.57	0.559
487.77	0.559
487.97	0.558
488.17	0.560
488.37	0.560
488.57	0.560
488.77	0.561
488.97	0.561
489.18	0.561
489.38	0.560
489.58	0.559
489.78	0.560
489.98	0.560
490.18	0.561
490.38	0.561
490.58	0.561
490.78	0.561
490.98	0.560
491.19	0.561
491.39	0.560
491.59	0.561
491.79	0.561
491.99	0.559
492.19	0.560
492.39	0.560
492.59	0.560
492.79	0.559
492.99	0.557
493.20	0.557
493.40	0.556
493.60	0.556
493.80	0.556
494.00	0.557
494.20	0.556
494.40	0.555
494.60	0.555
494.80	0.555
495.00	0.555
495.20	0.556
495.40	0.556
495.61	0.555
495.81	0.555
496.01	0.554
496.21	0.553
496.41	0.554
496.61	0.554
496.81	0.555
497.01	0.556
497.21	0.556
497.41	0.556
497.61	0.556
497.81	0.557
498.01	0.558
498.21	0.558
498.41	0.559
498.61	0.558
498.82	0.558
499.02	0.557
499.22	0.557
499.42	0.558
499.62	0.558
499.82	0.559
500.02	0.558
500.22	0.559
500.42	0.558
500.62	0.559
500.82	0.559
501.02	0.558
501.22	0.559
501.42	0.559
501.62	0.558
501.82	0.557
502.02	0.557
502.22	0.557
502.42	0.557
502.62	0.557
502.82	0.557
503.02	0.558
503.22	0.559
503.42	0.559
503.63	0.559
503.83	0.560
504.03	0.561
504.23	0.561
504.43	0.562
504.63	0.562
504.83	0.562
505.03	0.563
505.23	0.561
505.43	0.562
505.63	0.561
505.83	0.562
506.03	0.562
506.23	0.560
506.43	0.560
506.63	0.559
506.83	0.560
507.03	0.560
507.23	0.559
507.43	0.560
507.63	0.559
507.83	0.560
508.03	0.561
508.23	0.561
508.43	0.562
508.63	0.563
508.83	0.562
509.03	0.562
509.23	0.563
509.43	0.564
509.63	0.565
509.83	0.565
510.03	0.564
510.23	0.563
510.43	0.563
510.63	0.562
510.83	0.562
511.03	0.562
511.23	0.564
511.43	0.563
511.63	0.561
511.83	0.560
512.03	0.560
512.22	0.562
512.42	0.564
512.62	0.566
512.82	0.567
513.02	0.567
513.22	0.567
513.42	0.567
513.62	0.567
513.82	0.569
514.02	0.569
514.22	0.569
514.42	0.569
514.62	0.567
514.82	0.565
515.02	0.565
515.22	0.565
515.42	0.566
515.62	0.564
515.82	0.567
516.02	0.566
516.22	0.566
516.42	0.568
516.62	0.567
516.82	0.566
517.01	0.568
517.21	0.569
517.41	0.568
517.61	0.569
517.81	0.570
518.01	0.569
518.21	0.571
518.41	0.572
518.61	0.571
518.81	0.571
519.01	0.572
519.21	0.573
519.41	0.573
519.61	0.576
519.81	0.577
520.00	0.578
520.20	0.577
520.40	0.576
520.60	0.575
520.80	0.576
521.00	0.575
521.20	0.575
521.40	0.573
521.60	0.573
521.80	0.572
522.00	0.570
522.20	0.567
522.39	0.568
522.59	0.569
522.79	0.571
522.99	0.571
523.19	0.573
523.39	0.576
523.59	0.578
523.79	0.578
523.99	0.577
524.19	0.576
524.38	0.576
524.58	0.577
524.78	0.578
524.98	0.576
525.18	0.575
525.38	0.575
525.58	0.573
525.78	0.573
525.98	0.572
526.18	0.572
526.37	0.574
526.57	0.574
526.77	0.573
526.97	0.572
527.17	0.572
527.37	0.573
527.57	0.572
527.77	0.572
527.96	0.572
528.16	0.574
528.36	0.576
528.56	0.576
528.76	0.577
528.96	0.578
529.16	0.579
529.36	0.579
529.55	0.579
529.75	0.581
529.95	0.583
530.15	0.582
530.35	0.581
530.55	0.580
530.75	0.579
530.94	0.579
531.14	0.579
531.34	0.580
531.54	0.582
531.74	0.580
531.94	0.578
532.13	0.578
532.33	0.578
532.53	0.579
532.73	0.581
532.93	0.581
533.13	0.579
533.33	0.580
533.52	0.579
533.72	0.577
533.92	0.580
534.12	0.582
534.32	0.582
534.52	0.581
534.71	0.581
534.91	0.579
535.11	0.580
535.31	0.580
535.51	0.580
535.71	0.579
535.90	0.579
536.10	0.576
536.30	0.575
536.50	0.575
536.70	0.575
536.89	0.575
537.09	0.577
537.29	0.576
537.49	0.576
537.69	0.576
537.89	0.578
538.08	0.579
538.28	0.580
538.48	0.580
538.68	0.579
538.88	0.579
539.07	0.580
539.27	0.579
539.47	0.580
539.67	0.581
539.87	0.581
540.06	0.581
540.26	0.580
540.46	0.580
540.66	0.582
540.86	0.584
541.05	0.584
541.25	0.585
541.45	0.587
541.65	0.585
541.84	0.586
542.04	0.586
542.24	0.586
542.44	0.587
542.64	0.587
542.83	0.586
543.03	0.585
543.23	0.588
543.43	0.586
543.62	0.587
543.82	0.587
544.02	0.586
544.22	0.586
544.42	0.585
544.61	0.586
544.81	0.587
545.01	0.588
545.21	0.586
545.40	0.583
545.60	0.583
545.80	0.580
546.00	0.581
546.19	0.582
546.39	0.581
546.59	0.583
546.79	0.584
546.98	0.584
547.18	0.583
547.38	0.583
547.58	0.584
547.77	0.585
547.97	0.587
548.17	0.587
548.37	0.588
548.56	0.590
548.76	0.590
548.96	0.588
549.16	0.587
549.35	0.590
549.55	0.592
549.75	0.591
549.95	0.591
550.14	0.592
550.34	0.592
550.54	0.590
550.73	0.588
550.93	0.589
551.13	0.592
551.33	0.593
551.52	0.591
551.72	0.591
551.92	0.591
552.12	0.593
552.31	0.591
552.51	0.593
552.71	0.594
552.90	0.594
553.10	0.592
553.30	0.590
553.50	0.592
553.69	0.592
553.89	0.592
554.09	0.591
554.28	0.591
554.48	0.590
554.68	0.589
554.87	0.589
555.07	0.592
555.27	0.593
555.47	0.593
555.66	0.592
555.86	0.594
556.06	0.594
556.25	0.598
556.45	0.597
556.65	0.600
556.84	0.602
557.04	0.605
557.24	0.603
557.43	0.604
557.63	0.606
557.83	0.608
558.02	0.609
558.22	0.607
558.42	0.605
558.61	0.608
558.81	0.607
559.01	0.605
559.21	0.602
559.40	0.603
559.60	0.604
559.80	0.602
559.99	0.601
560.19	0.600
560.39	0.602
560.58	0.602
560.78	0.602
560.97	0.599
561.17	0.600
561.37	0.602
561.56	0.601
561.76	0.600
561.96	0.600
562.15	0.600
562.35	0.598
562.55	0.596
562.74	0.597
562.94	0.595
563.14	0.597
563.33	0.598
563.53	0.598
563.73	0.599
563.92	0.599
564.12	0.599
564.31	0.597
564.51	0.598
564.71	0.599
564.90	0.597
565.10	0.598
565.30	0.598
565.49	0.597
565.69	0.597
565.89	0.598
566.08	0.598
566.28	0.597
566.47	0.599
566.67	0.600
566.87	0.602
567.06	0.602
567.26	0.600
567.46	0.601
567.65	0.599
567.85	0.597
568.04	0.595
568.24	0.594
568.44	0.592
568.63	0.592
568.83	0.592
569.02	0.590
569.22	0.590
569.42	0.591
569.61	0.589
569.81	0.589
570.00	0.587
570.20	0.585
570.40	0.585
570.59	0.584
570.79	0.581
570.98	0.580
571.18	0.578
571.38	0.577
571.57	0.577
571.77	0.577
571.96	0.576
572.16	0.577
572.35	0.577
572.55	0.576
572.75	0.578
572.94	0.578
573.14	0.577
573.33	0.577
573.53	0.577
573.73	0.575
573.92	0.575
574.12	0.577
574.31	0.575
574.51	0.575
574.70	0.575
574.90	0.574
575.09	0.573
575.29	0.573
575.49	0.572
575.68	0.573
575.88	0.573
576.07	0.571
576.27	0.570
576.46	0.570
576.66	0.570
576.86	0.570
577.05	0.571
577.25	0.572
577.44	0.572
577.64	0.573
577.83	0.573
578.03	0.573
578.22	0.573
578.42	0.574
578.61	0.574
578.81	0.574
579.00	0.574
579.20	0.573
579.40	0.571
579.59	0.572
579.79	0.572
579.98	0.572
580.18	0.571
580.37	0.571
580.57	0.570
580.76	0.571
580.96	0.571
581.15	0.571
581.35	0.570
581.54	0.571
581.74	0.570
581.93	0.570
582.13	0.570
582.32	0.571
582.52	0.570
582.71	0.570
582.91	0.571
583.10	0.571
583.30	0.571
583.49	0.571
583.69	0.571
583.88	0.571
584.08	0.570
584.27	0.570
584.47	0.570
584.66	0.571
584.86	0.571
585.05	0.569
585.25	0.569
585.44	0.570
585.64	0.571
585.83	0.572
586.03	0.572
586.22	0.573
586.42	0.574
586.61	0.574
586.81	0.574
587.00	0.574
587.20	0.574
587.39	0.574
587.59	0.574
587.78	0.574
587.98	0.572
588.17	0.572
588.37	0.573
588.56	0.572
588.76	0.572
588.95	0.572
589.15	0.574
589.34	0.575
589.54	0.575
589.73	0.576
589.92	0.577
590.12	0.578
590.31	0.580
590.51	0.580
590.70	0.582
590.90	0.582
591.09	0.583
591.29	0.581
591.48	0.581
591.68	0.580
591.87	0.580
592.06	0.580
592.26	0.579
592.45	0.578
592.65	0.577
592.84	0.576
593.04	0.577
593.23	0.576
593.43	0.577
593.62	0.576
593.81	0.576
594.01	0.577
594.20	0.577
594.40	0.577
594.59	0.578
594.79	0.579
594.98	0.580
595.17	0.580
595.37	0.583
595.56	0.582
595.76	0.585
595.95	0.586
596.14	0.586
596.34	0.585
596.53	0.585
596.73	0.584
596.92	0.583
597.12	0.581
597.31	0.579
597.50	0.577
597.70	0.575
597.89	0.573
598.09	0.573
598.28	0.571
598.47	0.570
598.67	0.570
598.86	0.571
599.06	0.571
599.25	0.570
599.44	0.570
599.64	0.570
599.83	0.572
600.03	0.571
600.22	0.570
600.41	0.570
600.61	0.570
600.80	0.571
601.00	0.569
601.19	0.571
601.38	0.572
601.58	0.573
601.77	0.575
601.96	0.573
602.16	0.575
602.35	0.575
602.55	0.578
602.74	0.579
602.93	0.579
603.13	0.579
603.32	0.578
603.51	0.581
603.71	0.579
603.90	0.577
604.09	0.577
604.29	0.577
604.48	0.577
604.68	0.575
604.87	0.575
605.06	0.575
605.26	0.575
605.45	0.574
605.64	0.573
605.84	0.573
606.03	0.573
606.22	0.573
606.42	0.574
606.61	0.576
606.80	0.576
607.00	0.578
607.19	0.576
607.38	0.579
607.58	0.581
607.77	0.582
607.96	0.583
608.16	0.585
608.35	0.584
608.54	0.586
608.74	0.585
608.93	0.585
609.12	0.583
609.32	0.586
609.51	0.584
609.70	0.583
609.90	0.584
610.09	0.585
610.28	0.583
610.48	0.587
610.67	0.588
610.86	0.590
611.06	0.591
611.25	0.591
611.44	0.589
611.64	0.592
611.83	0.591
612.02	0.593
612.21	0.592
612.41	0.593
612.60	0.593
612.79	0.591
612.99	0.590
613.18	0.590
613.37	0.591
613.57	0.594
613.76	0.590
613.95	0.592
614.14	0.590
614.34	0.591
614.53	0.589
614.72	0.588
614.92	0.589
615.11	0.590
615.30	0.591
615.49	0.593
615.69	0.591
615.88	0.595
616.07	0.595
616.26	0.598
616.46	0.599
616.65	0.602
616.84	0.606
617.04	0.607
617.23	0.605
617.42	0.606
617.61	0.604
617.81	0.605
618.00	0.607
618.19	0.608
618.38	0.606
618.58	0.610
618.77	0.610
618.96	0.610
619.15	0.613
619.35	0.618
619.54	0.618
619.73	0.620
619.92	0.621
620.12	0.619
620.31	0.619
620.50	0.619
620.69	0.618
620.89	0.618
621.08	0.618
621.27	0.613
621.46	0.613
621.66	0.612
621.85	0.612
622.04	0.615
622.23	0.618
622.43	0.618
622.62	0.619
622.81	0.617
623.00	0.616
623.19	0.613
623.39	0.615
623.58	0.615
623.77	0.618
623.96	0.617
624.16	0.617
624.35	0.617
624.54	0.616
624.73	0.615
624.92	0.617
625.12	0.617
625.31	0.616
625.50	0.616
625.69	0.616
625.88	0.617
626.08	0.619
626.27	0.620
626.46	0.619
626.65	0.619
626.84	0.618
627.04	0.616
627.23	0.620
627.42	0.623
627.61	0.624
627.80	0.622
628.00	0.622
628.19	0.620
628.38	0.616
628.57	0.617
628.76	0.620
628.96	0.622
629.15	0.623
629.34	0.625
629.53	0.625
629.72	0.629
629.91	0.631
630.11	0.629
630.30	0.630
630.49	0.630
630.68	0.630
630.87	0.632
631.06	0.631
631.26	0.635
631.45	0.634
631.64	0.634
631.83	0.632
632.02	0.636
632.21	0.638
632.41	0.639
632.60	0.643
632.79	0.643
632.98	0.643
633.17	0.647
633.36	0.644
633.55	0.645
633.75	0.649
633.94	0.649
634.13	0.648
634.32	0.650
634.51	0.650
634.70	0.650
634.89	0.650
635.09	0.649
635.28	0.646
635.47	0.647
635.66	0.643
635.85	0.645
636.04	0.646
636.23	0.646
636.43	0.643
636.62	0.646
636.81	0.644
637.00	0.642
637.19	0.640
637.38	0.646
637.57	0.648
637.76	0.653
637.95	0.649
638.15	0.648
638.34	0.650
638.53	0.651
638.72	0.647
638.91	0.651
639.10	0.653
639.29	0.654
639.48	0.650
639.67	0.646
639.87	0.646
640.06	0.651
640.25	0.652
640.44	0.647
640.63	0.648
640.82	0.651
641.01	0.652
641.20	0.655
641.39	0.657
641.58	0.662
641.78	0.663
641.97	0.663
642.16	0.656
642.35	0.656
642.54	0.657
642.73	0.659
642.92	0.658
643.11	0.659
643.30	0.657
643.49	0.655
643.68	0.651
643.87	0.651
644.06	0.648
644.25	0.655
644.45	0.658
644.64	0.664
644.83	0.660
645.02	0.663
645.21	0.661
645.40	0.658
645.59	0.660
645.78	0.661
645.97	0.661
646.16	0.659
646.35	0.655
646.54	0.648
646.73	0.643
646.92	0.646
647.11	0.643
647.30	0.643
647.49	0.640
647.68	0.640
647.88	0.638
648.07	0.642
648.26	0.639
648.45	0.637
648.64	0.641
648.83	0.639
649.02	0.634
649.21	0.629
649.40	0.627
649.59	0.628
649.78	0.629
649.97	0.626
650.16	0.622
650.35	0.623
650.54	0.625
650.73	0.620
650.92	0.622
651.11	0.626
651.30	0.626
651.49	0.625
651.68	0.624
651.87	0.622
652.06	0.624
652.25	0.628
652.44	0.631
652.63	0.628
652.82	0.624
653.01	0.619
653.20	0.610
653.39	0.610
653.58	0.602
653.77	0.597
653.96	0.592
654.15	0.587
654.34	0.580
654.53	0.576
654.72	0.571
654.91	0.571
655.10	0.570
655.29	0.570
655.48	0.567
655.67	0.567
655.86	0.566
656.05	0.566
656.24	0.565
656.43	0.565
656.62	0.564
656.81	0.563
657.00	0.562
657.19	0.564
657.38	0.564
657.57	0.567
657.76	0.568
657.95	0.571
658.14	0.574
658.33	0.580
658.51	0.584
658.70	0.588
658.89	0.594
659.08	0.601
659.27	0.601
659.46	0.607
659.65	0.610
659.84	0.618
660.03	0.620
660.22	0.621
660.41	0.621
660.60	0.627
660.79	0.629
660.98	0.629
661.17	0.627
661.36	0.631
661.55	0.633
661.74	0.630
661.92	0.625
662.11	0.625
662.30	0.625
662.49	0.627
662.68	0.625
662.87	0.621
663.06	0.623
663.25	0.621
663.44	0.619
663.63	0.617
663.82	0.619
664.01	0.619
664.20	0.619
664.38	0.621
664.57	0.617
664.76	0.615
664.95	0.614
665.14	0.613
665.33	0.617
665.52	0.616
665.71	0.612
665.90	0.615
666.09	0.615
666.28	0.614
666.46	0.606
666.65	0.607
666.84	0.608
667.03	0.613
667.22	0.612
667.41	0.611
667.60	0.613
667.79	0.614
667.98	0.608
668.16	0.606
668.35	0.604
668.54	0.610
668.73	0.608
668.92	0.608
669.11	0.605
669.30	0.608
669.49	0.608
669.67	0.609
669.86	0.606
670.05	0.606
670.24	0.606
670.43	0.608
670.62	0.605
670.81	0.606
671.00	0.602
671.18	0.599
671.37	0.597
671.56	0.595
671.75	0.591
671.94	0.595
672.13	0.596
672.32	0.598
672.50	0.596
672.69	0.596
672.88	0.594
673.07	0.596
673.26	0.596
673.45	0.595
673.63	0.595
673.82	0.598
674.01	0.594
674.20	0.594
674.39	0.594
674.58	0.595
674.76	0.598
674.95	0.602
675.14	0.602
675.33	0.603
675.52	0.602
675.71	0.603
675.89	0.602
676.08	0.604
676.27	0.604
676.46	0.606
676.65	0.605
676.84	0.601
677.02	0.597
677.21	0.594
677.40	0.593
677.59	0.596
677.78	0.593
677.96	0.590
678.15	0.589
678.34	0.589
678.53	0.585
678.72	0.581
678.90	0.583
679.09	0.586
679.28	0.587
679.47	0.588
679.66	0.585
679.84	0.588
680.03	0.589
680.22	0.589
680.41	0.586
680.60	0.588
680.78	0.590
680.97	0.591
681.16	0.588
681.35	0.586
681.53	0.585
681.72	0.586
681.91	0.581
682.10	0.581
682.29	0.578
682.47	0.579
682.66	0.578
682.85	0.577
683.04	0.576
683.22	0.574
683.41	0.572
683.60	0.573
683.79	0.570
683.97	0.570
684.16	0.569
684.35	0.570
684.54	0.569
684.72	0.568
684.91	0.567
685.10	0.565
685.29	0.564
685.47	0.566
685.66	0.565
685.85	0.565
686.04	0.566
686.22	0.564
686.41	0.561
686.60	0.560
686.79	0.559
686.97	0.559
687.16	0.558
687.35	0.559
687.54	0.557
687.72	0.555
687.91	0.556
688.10	0.554
688.29	0.554
688.47	0.556
688.66	0.557
688.85	0.558
689.03	0.559
689.22	0.558
689.41	0.557
689.60	0.559
689.78	0.561
689.97	0.560
690.16	0.561
690.34	0.563
690.53	0.563
690.72	0.560
690.91	0.560
691.09	0.560
691.28	0.563
691.47	0.566
691.65	0.566
691.84	0.565
692.03	0.566
692.21	0.566
692.40	0.564
692.59	0.565
692.77	0.567
692.96	0.567
693.15	0.565
693.34	0.565
693.52	0.563
693.71	0.562
693.90	0.560
694.08	0.557
694.27	0.558
694.46	0.557
694.64	0.555
694.83	0.553
695.02	0.553
695.20	0.555
695.39	0.555
695.58	0.554
695.76	0.553
695.95	0.552
696.14	0.552
696.32	0.550
696.51	0.552
696.70	0.550
696.88	0.549
697.07	0.547
697.26	0.545
697.44	0.544
697.63	0.544
697.81	0.544
698.00	0.546
698.19	0.546
698.37	0.545
698.56	0.545
698.75	0.546
698.93	0.546
699.12	0.548
699.31	0.548
699.49	0.547
699.68	0.548
699.87	0.547
700.05	0.545
700.24	0.546
700.42	0.546
700.61	0.547
700.80	0.548
700.98	0.548
701.17	0.547
701.36	0.548
701.54	0.547
701.73	0.545
701.91	0.546
702.10	0.546
702.29	0.548
702.47	0.550
702.66	0.551
702.84	0.550
703.03	0.550
703.22	0.549
703.40	0.551
703.59	0.551
703.77	0.550
703.96	0.551
704.15	0.552
704.33	0.550
704.52	0.548
704.70	0.545
704.89	0.545
705.08	0.547
705.26	0.547
705.45	0.544
705.63	0.543
705.82	0.545
706.00	0.543
706.19	0.542
706.38	0.542
706.56	0.541
706.75	0.542
706.93	0.542
707.12	0.540
707.30	0.537
707.49	0.538
707.68	0.539
707.86	0.537
708.05	0.536
708.23	0.536
708.42	0.536
708.60	0.535
708.79	0.533
708.98	0.533
709.16	0.533
709.35	0.533
709.53	0.532
709.72	0.533
709.90	0.532
710.09	0.533
710.27	0.531
710.46	0.529
710.64	0.529
710.83	0.529
711.02	0.528
711.20	0.530
711.39	0.531
711.57	0.532
711.76	0.531
711.94	0.533
712.13	0.533
712.31	0.534
712.50	0.536
712.68	0.539
712.87	0.538
713.05	0.538
713.24	0.536
713.42	0.535
713.61	0.534
713.79	0.535
713.98	0.533
714.16	0.531
714.35	0.531
714.54	0.532
714.72	0.530
714.91	0.532
715.09	0.528
715.28	0.527
715.46	0.527
715.65	0.528
715.83	0.528
716.02	0.530
716.20	0.532
716.39	0.534
716.57	0.532
716.76	0.532
716.94	0.532
717.12	0.534
717.31	0.534
717.49	0.535
717.68	0.533
717.86	0.532
718.05	0.529
718.23	0.526
718.42	0.522
718.60	0.519
718.79	0.516
718.97	0.514
719.16	0.514
719.34	0.514
719.53	0.514
719.71	0.516
719.90	0.515
720.08	0.516
720.27	0.515
720.45	0.516
720.63	0.517
720.82	0.517
721.00	0.517
721.19	0.517
721.37	0.517
721.56	0.514
721.74	0.512
721.93	0.512
722.11	0.510
722.30	0.512
722.48	0.510
722.66	0.510
722.85	0.511
723.03	0.510
723.22	0.511
723.40	0.514
723.59	0.515
723.77	0.511
723.95	0.512
724.14	0.510
724.32	0.507
724.51	0.507
724.69	0.509
724.88	0.511
725.06	0.511
725.24	0.510
725.43	0.510
725.61	0.514
725.80	0.519
725.98	0.522
726.16	0.523
726.35	0.523
726.53	0.523
726.72	0.520
726.90	0.515
727.09	0.515
727.27	0.510
727.45	0.508
727.64	0.498
727.82	0.493
728.01	0.487
728.19	0.489
728.37	0.485
728.56	0.482
728.74	0.478
728.92	0.482
729.11	0.481
729.29	0.483
729.48	0.480
729.66	0.485
729.84	0.482
730.03	0.482
730.21	0.478
730.40	0.480
730.58	0.483
730.76	0.485
730.95	0.480
731.13	0.478
731.31	0.472
731.50	0.467
731.68	0.463
731.86	0.464
732.05	0.457
732.23	0.455
732.42	0.455
732.60	0.448
732.78	0.442
732.97	0.436
733.15	0.431
733.33	0.430
733.52	0.428
733.70	0.426
733.88	0.420
734.07	0.420
734.25	0.414
734.43	0.414
734.62	0.413
734.80	0.415
734.98	0.418
735.17	0.416
735.35	0.416
735.53	0.419
735.72	0.413
735.90	0.412
736.08	0.410
736.27	0.411
736.45	0.408
736.63	0.411
736.82	0.407
737.00	0.405
737.18	0.406
737.37	0.401
737.55	0.396
737.73	0.397
737.92	0.397
738.10	0.404
738.28	0.402
738.46	0.400
738.65	0.392
738.83	0.394
739.01	0.392
739.20	0.389
739.38	0.391
739.56	0.397
739.75	0.401
739.93	0.409
740.11	0.401
740.29	0.401
740.48	0.404
740.66	0.411
740.84	0.413
741.03	0.420
741.21	0.421
741.39	0.431
741.57	0.430
741.76	0.429
741.94	0.428
742.12	0.439
742.31	0.443
742.49	0.449
742.67	0.445
742.85	0.440
743.04	0.446
743.22	0.449
743.40	0.440
743.58	0.446
743.77	0.448
743.95	0.455
744.13	0.446
744.31	0.448
744.50	0.438
744.68	0.440
744.86	0.442
745.04	0.433
745.23	0.431
745.41	0.435
745.59	0.431
745.77	0.441
745.96	0.443
746.14	0.445
746.32	0.454
746.50	0.456
746.69	0.465
746.87	0.472
747.05	0.475
747.23	0.495
747.42	0.503
747.60	0.499
747.78	0.489
747.96	0.469
748.14	0.474
748.33	0.466
748.51	0.470
748.69	0.476
748.87	0.470
749.06	0.474
749.24	0.460
749.42	0.448
749.60	0.450
749.78	0.450
749.97	0.461
750.15	0.468
750.33	0.463
750.51	0.462
750.69	0.448
750.88	0.443
751.06	0.442
751.24	0.440
751.42	0.447
751.60	0.445
751.79	0.435
751.97	0.438
752.15	0.433
752.33	0.438
752.51	0.429
752.69	0.438
752.88	0.437
753.06	0.429
753.24	0.435
753.42	0.429
753.60	0.419
753.78	0.432
753.97	0.419
754.15	0.423
754.33	0.415
754.51	0.424
754.69	0.419
754.87	0.416
755.06	0.422
755.24	0.412
755.42	0.417
755.60	0.426
755.78	0.415
755.96	0.414
756.15	0.409
756.33	0.407
756.51	0.397
756.69	0.398
756.87	0.401
757.05	0.396
757.23	0.399
757.42	0.397
757.60	0.397
757.78	0.400
757.96	0.401
758.14	0.398
758.32	0.399
758.50	0.400
758.69	0.394
758.87	0.397
759.05	0.396
759.23	0.392
759.41	0.390
759.59	0.391
759.77	0.387
759.95	0.389
760.13	0.383
760.32	0.381
760.50	0.380
760.68	0.378
760.86	0.375
761.04	0.375
761.22	0.381
761.40	0.374
761.58	0.366
761.76	0.367
761.95	0.362
762.13	0.369
762.31	0.368
762.49	0.373
762.67	0.368
762.85	0.370
763.03	0.375
763.21	0.375
763.39	0.376
763.57	0.380
763.75	0.382
763.94	0.385
764.12	0.380
764.30	0.382
764.48	0.379
764.66	0.388
764.84	0.385
765.02	0.377
765.20	0.371
765.38	0.375
765.56	0.376
765.74	0.372
765.92	0.373
766.10	0.374
766.28	0.374
766.46	0.373
766.65	0.372
766.83	0.372
767.01	0.375
767.19	0.377
767.37	0.379
767.55	0.379
767.73	0.381
767.91	0.383
768.09	0.388
768.27	0.388
768.45	0.391
768.63	0.388
768.81	0.385
768.99	0.391
769.17	0.388
769.35	0.384
769.53	0.385
769.71	0.387
769.89	0.383
770.07	0.385
770.25	0.391
770.43	0.398
770.61	0.396
770.79	0.396
770.97	0.392
771.15	0.396
771.33	0.397
771.51	0.402
771.69	0.400
771.87	0.398
772.05	0.396
772.24	0.394
772.42	0.386
772.60	0.388
772.78	0.388
772.96	0.386
773.14	0.393
773.32	0.401
773.49	0.398
773.67	0.399
773.85	0.403
774.03	0.405
774.21	0.404
774.39	0.414
774.57	0.415
774.75	0.421
774.93	0.422
775.11	0.416
775.29	0.412
775.47	0.409
775.65	0.412
775.83	0.419
776.01	0.417
776.19	0.425
776.37	0.421
776.55	0.425
776.73	0.425
776.91	0.426
777.09	0.432
777.27	0.442
777.45	0.450
777.63	0.457
777.81	0.454
777.99	0.458
778.17	0.457
778.35	0.459
778.53	0.465
778.71	0.465
778.89	0.466
779.07	0.466
779.24	0.462
779.42	0.453
779.60	0.445
779.78	0.437
779.96	0.436
780.14	0.436
780.32	0.427
780.50	0.423
780.68	0.420
780.86	0.421
781.04	0.416
781.22	0.410
781.40	0.408
781.58	0.411
781.75	0.413
781.93	0.419
782.11	0.416
782.29	0.419
782.47	0.421
782.65	0.430
782.83	0.430
783.01	0.434
783.19	0.434
783.37	0.439
783.55	0.436
783.72	0.439
783.90	0.430
784.08	0.430
784.26	0.439
784.44	0.434
784.62	0.433
784.80	0.436
784.98	0.434
785.16	0.439
785.33	0.437
785.51	0.446
785.69	0.450
785.87	0.459
786.05	0.458
786.23	0.449
786.41	0.457
786.59	0.455
786.77	0.453
786.94	0.454
787.12	0.451
787.30	0.450
787.48	0.446
787.66	0.448
787.84	0.441
788.02	0.449
788.19	0.450
788.37	0.447
788.55	0.444
788.73	0.445
788.91	0.447
789.09	0.450
789.27	0.459
789.44	0.464
789.62	0.461
789.80	0.461
789.98	0.457
790.16	0.463
790.34	0.465
790.51	0.472
790.69	0.470
790.87	0.475
791.05	0.483
791.23	0.478
791.41	0.473
791.58	0.472
791.76	0.479
791.94	0.479
792.12	0.477
792.30	0.472
792.48	0.472
792.65	0.470
792.83	0.464
793.01	0.459
793.19	0.462
793.37	0.464
793.54	0.466
793.72	0.461
793.90	0.463
794.08	0.465
794.26	0.470
794.43	0.470
794.61	0.481
794.79	0.481
794.97	0.486
795.15	0.484
795.32	0.482
795.50	0.487
795.68	0.492
795.86	0.493
796.04	0.496
796.21	0.498
796.39	0.499
796.57	0.493
796.75	0.498
796.92	0.492
797.10	0.495
797.28	0.505
797.46	0.502
797.64	0.501
797.81	0.504
797.99	0.500
798.17	0.501
798.35	0.500
798.52	0.500
798.70	0.500
798.88	0.501
799.06	0.498
799.23	0.492
799.41	0.492
799.59	0.494
799.77	0.496
799.94	0.497
800.12	0.497
800.30	0.493
800.48	0.493
800.65	0.500
800.83	0.507
801.01	0.513
801.19	0.514
801.36	0.517
801.54	0.523
801.72	0.521
801.90	0.523
802.07	0.522
802.25	0.531
802.43	0.544
802.60	0.540
802.78	0.535
802.96	0.542
803.14	0.549
803.31	0.547
803.49	0.545
803.67	0.548
803.84	0.543
804.02	0.548
804.20	0.547
804.38	0.539
804.55	0.538
804.73	0.544
804.91	0.540
805.08	0.533
805.26	0.533
805.44	0.520
805.61	0.519
805.79	0.528
805.97	0.525
806.15	0.526
806.32	0.529
806.50	0.534
806.68	0.532
806.85	0.523
807.03	0.529
807.21	0.525
807.38	0.535
807.56	0.541
807.74	0.534
807.91	0.542
808.09	0.541
808.27	0.535
808.44	0.527
808.62	0.528
808.80	0.537
808.97	0.537
809.15	0.540
809.33	0.537
809.50	0.532
809.68	0.538
809.86	0.533
810.03	0.528
810.21	0.535
810.39	0.536
810.56	0.533
810.74	0.525
810.91	0.517
811.09	0.523
811.27	0.523
811.44	0.527
811.62	0.528
811.80	0.531
811.97	0.538
812.15	0.541
812.33	0.542
812.50	0.554
812.68	0.559
812.85	0.570
813.03	0.568
813.21	0.576
813.38	0.579
813.56	0.577
813.74	0.570
813.91	0.562
814.09	0.553
814.26	0.561
814.44	0.551
814.62	0.549
814.79	0.545
814.97	0.545
815.14	0.544
815.32	0.536
815.50	0.534
815.67	0.541
815.85	0.548
816.02	0.549
816.20	0.543
816.38	0.551
816.55	0.550
816.73	0.551
816.90	0.546
817.08	0.543
817.26	0.545
817.43	0.556
817.61	0.545
817.78	0.541
817.96	0.552
818.13	0.553
818.31	0.551
818.49	0.551
818.66	0.560
818.84	0.566
819.01	0.570
819.19	0.573
819.36	0.570
819.54	0.581
819.71	0.578
819.89	0.571
820.07	0.571
820.24	0.561
820.42	0.568
820.59	0.561
820.77	0.555
820.94	0.556
821.12	0.549
821.29	0.543
821.47	0.550
821.64	0.560
821.82	0.559
822.00	0.558
822.17	0.575
822.35	0.573
822.52	0.574
822.70	0.584
822.87	0.585
823.05	0.591
823.22	0.597
823.40	0.597
823.57	0.592
823.75	0.608
823.92	0.613
824.10	0.603
824.27	0.596
824.45	0.609
824.62	0.599
824.80	0.597
824.97	0.603
825.15	0.594
825.32	0.587
825.50	0.586
825.67	0.568
825.85	0.566
826.02	0.569
826.20	0.570
826.37	0.549
826.55	0.568
826.72	0.565
826.90	0.560
827.07	0.558
827.25	0.562
827.42	0.558
827.60	0.568
827.77	0.568
827.95	0.584
828.12	0.592
828.30	0.617
828.47	0.597
828.65	0.612
828.82	0.640
829.00	0.662
829.17	0.680
829.34	0.697
829.52	0.707
829.69	0.703
829.87	0.708
830.04	0.709
830.22	0.692
830.39	0.702
830.57	0.718
830.74	0.694
830.92	0.687
831.09	0.650
831.26	0.677
831.44	0.683
831.61	0.716
831.79	0.696
831.96	0.706
832.14	0.784
832.31	0.776
832.49	0.771
832.66	0.797
832.83	0.905
833.01	1.027
833.18	1.120
833.36	1.075
833.53	1.048
833.70	1.010
833.88	1.085
834.05	0.922
834.23	1.055
834.40	1.054
834.58	0.976
834.75	0.871
834.92	0.812
835.10	0.769
835.27	0.827
835.45	0.836
835.62	0.909
835.79	0.879
835.97	0.948
836.14	0.945
836.32	1.002
836.49	1.278
836.66	1.240
836.84	1.220
837.01	1.140
837.18	1.110
837.36	1.367
837.53	1.316
837.71	1.614
837.88	1.775
838.05	1.330
838.23	1.344
838.40	1.291
838.58	1.414
838.75	1.525
838.92	-0.000
839.10	-0.000
839.27	2.053
839.44	-0.000
839.62	1.784
839.79	1.398
839.96	1.608
840.14	1.397
840.31	1.348
840.48	1.735
840.66	-0.000
840.83	1.527
841.01	1.596
841.18	-0.000
841.35	1.869
841.53	-0.000
841.70	-0.000
841.87	-0.000
842.05	-0.000
842.22	-0.000
842.39	-0.000
842.57	-0.000
842.74	-0.000
842.91	-0.000
843.09	-0.000
843.26	3.055
843.43	-0.000
843.60	-0.000
843.78	-0.000
843.95	-0.000
844.12	-0.000
844.30	-0.000
844.47	-0.000
844.64	-0.000
844.82	-0.000
844.99	-0.000
845.16	-0.000
845.34	-0.000
845.51	-0.000
845.68	-0.000
845.85	-0.000
846.03	-0.000
846.20	-0.000
846.37	-0.000
846.55	-0.000
846.72	-0.000
846.89	-0.000
847.06	-0.000
847.24	-0.000
847.41	-0.000
847.58	-0.000
847.76	-0.000
847.93	-0.000
848.10	-0.000
848.27	-0.000
848.45	-0.000
848.62	-0.000
848.79	-0.000
848.97	-0.000
849.14	-0.000
849.31	-0.000
849.48	-0.000
849.66	-0.000
849.83	-0.000
850.00	-0.000
850.17	-0.000
850.35	-0.000
850.52	-0.000
850.69	-0.000
850.86	-0.000
851.04	-0.000
851.21	-0.000
851.38	-0.000
851.55	-0.000
851.72	-0.000
851.90	-0.000
852.07	-0.000
852.24	-0.000
852.41	-0.000
852.59	-0.000
852.76	-0.000
852.93	-0.000
853.10	-0.000
853.28	-0.000
853.45	-0.000
853.62	-0.000
853.79	-0.000
853.96	-0.000
854.14	-0.000
854.31	-0.000
854.48	-0.000
854.65	-0.000
854.82	-0.000
855.00	-0.000
855.17	-0.000
855.34	-0.000
855.51	-0.000
855.68	-0.000
855.86	-0.000
856.03	-0.000
856.20	-0.000
856.37	-0.000
856.54	-0.000
856.72	-0.000
856.89	-0.000
857.06	-0.000
857.23	-0.000
857.40	-0.000
857.57	-0.000
857.75	-0.000
857.92	-0.000
858.09	-0.000
858.26	-0.000
858.43	-0.000
858.60	-0.000
858.78	-0.000
858.95	-0.000
859.12	-0.000
859.29	-0.000
859.46	-0.000
859.63	-0.000
859.81	-0.000
859.98	-0.000
860.15	-0.000
860.32	-0.000
860.49	-0.000
860.66	-0.000
860.83	-0.000
861.01	-0.000
861.18	-0.000
861.35	-0.000
861.52	-0.000
861.69	-0.000
861.86	-0.000
862.03	-0.000
862.21	-0.000
862.38	-0.000
862.55	-0.000
862.72	-0.000
862.89	-0.000
863.06	-0.000
863.23	-0.000
863.40	-0.000
863.58	-0.000
863.75	-0.000
863.92	-0.000
864.09	-0.000
864.26	-0.000
864.43	-0.000
864.60	-0.000
864.77	-0.000
864.94	-0.000
865.11	-0.000
865.29	-0.000
865.46	-0.000
865.63	-0.000
865.80	-0.000
865.97	-0.000
866.14	-0.000
866.31	-0.000
866.48	-0.000
866.65	-0.000
866.82	-0.000
866.99	-0.000
867.16	-0.000
867.34	-0.000
867.51	-0.000
867.68	-0.000
867.85	-0.000
868.02	-0.000
868.19	-0.000
868.36	-0.000
868.53	-0.000
868.70	-0.000
868.87	-0.000
869.04	-0.000
869.21	-0.000
869.38	-0.000
869.55	-0.000
869.72	-0.000
869.89	-0.000
870.06	-0.000
870.24	-0.000
870.41	-0.000
870.58	-0.000
870.75	-0.000
870.92	-0.000
871.09	-0.000
871.26	-0.000
871.43	-0.000
871.60	-0.000
871.77	-0.000
871.94	-0.000
872.11	-0.000
872.28	-0.000
872.45	-0.000
872.62	-0.000
872.79	-0.000
872.96	-0.000
873.13	-0.000
873.30	-0.000
873.47	-0.000
873.64	-0.000
873.81	-0.000
873.98	-0.000
874.15	-0.000
874.32	-0.000
874.49	-0.000
874.66	-0.000
874.83	-0.000
875.00	-0.000
875.17	-0.000
875.34	-0.000
875.51	-0.000
875.68	-0.000
875.85	-0.000
876.02	-0.000
876.19	-0.000
876.36	-0.000
876.53	-0.000
876.70	-0.000
876.87	-0.000
877.04	-0.000
877.21	-0.000
877.38	-0.000
877.55	-0.000
877.72	-0.000
877.89	-0.000
878.06	-0.000
878.23	-0.000
878.39	-0.000
878.56	-0.000
878.73	-0.000
878.90	-0.000
879.07	-0.000
879.24	-0.000
879.41	-0.000
879.58	-0.000
879.75	-0.000
879.92	-0.000
880.09	-0.000
880.26	-0.000
880.43	-0.000
880.60	-0.000
880.77	-0.000
880.94	-0.000
881.11	-0.000
881.27	-0.000
881.44	-0.000
881.61	-0.000
881.78	-0.000
881.95	-0.000
882.12	-0.000
882.29	-0.000
882.46	-0.000
882.63	-0.000
882.80	-0.000
882.97	-0.000
883.14	-0.000
883.30	-0.000
883.47	-0.000
883.64	-0.000
883.81	-0.000
883.98	-0.000
884.15	-0.000
884.32	-0.000
884.49	-0.000
884.66	-0.000
884.82	-0.000
884.99	-0.000
885.16	-0.000
885.33	-0.000
885.50	-0.000
885.67	-0.000
885.84	-0.000
886.01	-0.000
886.17	-0.000
886.34	-0.000
886.51	-0.000
886.68	-0.000
886.85	-0.000
887.02	-0.000
887.19	-0.000
887.36	-0.000
887.52	-0.000
887.69	-0.000
887.86	-0.000
888.03	-0.000
888.20	-0.000
888.37	-0.000
888.54	-0.000
888.70	-0.000
888.87	-0.000
889.04	-0.000
889.21	-0.000
889.38	-0.000
889.55	-0.000
889.71	-0.000
889.88	-0.000
890.05	-0.000
890.22	-0.000
890.39	-0.000
>>>>>End Processed Spectral Data<<<<<
