SpectraSuite Data File
++++++++++++++++++++++++++++++++++++
Date: Fri Jun 19 12:43:16 CEST 2015
User: introlabs
Dark Spectrum Present: Yes
Reference Spectrum Present: Yes
Number of Sampled Component Spectra: 1
Spectrometers: USB4H08886
Integration Time (usec): 745692 (USB4H08886)
Spectra Averaged: 5 (USB4H08886)
Boxcar Smoothing: 5 (USB4H08886)
Correct for Electrical Dark: Yes (USB4H08886)
Strobe/Lamp Enabled: No (USB4H08886)
Correct for Detector Non-linearity: Yes (USB4H08886)
Correct for Stray Light: Yes (USB4H08886)
Number of Pixels in Processed Spectrum: 3648
>>>>>Begin Processed Spectral Data<<<<<
178.14	-0.000
178.36	-0.000
178.57	-0.000
178.79	-0.000
179.01	-0.000
179.22	-0.000
179.44	-0.000
179.65	-0.000
179.87	-0.000
180.08	-0.000
180.30	-0.000
180.52	-0.000
180.73	-0.000
180.95	-0.000
181.16	-0.000
181.38	-0.000
181.59	-0.000
181.81	-0.000
182.03	-0.000
182.24	-0.000
182.46	-0.000
182.67	-0.000
182.89	-0.000
183.10	-0.000
183.32	-0.000
183.54	-0.000
183.75	-0.000
183.97	-0.000
184.18	-0.000
184.40	-0.000
184.61	-0.000
184.83	-0.000
185.04	-0.000
185.26	-0.000
185.48	-0.000
185.69	-0.000
185.91	-0.000
186.12	-0.000
186.34	-0.000
186.55	-0.000
186.77	-0.000
186.98	-0.000
187.20	-0.000
187.42	-0.000
187.63	-0.000
187.85	-0.000
188.06	-0.000
188.28	-0.000
188.49	-0.000
188.71	-0.000
188.92	-0.000
189.14	-0.000
189.36	-0.000
189.57	-0.000
189.79	-0.000
190.00	-0.000
190.22	-0.000
190.43	-0.000
190.65	-0.000
190.86	-0.000
191.08	-0.000
191.29	-0.000
191.51	-0.000
191.72	-0.000
191.94	-0.000
192.16	-0.000
192.37	-0.000
192.59	-0.000
192.80	-0.000
193.02	-0.000
193.23	-0.000
193.45	-0.000
193.66	-0.000
193.88	-0.000
194.09	-0.000
194.31	-0.000
194.52	-0.000
194.74	-0.000
194.95	-0.000
195.17	-0.000
195.38	-0.000
195.60	-0.000
195.81	-0.000
196.03	-0.000
196.25	-0.000
196.46	-0.000
196.68	-0.000
196.89	-0.000
197.11	-0.000
197.32	-0.000
197.54	-0.000
197.75	-0.000
197.97	-0.000
198.18	-0.000
198.40	-0.000
198.61	-0.000
198.83	-0.000
199.04	-0.000
199.26	-0.000
199.47	-0.000
199.69	-0.000
199.90	-0.000
200.12	-0.000
200.33	-0.000
200.55	-0.000
200.76	-0.000
200.98	-0.000
201.19	-0.000
201.41	-0.000
201.62	-0.000
201.84	-0.000
202.05	-0.000
202.27	-0.000
202.48	-0.000
202.70	-0.000
202.91	-0.000
203.13	-0.000
203.34	-0.000
203.56	-0.000
203.77	-0.000
203.99	-0.000
204.20	-0.000
204.42	-0.000
204.63	-0.000
204.85	-0.000
205.06	-0.000
205.28	-0.000
205.49	-0.000
205.71	-0.000
205.92	-0.000
206.14	-0.000
206.35	-0.000
206.56	-0.000
206.78	-0.000
206.99	-0.000
207.21	-0.000
207.42	-0.000
207.64	-0.000
207.85	-0.000
208.07	-0.000
208.28	-0.000
208.50	-0.000
208.71	-0.000
208.93	-0.000
209.14	-0.000
209.36	-0.000
209.57	-0.000
209.79	-0.000
210.00	-0.000
210.22	-0.000
210.43	-0.000
210.64	-0.000
210.86	-0.000
211.07	-0.000
211.29	-0.000
211.50	-0.000
211.72	-0.000
211.93	-0.000
212.15	-0.000
212.36	-0.000
212.58	-0.000
212.79	-0.000
213.01	-0.000
213.22	-0.000
213.43	-0.000
213.65	-0.000
213.86	-0.000
214.08	-0.000
214.29	-0.000
214.51	-0.000
214.72	-0.000
214.94	-0.000
215.15	-0.000
215.36	-0.000
215.58	-0.000
215.79	-0.000
216.01	-0.000
216.22	-0.000
216.44	-0.000
216.65	-0.000
216.87	-0.000
217.08	-0.000
217.29	-0.000
217.51	-0.000
217.72	-0.000
217.94	-0.000
218.15	-0.000
218.37	-0.000
218.58	-0.000
218.80	-0.000
219.01	-0.000
219.22	-0.000
219.44	-0.000
219.65	-0.000
219.87	-0.000
220.08	-0.000
220.30	-0.000
220.51	-0.000
220.72	-0.000
220.94	-0.000
221.15	-0.000
221.37	-0.000
221.58	-0.000
221.79	-0.000
222.01	-0.000
222.22	-0.000
222.44	-0.000
222.65	-0.000
222.87	-0.000
223.08	-0.000
223.29	-0.000
223.51	-0.000
223.72	-0.000
223.94	-0.000
224.15	-0.000
224.36	-0.000
224.58	-0.000
224.79	-0.000
225.01	-0.000
225.22	-0.000
225.44	-0.000
225.65	-0.000
225.86	-0.000
226.08	-0.000
226.29	-0.000
226.51	-0.000
226.72	-0.000
226.93	-0.000
227.15	-0.000
227.36	-0.000
227.58	-0.000
227.79	-0.000
228.00	-0.000
228.22	-0.000
228.43	-0.000
228.65	-0.000
228.86	-0.000
229.07	-0.000
229.29	-0.000
229.50	-0.000
229.72	-0.000
229.93	-0.000
230.14	-0.000
230.36	-0.000
230.57	-0.000
230.78	-0.000
231.00	-0.000
231.21	-0.000
231.43	-0.000
231.64	-0.000
231.85	-0.000
232.07	-0.000
232.28	-0.000
232.50	-0.000
232.71	-0.000
232.92	-0.000
233.14	-0.000
233.35	-0.000
233.56	-0.000
233.78	-0.000
233.99	-0.000
234.21	-0.000
234.42	-0.000
234.63	-0.000
234.85	-0.000
235.06	-0.000
235.27	-0.000
235.49	-0.000
235.70	-0.000
235.91	-0.000
236.13	-0.000
236.34	-0.000
236.56	-0.000
236.77	-0.000
236.98	-0.000
237.20	-0.000
237.41	-0.000
237.62	-0.000
237.84	-0.000
238.05	-0.000
238.26	-0.000
238.48	-0.000
238.69	-0.000
238.91	-0.000
239.12	-0.000
239.33	-0.000
239.55	-0.000
239.76	-0.000
239.97	-0.000
240.19	-0.000
240.40	-0.000
240.61	-0.000
240.83	-0.000
241.04	-0.000
241.25	-0.000
241.47	-0.000
241.68	-0.000
241.89	-0.000
242.11	-0.000
242.32	-0.000
242.53	-0.000
242.75	-0.000
242.96	-0.000
243.17	-0.000
243.39	-0.000
243.60	-0.000
243.81	-0.000
244.03	-0.000
244.24	-0.000
244.45	-0.000
244.67	-0.000
244.88	-0.000
245.09	-0.000
245.31	-0.000
245.52	-0.000
245.73	-0.000
245.95	-0.000
246.16	-0.000
246.37	-0.000
246.59	-0.000
246.80	-0.000
247.01	-0.000
247.23	-0.000
247.44	-0.000
247.65	-0.000
247.87	-0.000
248.08	-0.000
248.29	-0.000
248.51	-0.000
248.72	-0.000
248.93	-0.000
249.15	-0.000
249.36	-0.000
249.57	-0.000
249.78	-0.000
250.00	-0.000
250.21	-0.000
250.42	-0.000
250.64	-0.000
250.85	-0.000
251.06	-0.000
251.28	-0.000
251.49	-0.000
251.70	-0.000
251.92	-0.000
252.13	-0.000
252.34	-0.000
252.55	-0.000
252.77	-0.000
252.98	-0.000
253.19	-0.000
253.41	-0.000
253.62	-0.000
253.83	-0.000
254.05	-0.000
254.26	-0.000
254.47	-0.000
254.68	-0.000
254.90	-0.000
255.11	-0.000
255.32	-0.000
255.54	-0.000
255.75	-0.000
255.96	-0.000
256.17	-0.000
256.39	-0.000
256.60	-0.000
256.81	-0.000
257.03	-0.000
257.24	-0.000
257.45	-0.000
257.66	-0.000
257.88	-0.000
258.09	-0.000
258.30	-0.000
258.51	-0.000
258.73	-0.000
258.94	-0.000
259.15	-0.000
259.37	-0.000
259.58	-0.000
259.79	-0.000
260.00	-0.000
260.22	-0.000
260.43	-0.000
260.64	-0.000
260.85	-0.000
261.07	-0.000
261.28	-0.000
261.49	-0.000
261.71	-0.000
261.92	-0.000
262.13	-0.000
262.34	-0.000
262.56	-0.000
262.77	-0.000
262.98	-0.000
263.19	-0.000
263.41	-0.000
263.62	-0.000
263.83	-0.000
264.04	-0.000
264.26	-0.000
264.47	-0.000
264.68	-0.000
264.89	-0.000
265.11	-0.000
265.32	-0.000
265.53	-0.000
265.74	-0.000
265.96	-0.000
266.17	-0.000
266.38	-0.000
266.59	-0.000
266.81	-0.000
267.02	-0.000
267.23	-0.000
267.44	-0.000
267.65	-0.000
267.87	-0.000
268.08	-0.000
268.29	-0.000
268.50	-0.000
268.72	-0.000
268.93	-0.000
269.14	-0.000
269.35	-0.000
269.57	-0.000
269.78	-0.000
269.99	-0.000
270.20	-0.000
270.41	-0.000
270.63	-0.000
270.84	-0.000
271.05	-0.000
271.26	-0.000
271.48	-0.000
271.69	-0.000
271.90	-0.000
272.11	-0.000
272.32	-0.000
272.54	-0.000
272.75	-0.000
272.96	-0.000
273.17	-0.000
273.39	-0.000
273.60	-0.000
273.81	-0.000
274.02	-0.000
274.23	-0.000
274.45	-0.000
274.66	-0.000
274.87	-0.000
275.08	-0.000
275.29	-0.000
275.51	-0.000
275.72	-0.000
275.93	-0.000
276.14	-0.000
276.35	-0.000
276.57	-0.000
276.78	-0.000
276.99	-0.000
277.20	-0.000
277.41	-0.000
277.63	-0.000
277.84	-0.000
278.05	-0.000
278.26	-0.000
278.47	-0.000
278.69	-0.000
278.90	-0.000
279.11	-0.000
279.32	-0.000
279.53	-0.000
279.74	-0.000
279.96	-0.000
280.17	-0.000
280.38	-0.000
280.59	-0.000
280.80	-0.000
281.02	-0.000
281.23	-0.000
281.44	-0.000
281.65	-0.000
281.86	-0.000
282.07	-0.000
282.29	-0.000
282.50	-0.000
282.71	-0.000
282.92	-0.000
283.13	-0.000
283.35	-0.000
283.56	-0.000
283.77	-0.000
283.98	-0.000
284.19	-0.000
284.40	-0.000
284.62	-0.000
284.83	-0.000
285.04	-0.000
285.25	-0.000
285.46	-0.000
285.67	-0.000
285.88	-0.000
286.10	-0.000
286.31	-0.000
286.52	-0.000
286.73	-0.000
286.94	-0.000
287.15	-0.000
287.37	-0.000
287.58	-0.000
287.79	-0.000
288.00	-0.000
288.21	-0.000
288.42	-0.000
288.63	-0.000
288.85	-0.000
289.06	-0.000
289.27	-0.000
289.48	-0.000
289.69	-0.000
289.90	-0.000
290.11	-0.000
290.33	-0.000
290.54	-0.000
290.75	-0.000
290.96	-0.000
291.17	-0.000
291.38	-0.000
291.59	-0.000
291.81	-0.000
292.02	-0.000
292.23	-0.000
292.44	-0.000
292.65	-0.000
292.86	-0.000
293.07	-0.000
293.28	-0.000
293.50	-0.000
293.71	-0.000
293.92	-0.000
294.13	-0.000
294.34	-0.000
294.55	-0.000
294.76	-0.000
294.97	-0.000
295.19	-0.000
295.40	-0.000
295.61	-0.000
295.82	-0.000
296.03	-0.000
296.24	-0.000
296.45	2.402
296.66	1.840
296.87	1.835
297.09	1.952
297.30	2.208
297.51	1.728
297.72	1.686
297.93	1.803
298.14	1.764
298.35	1.687
298.56	1.656
298.77	1.798
298.99	1.770
299.20	1.727
299.41	1.704
299.62	1.673
299.83	1.660
300.04	1.572
300.25	1.562
300.46	1.619
300.67	1.593
300.88	1.530
301.10	1.531
301.31	1.615
301.52	1.542
301.73	1.476
301.94	1.476
302.15	1.500
302.36	1.456
302.57	1.389
302.78	1.396
302.99	1.447
303.20	1.460
303.41	1.364
303.63	1.339
303.84	1.357
304.05	1.350
304.26	1.289
304.47	1.296
304.68	1.305
304.89	1.292
305.10	1.246
305.31	1.230
305.52	1.273
305.73	1.266
305.94	1.227
306.15	1.220
306.37	1.244
306.58	1.250
306.79	1.215
307.00	1.230
307.21	1.270
307.42	1.261
307.63	1.225
307.84	1.195
308.05	1.231
308.26	1.232
308.47	1.202
308.68	1.197
308.89	1.201
309.10	1.200
309.31	1.160
309.52	1.155
309.73	1.174
309.95	1.168
310.16	1.141
310.37	1.131
310.58	1.151
310.79	1.148
311.00	1.142
311.21	1.142
311.42	1.145
311.63	1.141
311.84	1.119
312.05	1.115
312.26	1.136
312.47	1.144
312.68	1.117
312.89	1.102
313.10	1.113
313.31	1.090
313.52	1.089
313.73	1.091
313.94	1.095
314.15	1.078
314.36	1.056
314.57	1.049
314.78	1.040
314.99	1.035
315.21	1.021
315.42	1.023
315.63	1.036
315.84	1.014
316.05	0.999
316.26	1.006
316.47	1.026
316.68	1.023
316.89	1.004
317.10	1.023
317.31	1.032
317.52	1.032
317.73	1.011
317.94	1.012
318.15	1.054
318.36	1.052
318.57	1.033
318.78	1.022
318.99	1.055
319.20	1.052
319.41	1.017
319.62	1.018
319.83	1.031
320.04	1.025
320.25	1.008
320.46	0.977
320.67	0.983
320.88	0.978
321.09	0.963
321.30	0.950
321.51	0.966
321.72	0.965
321.93	0.948
322.14	0.943
322.35	0.971
322.56	0.974
322.77	0.961
322.98	0.971
323.19	0.982
323.40	0.989
323.61	0.967
323.82	0.961
324.03	0.967
324.24	0.964
324.45	0.949
324.66	0.930
324.87	0.929
325.08	0.928
325.29	0.908
325.50	0.901
325.71	0.906
325.92	0.913
326.13	0.901
326.34	0.902
326.55	0.912
326.76	0.911
326.97	0.899
327.18	0.893
327.39	0.918
327.60	0.918
327.80	0.918
328.01	0.916
328.22	0.916
328.43	0.918
328.64	0.905
328.85	0.908
329.06	0.911
329.27	0.910
329.48	0.905
329.69	0.887
329.90	0.898
330.11	0.890
330.32	0.883
330.53	0.877
330.74	0.879
330.95	0.878
331.16	0.863
331.37	0.871
331.58	0.872
331.79	0.872
332.00	0.863
332.21	0.857
332.42	0.862
332.63	0.854
332.83	0.849
333.04	0.850
333.25	0.862
333.46	0.860
333.67	0.847
333.88	0.850
334.09	0.859
334.30	0.856
334.51	0.847
334.72	0.843
334.93	0.847
335.14	0.845
335.35	0.837
335.56	0.832
335.77	0.841
335.98	0.840
336.18	0.833
336.39	0.827
336.60	0.832
336.81	0.830
337.02	0.828
337.23	0.832
337.44	0.836
337.65	0.838
337.86	0.829
338.07	0.824
338.28	0.829
338.49	0.827
338.70	0.819
338.91	0.825
339.11	0.833
339.32	0.830
339.53	0.817
339.74	0.815
339.95	0.813
340.16	0.811
340.37	0.803
340.58	0.801
340.79	0.806
341.00	0.806
341.21	0.795
341.41	0.795
341.62	0.797
341.83	0.799
342.04	0.795
342.25	0.805
342.46	0.812
342.67	0.810
342.88	0.803
343.09	0.802
343.30	0.809
343.50	0.811
343.71	0.801
343.92	0.800
344.13	0.806
344.34	0.804
344.55	0.787
344.76	0.785
344.97	0.791
345.18	0.790
345.38	0.787
345.59	0.782
345.80	0.783
346.01	0.781
346.22	0.775
346.43	0.770
346.64	0.779
346.85	0.780
347.06	0.772
347.26	0.773
347.47	0.777
347.68	0.772
347.89	0.769
348.10	0.764
348.31	0.771
348.52	0.771
348.73	0.768
348.93	0.764
349.14	0.766
349.35	0.766
349.56	0.760
349.77	0.755
349.98	0.762
350.19	0.760
350.39	0.755
350.60	0.751
350.81	0.766
351.02	0.765
351.23	0.760
351.44	0.763
351.65	0.766
351.86	0.762
352.06	0.761
352.27	0.760
352.48	0.762
352.69	0.761
352.90	0.756
353.11	0.744
353.31	0.750
353.52	0.748
353.73	0.739
353.94	0.741
354.15	0.748
354.36	0.748
354.57	0.739
354.77	0.741
354.98	0.742
355.19	0.741
355.40	0.740
355.61	0.746
355.82	0.751
356.02	0.751
356.23	0.744
356.44	0.745
356.65	0.749
356.86	0.750
357.07	0.744
357.27	0.747
357.48	0.751
357.69	0.747
357.90	0.733
358.11	0.731
358.32	0.735
358.52	0.737
358.73	0.727
358.94	0.729
359.15	0.734
359.36	0.734
359.56	0.729
359.77	0.726
359.98	0.733
360.19	0.732
360.40	0.728
360.61	0.728
360.81	0.728
361.02	0.729
361.23	0.721
361.44	0.720
361.65	0.721
361.85	0.720
362.06	0.717
362.27	0.718
362.48	0.719
362.69	0.722
362.89	0.715
363.10	0.716
363.31	0.722
363.52	0.725
363.73	0.720
363.93	0.721
364.14	0.725
364.35	0.727
364.56	0.716
364.77	0.718
364.97	0.721
365.18	0.721
365.39	0.716
365.60	0.713
365.81	0.714
366.01	0.713
366.22	0.709
366.43	0.709
366.64	0.711
366.84	0.717
367.05	0.714
367.26	0.714
367.47	0.717
367.68	0.717
367.88	0.713
368.09	0.712
368.30	0.715
368.51	0.715
368.71	0.713
368.92	0.718
369.13	0.716
369.34	0.715
369.55	0.713
369.75	0.712
369.96	0.719
370.17	0.720
370.38	0.716
370.58	0.716
370.79	0.722
371.00	0.720
371.21	0.711
371.41	0.717
371.62	0.721
371.83	0.717
372.04	0.714
372.24	0.707
372.45	0.709
372.66	0.709
372.87	0.705
373.07	0.701
373.28	0.703
373.49	0.705
373.70	0.696
373.90	0.695
374.11	0.705
374.32	0.705
374.53	0.704
374.73	0.704
374.94	0.708
375.15	0.708
375.36	0.705
375.56	0.713
375.77	0.714
375.98	0.714
376.19	0.711
376.39	0.704
376.60	0.709
376.81	0.709
377.02	0.706
377.22	0.705
377.43	0.705
377.64	0.705
377.84	0.696
378.05	0.701
378.26	0.708
378.47	0.706
378.67	0.703
378.88	0.700
379.09	0.701
379.30	0.701
379.50	0.698
379.71	0.701
379.92	0.704
380.12	0.703
380.33	0.694
380.54	0.690
380.75	0.697
380.95	0.698
381.16	0.695
381.37	0.696
381.57	0.697
381.78	0.697
381.99	0.696
382.20	0.695
382.40	0.699
382.61	0.699
382.82	0.695
383.02	0.688
383.23	0.691
383.44	0.691
383.64	0.688
383.85	0.691
384.06	0.695
384.27	0.692
384.47	0.689
384.68	0.689
384.89	0.696
385.09	0.696
385.30	0.695
385.51	0.695
385.71	0.699
385.92	0.699
386.13	0.697
386.33	0.699
386.54	0.700
386.75	0.699
386.95	0.694
387.16	0.689
387.37	0.691
387.58	0.691
387.78	0.689
387.99	0.686
388.20	0.689
388.40	0.686
388.61	0.681
388.82	0.684
389.02	0.687
389.23	0.687
389.44	0.685
389.64	0.685
389.85	0.696
390.06	0.695
390.26	0.695
390.47	0.694
390.68	0.697
390.88	0.695
391.09	0.690
391.30	0.689
391.50	0.689
391.71	0.689
391.92	0.687
392.12	0.679
392.33	0.680
392.53	0.679
392.74	0.679
392.95	0.678
393.15	0.681
393.36	0.683
393.57	0.681
393.77	0.684
393.98	0.687
394.19	0.686
394.39	0.685
394.60	0.686
394.81	0.688
395.01	0.686
395.22	0.683
395.43	0.684
395.63	0.688
395.84	0.688
396.04	0.684
396.25	0.686
396.46	0.688
396.66	0.686
396.87	0.683
397.08	0.680
397.28	0.682
397.49	0.683
397.69	0.679
397.90	0.675
398.11	0.676
398.31	0.677
398.52	0.672
398.73	0.674
398.93	0.673
399.14	0.672
399.34	0.671
399.55	0.672
399.76	0.673
399.96	0.674
400.17	0.672
400.37	0.670
400.58	0.677
400.79	0.679
400.99	0.676
401.20	0.681
401.41	0.684
401.61	0.685
401.82	0.689
402.02	0.688
402.23	0.688
402.44	0.688
402.64	0.688
402.85	0.682
403.05	0.681
403.26	0.680
403.47	0.673
403.67	0.672
403.88	0.673
404.08	0.667
404.29	0.665
404.50	0.665
404.70	0.666
404.91	0.664
405.11	0.661
405.32	0.662
405.52	0.662
405.73	0.662
405.94	0.660
406.14	0.662
406.35	0.665
406.55	0.664
406.76	0.661
406.97	0.662
407.17	0.664
407.38	0.664
407.58	0.662
407.79	0.665
407.99	0.667
408.20	0.667
408.41	0.663
408.61	0.661
408.82	0.662
409.02	0.662
409.23	0.660
409.43	0.659
409.64	0.661
409.84	0.661
410.05	0.657
410.26	0.656
410.46	0.656
410.67	0.656
410.87	0.657
411.08	0.659
411.28	0.661
411.49	0.662
411.69	0.659
411.90	0.660
412.11	0.662
412.31	0.663
412.52	0.660
412.72	0.661
412.93	0.662
413.13	0.661
413.34	0.657
413.54	0.658
413.75	0.660
413.95	0.659
414.16	0.656
414.37	0.658
414.57	0.659
414.78	0.662
414.98	0.660
415.19	0.661
415.39	0.659
415.60	0.661
415.80	0.660
416.01	0.659
416.21	0.661
416.42	0.661
416.62	0.656
416.83	0.657
417.03	0.656
417.24	0.656
417.44	0.654
417.65	0.653
417.86	0.654
418.06	0.652
418.27	0.649
418.47	0.651
418.68	0.652
418.88	0.653
419.09	0.651
419.29	0.652
419.50	0.653
419.70	0.653
419.91	0.650
420.11	0.648
420.32	0.651
420.52	0.651
420.73	0.650
420.93	0.651
421.14	0.653
421.34	0.651
421.55	0.647
421.75	0.647
421.96	0.649
422.16	0.650
422.37	0.649
422.57	0.646
422.78	0.648
422.98	0.645
423.19	0.642
423.39	0.641
423.60	0.645
423.80	0.647
424.01	0.646
424.21	0.648
424.42	0.649
424.62	0.650
424.83	0.648
425.03	0.648
425.23	0.651
425.44	0.651
425.64	0.651
425.85	0.650
426.05	0.651
426.26	0.651
426.46	0.647
426.67	0.646
426.87	0.650
427.08	0.651
427.28	0.649
427.49	0.650
427.69	0.651
427.90	0.650
428.10	0.647
428.31	0.647
428.51	0.649
428.71	0.649
428.92	0.649
429.12	0.647
429.33	0.648
429.53	0.652
429.74	0.655
429.94	0.655
430.15	0.656
430.35	0.655
430.56	0.652
430.76	0.652
430.96	0.653
431.17	0.651
431.37	0.648
431.58	0.646
431.78	0.643
431.99	0.637
432.19	0.639
432.40	0.640
432.60	0.642
432.80	0.645
433.01	0.642
433.21	0.643
433.42	0.645
433.62	0.646
433.83	0.645
434.03	0.648
434.23	0.651
434.44	0.650
434.64	0.648
434.85	0.652
435.05	0.653
435.26	0.654
435.46	0.652
435.66	0.653
435.87	0.653
436.07	0.654
436.28	0.649
436.48	0.646
436.69	0.646
436.89	0.647
437.09	0.641
437.30	0.640
437.50	0.641
437.71	0.652
437.91	0.651
438.11	0.652
438.32	0.656
438.52	0.657
438.73	0.655
438.93	0.654
439.13	0.654
439.34	0.657
439.54	0.655
439.75	0.655
439.95	0.646
440.15	0.650
440.36	0.648
440.56	0.647
440.77	0.648
440.97	0.648
441.17	0.646
441.38	0.648
441.58	0.645
441.79	0.645
441.99	0.643
442.19	0.642
442.40	0.641
442.60	0.640
442.81	0.638
443.01	0.638
443.21	0.640
443.42	0.640
443.62	0.638
443.82	0.638
444.03	0.640
444.23	0.640
444.44	0.640
444.64	0.639
444.84	0.641
445.05	0.640
445.25	0.638
445.45	0.639
445.66	0.641
445.86	0.640
446.06	0.641
446.27	0.641
446.47	0.644
446.68	0.643
446.88	0.642
447.08	0.641
447.29	0.644
447.49	0.644
447.69	0.643
447.90	0.642
448.10	0.647
448.30	0.645
448.51	0.646
448.71	0.644
448.91	0.647
449.12	0.645
449.32	0.647
449.52	0.646
449.73	0.650
449.93	0.649
450.14	0.649
450.34	0.648
450.54	0.650
450.75	0.647
450.95	0.646
451.15	0.645
451.36	0.648
451.56	0.645
451.76	0.643
451.97	0.640
452.17	0.641
452.37	0.640
452.58	0.636
452.78	0.636
452.98	0.639
453.19	0.638
453.39	0.639
453.59	0.638
453.79	0.639
454.00	0.640
454.20	0.639
454.40	0.640
454.61	0.642
454.81	0.643
455.01	0.641
455.22	0.641
455.42	0.643
455.62	0.642
455.83	0.641
456.03	0.643
456.23	0.645
456.44	0.645
456.64	0.644
456.84	0.644
457.04	0.646
457.25	0.645
457.45	0.642
457.65	0.641
457.86	0.642
458.06	0.641
458.26	0.636
458.47	0.636
458.67	0.637
458.87	0.637
459.07	0.634
459.28	0.636
459.48	0.639
459.68	0.640
459.89	0.638
460.09	0.638
460.29	0.640
460.49	0.641
460.70	0.640
460.90	0.640
461.10	0.641
461.31	0.641
461.51	0.638
461.71	0.640
461.91	0.642
462.12	0.642
462.32	0.640
462.52	0.640
462.72	0.644
462.93	0.644
463.13	0.642
463.33	0.643
463.53	0.646
463.74	0.645
463.94	0.640
464.14	0.640
464.35	0.642
464.55	0.642
464.75	0.640
464.95	0.637
465.16	0.640
465.36	0.638
465.56	0.636
465.76	0.636
465.97	0.637
466.17	0.637
466.37	0.635
466.57	0.636
466.78	0.638
466.98	0.638
467.18	0.637
467.38	0.635
467.59	0.637
467.79	0.639
467.99	0.637
468.19	0.638
468.39	0.641
468.60	0.642
468.80	0.640
469.00	0.641
469.20	0.642
469.41	0.643
469.61	0.642
469.81	0.642
470.01	0.642
470.22	0.643
470.42	0.640
470.62	0.638
470.82	0.640
471.02	0.639
471.23	0.636
471.43	0.637
471.63	0.639
471.83	0.639
472.04	0.637
472.24	0.636
472.44	0.641
472.64	0.642
472.84	0.639
473.05	0.639
473.25	0.642
473.45	0.642
473.65	0.639
473.85	0.640
474.06	0.642
474.26	0.642
474.46	0.642
474.66	0.639
474.86	0.640
475.07	0.641
475.27	0.638
475.47	0.636
475.67	0.637
475.87	0.639
476.08	0.635
476.28	0.636
476.48	0.638
476.68	0.637
476.88	0.634
477.09	0.636
477.29	0.638
477.49	0.638
477.69	0.637
477.89	0.637
478.09	0.637
478.30	0.639
478.50	0.635
478.70	0.635
478.90	0.635
479.10	0.638
479.31	0.639
479.51	0.637
479.71	0.638
479.91	0.638
480.11	0.636
480.31	0.637
480.52	0.637
480.72	0.636
480.92	0.635
481.12	0.634
481.32	0.632
481.52	0.629
481.72	0.629
481.93	0.632
482.13	0.633
482.33	0.632
482.53	0.630
482.73	0.630
482.93	0.632
483.14	0.631
483.34	0.631
483.54	0.631
483.74	0.631
483.94	0.630
484.14	0.626
484.34	0.626
484.55	0.627
484.75	0.627
484.95	0.625
485.15	0.625
485.35	0.626
485.55	0.625
485.75	0.623
485.96	0.624
486.16	0.626
486.36	0.625
486.56	0.623
486.76	0.623
486.96	0.624
487.16	0.624
487.36	0.622
487.57	0.622
487.77	0.623
487.97	0.624
488.17	0.622
488.37	0.621
488.57	0.621
488.77	0.622
488.97	0.620
489.18	0.620
489.38	0.623
489.58	0.623
489.78	0.622
489.98	0.622
490.18	0.621
490.38	0.622
490.58	0.620
490.78	0.621
490.98	0.623
491.19	0.624
491.39	0.623
491.59	0.622
491.79	0.625
491.99	0.625
492.19	0.625
492.39	0.628
492.59	0.628
492.79	0.630
492.99	0.630
493.20	0.630
493.40	0.630
493.60	0.631
493.80	0.629
494.00	0.626
494.20	0.627
494.40	0.627
494.60	0.624
494.80	0.628
495.00	0.628
495.20	0.626
495.40	0.625
495.61	0.627
495.81	0.627
496.01	0.631
496.21	0.632
496.41	0.631
496.61	0.631
496.81	0.630
497.01	0.625
497.21	0.624
497.41	0.625
497.61	0.625
497.81	0.622
498.01	0.623
498.21	0.621
498.41	0.619
498.61	0.619
498.82	0.621
499.02	0.624
499.22	0.624
499.42	0.624
499.62	0.625
499.82	0.626
500.02	0.627
500.22	0.625
500.42	0.628
500.62	0.628
500.82	0.629
501.02	0.626
501.22	0.626
501.42	0.626
501.62	0.629
501.82	0.628
502.02	0.628
502.22	0.627
502.42	0.629
502.62	0.626
502.82	0.626
503.02	0.627
503.22	0.626
503.42	0.624
503.63	0.624
503.83	0.622
504.03	0.621
504.23	0.620
504.43	0.621
504.63	0.622
504.83	0.622
505.03	0.621
505.23	0.623
505.43	0.625
505.63	0.626
505.83	0.625
506.03	0.627
506.23	0.630
506.43	0.630
506.63	0.628
506.83	0.627
507.03	0.629
507.23	0.629
507.43	0.626
507.63	0.627
507.83	0.628
508.03	0.628
508.23	0.627
508.43	0.625
508.63	0.628
508.83	0.628
509.03	0.629
509.23	0.627
509.43	0.629
509.63	0.629
509.83	0.628
510.03	0.630
510.23	0.632
510.43	0.633
510.63	0.633
510.83	0.633
511.03	0.636
511.23	0.633
511.43	0.633
511.63	0.635
511.83	0.637
512.03	0.638
512.22	0.634
512.42	0.633
512.62	0.635
512.82	0.634
513.02	0.633
513.22	0.632
513.42	0.635
513.62	0.638
513.82	0.635
514.02	0.634
514.22	0.636
514.42	0.637
514.62	0.636
514.82	0.636
515.02	0.639
515.22	0.642
515.42	0.640
515.62	0.643
515.82	0.642
516.02	0.644
516.22	0.643
516.42	0.644
516.62	0.647
516.82	0.648
517.01	0.646
517.21	0.645
517.41	0.649
517.61	0.649
517.81	0.644
518.01	0.644
518.21	0.644
518.41	0.643
518.61	0.641
518.81	0.642
519.01	0.642
519.21	0.643
519.41	0.641
519.61	0.636
519.81	0.638
520.00	0.639
520.20	0.639
520.40	0.642
520.60	0.643
520.80	0.642
521.00	0.642
521.20	0.643
521.40	0.649
521.60	0.650
521.80	0.649
522.00	0.649
522.20	0.653
522.39	0.652
522.59	0.648
522.79	0.650
522.99	0.653
523.19	0.651
523.39	0.649
523.59	0.646
523.79	0.650
523.99	0.652
524.19	0.650
524.38	0.648
524.58	0.650
524.78	0.651
524.98	0.648
525.18	0.650
525.38	0.652
525.58	0.653
525.78	0.650
525.98	0.649
526.18	0.649
526.37	0.648
526.57	0.649
526.77	0.649
526.97	0.650
527.17	0.650
527.37	0.646
527.57	0.649
527.77	0.651
527.96	0.651
528.16	0.649
528.36	0.651
528.56	0.653
528.76	0.652
528.96	0.651
529.16	0.652
529.36	0.656
529.55	0.656
529.75	0.652
529.95	0.653
530.15	0.655
530.35	0.657
530.55	0.654
530.75	0.654
530.94	0.656
531.14	0.656
531.34	0.654
531.54	0.651
531.74	0.655
531.94	0.657
532.13	0.655
532.33	0.656
532.53	0.656
532.73	0.656
532.93	0.653
533.13	0.654
533.33	0.655
533.52	0.656
533.72	0.659
533.92	0.657
534.12	0.655
534.32	0.655
534.52	0.653
534.71	0.655
534.91	0.658
535.11	0.660
535.31	0.658
535.51	0.660
535.71	0.662
535.90	0.659
536.10	0.660
536.30	0.662
536.50	0.663
536.70	0.664
536.89	0.661
537.09	0.661
537.29	0.663
537.49	0.663
537.69	0.660
537.89	0.660
538.08	0.661
538.28	0.659
538.48	0.659
538.68	0.661
538.88	0.662
539.07	0.663
539.27	0.660
539.47	0.660
539.67	0.660
539.87	0.662
540.06	0.659
540.26	0.660
540.46	0.663
540.66	0.660
540.86	0.657
541.05	0.657
541.25	0.659
541.45	0.659
541.65	0.657
541.84	0.659
542.04	0.660
542.24	0.661
542.44	0.659
542.64	0.660
542.83	0.663
543.03	0.664
543.23	0.661
543.43	0.662
543.62	0.664
543.82	0.665
544.02	0.663
544.22	0.663
544.42	0.666
544.61	0.667
544.81	0.663
545.01	0.663
545.21	0.665
545.40	0.666
545.60	0.663
545.80	0.667
546.00	0.668
546.19	0.667
546.39	0.665
546.59	0.663
546.79	0.665
546.98	0.666
547.18	0.665
547.38	0.665
547.58	0.668
547.77	0.668
547.97	0.664
548.17	0.666
548.37	0.666
548.56	0.666
548.76	0.665
548.96	0.667
549.16	0.670
549.35	0.669
549.55	0.666
549.75	0.667
549.95	0.671
550.14	0.672
550.34	0.669
550.54	0.674
550.73	0.679
550.93	0.679
551.13	0.675
551.33	0.673
551.52	0.675
551.72	0.676
551.92	0.673
552.12	0.673
552.31	0.675
552.51	0.675
552.71	0.669
552.90	0.669
553.10	0.670
553.30	0.669
553.50	0.669
553.69	0.670
553.89	0.671
554.09	0.672
554.28	0.668
554.48	0.669
554.68	0.672
554.87	0.673
555.07	0.670
555.27	0.670
555.47	0.673
555.66	0.674
555.86	0.672
556.06	0.674
556.25	0.676
556.45	0.684
556.65	0.682
556.84	0.685
557.04	0.688
557.24	0.690
557.43	0.689
557.63	0.691
557.83	0.693
558.02	0.694
558.22	0.698
558.42	0.698
558.61	0.691
558.81	0.691
559.01	0.687
559.21	0.687
559.40	0.688
559.60	0.688
559.80	0.684
559.99	0.685
560.19	0.688
560.39	0.682
560.58	0.679
560.78	0.679
560.97	0.683
561.17	0.682
561.37	0.679
561.56	0.681
561.76	0.682
561.96	0.682
562.15	0.679
562.35	0.681
562.55	0.684
562.74	0.684
562.94	0.682
563.14	0.680
563.33	0.681
563.53	0.681
563.73	0.678
563.92	0.680
564.12	0.683
564.31	0.685
564.51	0.682
564.71	0.683
564.90	0.687
565.10	0.687
565.30	0.689
565.49	0.690
565.69	0.694
565.89	0.694
566.08	0.690
566.28	0.692
566.47	0.694
566.67	0.692
566.87	0.689
567.06	0.690
567.26	0.697
567.46	0.692
567.65	0.691
567.85	0.692
568.04	0.695
568.24	0.694
568.44	0.691
568.63	0.689
568.83	0.691
569.02	0.690
569.22	0.684
569.42	0.681
569.61	0.684
569.81	0.682
570.00	0.679
570.20	0.680
570.40	0.682
570.59	0.682
570.79	0.680
570.98	0.677
571.18	0.679
571.38	0.679
571.57	0.675
571.77	0.673
571.96	0.678
572.16	0.675
572.35	0.670
572.55	0.671
572.75	0.669
572.94	0.669
573.14	0.667
573.33	0.667
573.53	0.668
573.73	0.667
573.92	0.665
574.12	0.662
574.31	0.665
574.51	0.666
574.70	0.663
574.90	0.664
575.09	0.667
575.29	0.667
575.49	0.664
575.68	0.664
575.88	0.666
576.07	0.668
576.27	0.666
576.46	0.665
576.66	0.665
576.86	0.664
577.05	0.661
577.25	0.659
577.44	0.661
577.64	0.661
577.83	0.658
578.03	0.660
578.22	0.659
578.42	0.658
578.61	0.656
578.81	0.657
579.00	0.657
579.20	0.658
579.40	0.657
579.59	0.655
579.79	0.656
579.98	0.656
580.18	0.655
580.37	0.656
580.57	0.658
580.76	0.662
580.96	0.660
581.15	0.661
581.35	0.663
581.54	0.662
581.74	0.661
581.93	0.663
582.13	0.665
582.32	0.662
582.52	0.660
582.71	0.659
582.91	0.656
583.10	0.656
583.30	0.655
583.49	0.654
583.69	0.659
583.88	0.661
584.08	0.659
584.27	0.661
584.47	0.665
584.66	0.666
584.86	0.664
585.05	0.667
585.25	0.669
585.44	0.668
585.64	0.666
585.83	0.663
586.03	0.664
586.22	0.662
586.42	0.659
586.61	0.660
586.81	0.663
587.00	0.663
587.20	0.660
587.39	0.662
587.59	0.664
587.78	0.666
587.98	0.666
588.17	0.667
588.37	0.670
588.56	0.672
588.76	0.667
588.95	0.667
589.15	0.671
589.34	0.674
589.54	0.672
589.73	0.672
589.92	0.675
590.12	0.674
590.31	0.671
590.51	0.676
590.70	0.678
590.90	0.678
591.09	0.676
591.29	0.674
591.48	0.674
591.68	0.675
591.87	0.672
592.06	0.672
592.26	0.675
592.45	0.675
592.65	0.668
592.84	0.668
593.04	0.672
593.23	0.674
593.43	0.671
593.62	0.671
593.81	0.672
594.01	0.672
594.20	0.669
594.40	0.669
594.59	0.672
594.79	0.673
594.98	0.670
595.17	0.669
595.37	0.670
595.56	0.671
595.76	0.670
595.95	0.671
596.14	0.675
596.34	0.676
596.53	0.674
596.73	0.675
596.92	0.676
597.12	0.678
597.31	0.678
597.50	0.678
597.70	0.681
597.89	0.680
598.09	0.676
598.28	0.677
598.47	0.681
598.67	0.679
598.86	0.675
599.06	0.677
599.25	0.678
599.44	0.676
599.64	0.673
599.83	0.671
600.03	0.674
600.22	0.675
600.41	0.675
600.61	0.673
600.80	0.676
601.00	0.677
601.19	0.672
601.38	0.670
601.58	0.674
601.77	0.675
601.96	0.677
602.16	0.676
602.35	0.685
602.55	0.682
602.74	0.682
602.93	0.683
603.13	0.689
603.32	0.690
603.51	0.689
603.71	0.691
603.90	0.694
604.09	0.695
604.29	0.692
604.48	0.686
604.68	0.687
604.87	0.686
605.06	0.682
605.26	0.679
605.45	0.680
605.64	0.679
605.84	0.674
606.03	0.673
606.22	0.672
606.42	0.672
606.61	0.668
606.80	0.669
607.00	0.671
607.19	0.672
607.38	0.670
607.58	0.672
607.77	0.675
607.96	0.676
608.16	0.674
608.35	0.679
608.54	0.682
608.74	0.685
608.93	0.690
609.12	0.693
609.32	0.696
609.51	0.699
609.70	0.697
609.90	0.699
610.09	0.703
610.28	0.708
610.48	0.701
610.67	0.702
610.86	0.704
611.06	0.698
611.25	0.695
611.44	0.696
611.64	0.697
611.83	0.700
612.02	0.694
612.21	0.693
612.41	0.693
612.60	0.692
612.79	0.687
612.99	0.687
613.18	0.689
613.37	0.688
613.57	0.684
613.76	0.686
613.95	0.684
614.14	0.684
614.34	0.681
614.53	0.682
614.72	0.686
614.92	0.687
615.11	0.683
615.30	0.680
615.49	0.682
615.69	0.685
615.88	0.681
616.07	0.683
616.26	0.686
616.46	0.687
616.65	0.683
616.84	0.683
617.04	0.685
617.23	0.688
617.42	0.688
617.61	0.693
617.81	0.694
618.00	0.696
618.19	0.694
618.38	0.697
618.58	0.702
618.77	0.703
618.96	0.701
619.15	0.702
619.35	0.705
619.54	0.705
619.73	0.700
619.92	0.701
620.12	0.706
620.31	0.706
620.50	0.701
620.69	0.700
620.89	0.705
621.08	0.705
621.27	0.704
621.46	0.703
621.66	0.708
621.85	0.708
622.04	0.703
622.23	0.704
622.43	0.705
622.62	0.704
622.81	0.703
623.00	0.703
623.19	0.707
623.39	0.706
623.58	0.702
623.77	0.701
623.96	0.704
624.16	0.705
624.35	0.699
624.54	0.702
624.73	0.707
624.92	0.705
625.12	0.701
625.31	0.702
625.50	0.706
625.69	0.706
625.88	0.702
626.08	0.702
626.27	0.705
626.46	0.706
626.65	0.703
626.84	0.703
627.04	0.709
627.23	0.709
627.42	0.704
627.61	0.706
627.80	0.711
628.00	0.711
628.19	0.708
628.38	0.712
628.57	0.715
628.76	0.716
628.96	0.711
629.15	0.712
629.34	0.715
629.53	0.715
629.72	0.708
629.91	0.708
630.11	0.716
630.30	0.716
630.49	0.718
630.68	0.718
630.87	0.722
631.06	0.724
631.26	0.718
631.45	0.720
631.64	0.730
631.83	0.733
632.02	0.730
632.21	0.727
632.41	0.735
632.60	0.729
632.79	0.727
632.98	0.726
633.17	0.729
633.36	0.732
633.55	0.727
633.75	0.724
633.94	0.726
634.13	0.726
634.32	0.722
634.51	0.716
634.70	0.719
634.89	0.719
635.09	0.715
635.28	0.715
635.47	0.717
635.66	0.719
635.85	0.713
636.04	0.714
636.23	0.721
636.43	0.723
636.62	0.721
636.81	0.719
637.00	0.723
637.19	0.728
637.38	0.723
637.57	0.722
637.76	0.726
637.95	0.728
638.15	0.723
638.34	0.719
638.53	0.724
638.72	0.725
638.91	0.722
639.10	0.718
639.29	0.719
639.48	0.720
639.67	0.719
639.87	0.717
640.06	0.724
640.25	0.723
640.44	0.723
640.63	0.723
640.82	0.726
641.01	0.726
641.20	0.726
641.39	0.728
641.58	0.731
641.78	0.730
641.97	0.724
642.16	0.738
642.35	0.741
642.54	0.740
642.73	0.733
642.92	0.732
643.11	0.736
643.30	0.737
643.49	0.730
643.68	0.733
643.87	0.736
644.06	0.738
644.25	0.715
644.45	0.718
644.64	0.721
644.83	0.722
645.02	0.718
645.21	0.717
645.40	0.718
645.59	0.718
645.78	0.710
645.97	0.713
646.16	0.714
646.35	0.714
646.54	0.710
646.73	0.711
646.92	0.713
647.11	0.712
647.30	0.707
647.49	0.709
647.68	0.710
647.88	0.709
648.07	0.700
648.26	0.704
648.45	0.707
648.64	0.703
648.83	0.699
649.02	0.701
649.21	0.712
649.40	0.712
649.59	0.705
649.78	0.706
649.97	0.722
650.16	0.722
650.35	0.715
650.54	0.718
650.73	0.728
650.92	0.724
651.11	0.717
651.30	0.715
651.49	0.719
651.68	0.719
651.87	0.715
652.06	0.704
652.25	0.707
652.44	0.709
652.63	0.702
652.82	0.700
653.01	0.700
653.20	0.698
653.39	0.685
653.58	0.683
653.77	0.683
653.96	0.679
654.15	0.670
654.34	0.668
654.53	0.665
654.72	0.660
654.91	0.651
655.10	0.647
655.29	0.646
655.48	0.644
655.67	0.638
655.86	0.636
656.05	0.634
656.24	0.634
656.43	0.629
656.62	0.628
656.81	0.630
657.00	0.629
657.19	0.627
657.38	0.628
657.57	0.629
657.76	0.632
657.95	0.630
658.14	0.634
658.33	0.638
658.51	0.644
658.70	0.644
658.89	0.645
659.08	0.653
659.27	0.661
659.46	0.659
659.65	0.666
659.84	0.670
660.03	0.673
660.22	0.674
660.41	0.677
660.60	0.678
660.79	0.679
660.98	0.685
661.17	0.683
661.36	0.682
661.55	0.682
661.74	0.679
661.92	0.681
662.11	0.684
662.30	0.682
662.49	0.674
662.68	0.673
662.87	0.678
663.06	0.672
663.25	0.671
663.44	0.672
663.63	0.675
663.82	0.673
664.01	0.668
664.20	0.667
664.38	0.669
664.57	0.670
664.76	0.670
664.95	0.670
665.14	0.676
665.33	0.672
665.52	0.678
665.71	0.683
665.90	0.682
666.09	0.683
666.28	0.680
666.46	0.681
666.65	0.683
666.84	0.680
667.03	0.673
667.22	0.671
667.41	0.674
667.60	0.664
667.79	0.656
667.98	0.659
668.16	0.660
668.35	0.659
668.54	0.653
668.73	0.653
668.92	0.655
669.11	0.654
669.30	0.647
669.49	0.643
669.67	0.644
669.86	0.646
670.05	0.644
670.24	0.641
670.43	0.640
670.62	0.638
670.81	0.632
671.00	0.634
671.18	0.634
671.37	0.634
671.56	0.632
671.75	0.631
671.94	0.628
672.13	0.625
672.32	0.620
672.50	0.620
672.69	0.621
672.88	0.622
673.07	0.617
673.26	0.618
673.45	0.620
673.63	0.619
673.82	0.615
674.01	0.617
674.20	0.616
674.39	0.615
674.58	0.613
674.76	0.613
674.95	0.612
675.14	0.611
675.33	0.606
675.52	0.605
675.71	0.605
675.89	0.605
676.08	0.600
676.27	0.601
676.46	0.602
676.65	0.601
676.84	0.600
677.02	0.602
677.21	0.605
677.40	0.605
677.59	0.602
677.78	0.603
677.96	0.606
678.15	0.605
678.34	0.603
678.53	0.604
678.72	0.604
678.90	0.601
679.09	0.597
679.28	0.594
679.47	0.594
679.66	0.593
679.84	0.589
680.03	0.586
680.22	0.586
680.41	0.587
680.60	0.583
680.78	0.582
680.97	0.585
681.16	0.585
681.35	0.583
681.53	0.582
681.72	0.584
681.91	0.585
682.10	0.584
682.29	0.586
682.47	0.583
682.66	0.583
682.85	0.581
683.04	0.580
683.22	0.581
683.41	0.582
683.60	0.581
683.79	0.583
683.97	0.583
684.16	0.581
684.35	0.578
684.54	0.580
684.72	0.581
684.91	0.582
685.10	0.579
685.29	0.580
685.47	0.577
685.66	0.576
685.85	0.572
686.04	0.571
686.22	0.575
686.41	0.577
686.60	0.573
686.79	0.576
686.97	0.577
687.16	0.578
687.35	0.575
687.54	0.579
687.72	0.584
687.91	0.583
688.10	0.584
688.29	0.584
688.47	0.582
688.66	0.582
688.85	0.578
689.03	0.576
689.22	0.581
689.41	0.581
689.60	0.575
689.78	0.573
689.97	0.574
690.16	0.571
690.34	0.567
690.53	0.567
690.72	0.567
690.91	0.565
691.09	0.562
691.28	0.556
691.47	0.555
691.65	0.554
691.84	0.550
692.03	0.549
692.21	0.547
692.40	0.547
692.59	0.544
692.77	0.543
692.96	0.545
693.15	0.546
693.34	0.544
693.52	0.544
693.71	0.545
693.90	0.547
694.08	0.547
694.27	0.548
694.46	0.558
694.64	0.559
694.83	0.558
695.02	0.557
695.20	0.557
695.39	0.557
695.58	0.556
695.76	0.557
695.95	0.557
696.14	0.556
696.32	0.554
696.51	0.544
696.70	0.544
696.88	0.545
697.07	0.544
697.26	0.546
697.44	0.547
697.63	0.546
697.81	0.543
698.00	0.542
698.19	0.542
698.37	0.542
698.56	0.542
698.75	0.541
698.93	0.542
699.12	0.541
699.31	0.540
699.49	0.539
699.68	0.541
699.87	0.543
700.05	0.542
700.24	0.540
700.42	0.542
700.61	0.541
700.80	0.539
700.98	0.539
701.17	0.540
701.36	0.539
701.54	0.538
701.73	0.539
701.91	0.538
702.10	0.538
702.29	0.536
702.47	0.535
702.66	0.538
702.84	0.539
703.03	0.536
703.22	0.538
703.40	0.538
703.59	0.540
703.77	0.538
703.96	0.537
704.15	0.539
704.33	0.538
704.52	0.537
704.70	0.537
704.89	0.537
705.08	0.536
705.26	0.530
705.45	0.530
705.63	0.531
705.82	0.528
706.00	0.527
706.19	0.525
706.38	0.526
706.56	0.525
706.75	0.523
706.93	0.522
707.12	0.524
707.30	0.525
707.49	0.522
707.68	0.519
707.86	0.519
708.05	0.519
708.23	0.516
708.42	0.517
708.60	0.521
708.79	0.521
708.98	0.519
709.16	0.518
709.35	0.520
709.53	0.524
709.72	0.523
709.90	0.525
710.09	0.527
710.27	0.529
710.46	0.532
710.64	0.530
710.83	0.532
711.02	0.534
711.20	0.533
711.39	0.530
711.57	0.528
711.76	0.529
711.94	0.526
712.13	0.527
712.31	0.527
712.50	0.521
712.68	0.518
712.87	0.518
713.05	0.519
713.24	0.519
713.42	0.518
713.61	0.520
713.79	0.520
713.98	0.521
714.16	0.521
714.35	0.522
714.54	0.524
714.72	0.524
714.91	0.521
715.09	0.528
715.28	0.531
715.46	0.532
715.65	0.528
715.83	0.528
716.02	0.531
716.20	0.527
716.39	0.526
716.57	0.527
716.76	0.529
716.94	0.530
717.12	0.521
717.31	0.522
717.49	0.526
717.68	0.528
717.86	0.526
718.05	0.528
718.23	0.531
718.42	0.534
718.60	0.534
718.79	0.542
718.97	0.545
719.16	0.545
719.34	0.542
719.53	0.542
719.71	0.543
719.90	0.545
720.08	0.542
720.27	0.542
720.45	0.543
720.63	0.540
720.82	0.534
721.00	0.536
721.19	0.540
721.37	0.539
721.56	0.539
721.74	0.542
721.93	0.550
722.11	0.556
722.30	0.554
722.48	0.558
722.66	0.562
722.85	0.562
723.03	0.561
723.22	0.559
723.40	0.563
723.59	0.563
723.77	0.567
723.95	0.561
724.14	0.565
724.32	0.567
724.51	0.567
724.69	0.567
724.88	0.569
725.06	0.566
725.24	0.567
725.43	0.568
725.61	0.571
725.80	0.564
725.98	0.561
726.16	0.558
726.35	0.563
726.53	0.562
726.72	0.560
726.90	0.570
727.09	0.572
727.27	0.578
727.45	0.574
727.64	0.583
727.82	0.594
728.01	0.597
728.19	0.594
728.37	0.600
728.56	0.605
728.74	0.611
728.92	0.598
729.11	0.601
729.29	0.600
729.48	0.602
729.66	0.590
729.84	0.590
730.03	0.595
730.21	0.597
730.40	0.586
730.58	0.587
730.76	0.589
730.95	0.590
731.13	0.589
731.31	0.603
731.50	0.613
731.68	0.616
731.86	0.611
732.05	0.627
732.23	0.632
732.42	0.634
732.60	0.638
732.78	0.642
732.97	0.664
733.15	0.670
733.33	0.656
733.52	0.666
733.70	0.680
733.88	0.688
734.07	0.671
734.25	0.699
734.43	0.710
734.62	0.713
734.80	0.706
734.98	0.696
735.17	0.706
735.35	0.715
735.53	0.699
735.72	0.704
735.90	0.731
736.08	0.752
736.27	0.726
736.45	0.737
736.63	0.752
736.82	0.762
737.00	0.760
737.18	0.770
737.37	0.804
737.55	0.831
737.73	0.820
737.92	0.821
738.10	0.817
738.28	0.838
738.46	0.821
738.65	0.835
738.83	0.865
739.01	0.924
739.20	0.912
739.38	0.894
739.56	0.887
739.75	0.892
739.93	0.851
740.11	0.885
740.29	0.890
740.48	0.899
740.66	0.872
740.84	0.865
741.03	0.832
741.21	0.843
741.39	0.818
741.57	0.834
741.76	0.860
741.94	0.867
742.12	0.821
742.31	0.828
742.49	0.853
742.67	0.875
742.85	0.882
743.04	0.884
743.22	0.900
743.40	0.959
743.58	0.934
743.77	0.951
743.95	1.002
744.13	1.066
744.31	1.033
744.50	1.030
744.68	1.040
744.86	1.015
745.04	1.025
745.23	1.108
745.41	1.094
745.59	1.093
745.77	1.042
745.96	1.024
746.14	1.039
746.32	1.038
746.50	1.017
746.69	0.997
746.87	1.015
747.05	0.997
747.23	0.905
747.42	0.894
747.60	0.939
747.78	0.942
747.96	0.976
748.14	0.926
748.33	0.963
748.51	0.963
748.69	0.947
748.87	0.984
749.06	0.991
749.24	0.993
749.42	0.969
749.60	0.942
749.78	0.963
749.97	0.902
750.15	0.892
750.33	0.898
750.51	0.934
750.69	0.941
750.88	0.938
751.06	0.945
751.24	0.978
751.42	0.964
751.60	0.947
751.79	1.031
751.97	1.103
752.15	1.098
752.33	1.046
752.51	1.127
752.69	1.158
752.88	1.113
753.06	1.174
753.24	1.144
753.42	1.211
753.60	1.473
753.78	1.224
753.97	1.236
754.15	1.276
754.33	1.316
754.51	1.127
754.69	1.110
754.87	1.159
755.06	1.064
755.24	1.058
755.42	1.066
755.60	0.956
755.78	0.967
755.96	0.899
756.15	0.897
756.33	0.908
756.51	0.932
756.69	0.910
756.87	0.871
757.05	0.892
757.23	0.874
757.42	0.833
757.60	0.831
757.78	0.823
757.96	0.827
758.14	0.808
758.32	0.789
758.50	0.802
758.69	0.799
758.87	0.789
759.05	0.797
759.23	0.811
759.41	0.811
759.59	0.801
759.77	0.826
759.95	0.857
760.13	0.910
760.32	0.908
760.50	0.904
760.68	0.939
760.86	0.935
761.04	0.897
761.22	0.899
761.40	0.963
761.58	0.961
761.76	0.922
761.95	0.902
762.13	0.855
762.31	0.857
762.49	0.816
762.67	0.835
762.85	0.858
763.03	0.854
763.21	0.830
763.39	0.810
763.57	0.818
763.75	0.810
763.94	0.791
764.12	0.791
764.30	0.816
764.48	0.825
764.66	0.782
764.84	0.778
765.02	0.823
765.20	0.831
765.38	0.802
765.56	0.807
765.74	0.858
765.92	0.859
766.10	0.867
766.28	0.863
766.46	0.899
766.65	0.901
766.83	0.883
767.01	0.863
767.19	0.874
767.37	0.876
767.55	0.856
767.73	0.835
767.91	0.842
768.09	0.828
768.27	0.812
768.45	0.799
768.63	0.804
768.81	0.804
768.99	0.774
769.17	0.799
769.35	0.817
769.53	0.815
769.71	0.790
769.89	0.801
770.07	0.813
770.25	0.794
770.43	0.765
770.61	0.796
770.79	0.808
770.97	0.820
771.15	0.785
771.33	0.788
771.51	0.793
771.69	0.805
771.87	0.811
772.05	0.816
772.24	0.831
772.42	0.843
772.60	0.812
772.78	0.880
772.96	0.919
773.14	0.915
773.32	0.884
773.49	0.895
773.67	0.895
773.85	0.868
774.03	0.847
774.21	0.885
774.39	0.906
774.57	0.936
774.75	0.846
774.93	0.840
775.11	0.868
775.29	0.874
775.47	0.875
775.65	0.887
775.83	0.915
776.01	0.941
776.19	0.879
776.37	0.881
776.55	0.879
776.73	0.876
776.91	0.865
777.09	0.847
777.27	0.855
777.45	0.837
777.63	0.813
777.81	0.807
777.99	0.799
778.17	0.797
778.35	0.767
778.53	0.757
778.71	0.766
778.89	0.751
779.07	0.737
779.24	0.741
779.42	0.747
779.60	0.767
779.78	0.761
779.96	0.765
780.14	0.776
780.32	0.801
780.50	0.780
780.68	0.781
780.86	0.776
781.04	0.793
781.22	0.792
781.40	0.803
781.58	0.794
781.75	0.785
781.93	0.764
782.11	0.764
782.29	0.750
782.47	0.747
782.65	0.733
782.83	0.764
783.01	0.760
783.19	0.755
783.37	0.738
783.55	0.740
783.72	0.762
783.90	0.774
784.08	0.763
784.26	0.776
784.44	0.801
784.62	0.800
784.80	0.761
784.98	0.766
785.16	0.773
785.33	0.789
785.51	0.770
785.69	0.757
785.87	0.758
786.05	0.767
786.23	0.760
786.41	0.758
786.59	0.768
786.77	0.766
786.94	0.749
787.12	0.753
787.30	0.754
787.48	0.751
787.66	0.734
787.84	0.735
788.02	0.728
788.19	0.726
788.37	0.709
788.55	0.711
788.73	0.714
788.91	0.705
789.09	0.685
789.27	0.674
789.44	0.688
789.62	0.696
789.80	0.704
789.98	0.730
790.16	0.718
790.34	0.713
790.51	0.696
790.69	0.717
790.87	0.729
791.05	0.727
791.23	0.719
791.41	0.720
791.58	0.728
791.76	0.705
791.94	0.669
792.12	0.679
792.30	0.684
792.48	0.685
792.65	0.676
792.83	0.683
793.01	0.695
793.19	0.693
793.37	0.675
793.54	0.672
793.72	0.685
793.90	0.685
794.08	0.670
794.26	0.672
794.43	0.682
794.61	0.664
794.79	0.650
794.97	0.647
795.15	0.653
795.32	0.657
795.50	0.645
795.68	0.640
795.86	0.647
796.04	0.649
796.21	0.641
796.39	0.639
796.57	0.657
796.75	0.665
796.92	0.664
797.10	0.670
797.28	0.675
797.46	0.679
797.64	0.678
797.81	0.686
797.99	0.691
798.17	0.697
798.35	0.690
798.52	0.693
798.70	0.693
798.88	0.704
799.06	0.701
799.23	0.702
799.41	0.713
799.59	0.706
799.77	0.691
799.94	0.703
800.12	0.714
800.30	0.732
800.48	0.727
800.65	0.723
800.83	0.714
801.01	0.704
801.19	0.703
801.36	0.698
801.54	0.704
801.72	0.715
801.90	0.698
802.07	0.694
802.25	0.680
802.43	0.664
802.60	0.659
802.78	0.666
802.96	0.675
803.14	0.668
803.31	0.664
803.49	0.663
803.67	0.660
803.84	0.664
804.02	0.652
804.20	0.656
804.38	0.665
804.55	0.662
804.73	0.645
804.91	0.644
805.08	0.659
805.26	0.656
805.44	0.718
805.61	0.724
805.79	0.727
805.97	0.727
806.15	0.715
806.32	0.710
806.50	0.720
806.68	0.719
806.85	0.708
807.03	0.697
807.21	0.717
807.38	0.649
807.56	0.636
807.74	0.645
807.91	0.653
808.09	0.655
808.27	0.672
808.44	0.699
808.62	0.713
808.80	0.716
808.97	0.710
809.15	0.703
809.33	0.724
809.50	0.730
809.68	0.711
809.86	0.721
810.03	0.758
810.21	0.737
810.39	0.716
810.56	0.722
810.74	0.751
810.91	0.833
811.09	0.818
811.27	0.842
811.44	0.853
811.62	0.855
811.80	0.832
811.97	0.799
812.15	0.799
812.33	0.791
812.50	0.773
812.68	0.760
812.85	0.702
813.03	0.705
813.21	0.670
813.38	0.663
813.56	0.669
813.74	0.681
813.91	0.686
814.09	0.720
814.26	0.716
814.44	0.719
814.62	0.704
814.79	0.706
814.97	0.716
815.14	0.720
815.32	0.722
815.50	0.743
815.67	0.748
815.85	0.739
816.02	0.724
816.20	0.732
816.38	0.751
816.55	0.759
816.73	0.756
816.90	0.768
817.08	0.803
817.26	0.812
817.43	0.784
817.61	0.806
817.78	0.833
817.96	0.811
818.13	0.797
818.31	0.799
818.49	0.819
818.66	0.808
818.84	0.783
819.01	0.760
819.19	0.771
819.36	0.771
819.54	0.738
819.71	0.784
819.89	0.803
820.07	0.816
820.24	0.806
820.42	0.806
820.59	0.828
820.77	0.858
820.94	0.846
821.12	0.866
821.29	0.890
821.47	0.891
821.64	0.812
821.82	0.828
822.00	0.831
822.17	0.828
822.35	0.817
822.52	0.824
822.70	0.815
822.87	0.825
823.05	0.799
823.22	0.811
823.40	0.846
823.57	0.877
823.75	0.849
823.92	0.877
824.10	0.903
824.27	0.950
824.45	0.934
824.62	1.013
824.80	1.043
824.97	1.062
825.15	1.045
825.32	1.067
825.50	1.072
825.67	1.092
825.85	1.061
826.02	1.094
826.20	1.134
826.37	1.323
826.55	1.188
826.72	1.542
826.90	1.792
827.07	2.038
827.25	1.788
827.42	-0.000
827.60	-0.000
827.77	-0.000
827.95	-0.000
828.12	-0.000
828.30	-0.000
828.47	-0.000
828.65	1.964
828.82	2.805
829.00	-0.000
829.17	-0.000
829.34	-0.000
829.52	-0.000
829.69	-0.000
829.87	-0.000
830.04	-0.000
830.22	-0.000
830.39	-0.000
830.57	-0.000
830.74	-0.000
830.92	-0.000
831.09	-0.000
831.26	-0.000
831.44	-0.000
831.61	-0.000
831.79	-0.000
831.96	-0.000
832.14	-0.000
832.31	-0.000
832.49	-0.000
832.66	-0.000
832.83	-0.000
833.01	-0.000
833.18	-0.000
833.36	-0.000
833.53	-0.000
833.70	-0.000
833.88	-0.000
834.05	-0.000
834.23	-0.000
834.40	-0.000
834.58	-0.000
834.75	-0.000
834.92	-0.000
835.10	-0.000
835.27	-0.000
835.45	-0.000
835.62	-0.000
835.79	-0.000
835.97	-0.000
836.14	-0.000
836.32	-0.000
836.49	-0.000
836.66	-0.000
836.84	-0.000
837.01	-0.000
837.18	-0.000
837.36	-0.000
837.53	-0.000
837.71	-0.000
837.88	-0.000
838.05	-0.000
838.23	-0.000
838.40	-0.000
838.58	-0.000
838.75	-0.000
838.92	-0.000
839.10	-0.000
839.27	-0.000
839.44	-0.000
839.62	-0.000
839.79	-0.000
839.96	-0.000
840.14	-0.000
840.31	-0.000
840.48	-0.000
840.66	-0.000
840.83	-0.000
841.01	-0.000
841.18	-0.000
841.35	-0.000
841.53	-0.000
841.70	-0.000
841.87	-0.000
842.05	-0.000
842.22	-0.000
842.39	-0.000
842.57	-0.000
842.74	-0.000
842.91	-0.000
843.09	-0.000
843.26	-0.000
843.43	-0.000
843.60	-0.000
843.78	-0.000
843.95	-0.000
844.12	-0.000
844.30	-0.000
844.47	-0.000
844.64	-0.000
844.82	-0.000
844.99	-0.000
845.16	-0.000
845.34	-0.000
845.51	-0.000
845.68	-0.000
845.85	-0.000
846.03	-0.000
846.20	-0.000
846.37	-0.000
846.55	-0.000
846.72	-0.000
846.89	-0.000
847.06	-0.000
847.24	-0.000
847.41	-0.000
847.58	-0.000
847.76	-0.000
847.93	-0.000
848.10	-0.000
848.27	-0.000
848.45	-0.000
848.62	-0.000
848.79	-0.000
848.97	-0.000
849.14	-0.000
849.31	-0.000
849.48	-0.000
849.66	-0.000
849.83	-0.000
850.00	-0.000
850.17	-0.000
850.35	-0.000
850.52	-0.000
850.69	-0.000
850.86	-0.000
851.04	-0.000
851.21	-0.000
851.38	-0.000
851.55	-0.000
851.72	-0.000
851.90	-0.000
852.07	-0.000
852.24	-0.000
852.41	-0.000
852.59	-0.000
852.76	-0.000
852.93	-0.000
853.10	-0.000
853.28	-0.000
853.45	-0.000
853.62	-0.000
853.79	-0.000
853.96	-0.000
854.14	-0.000
854.31	-0.000
854.48	-0.000
854.65	-0.000
854.82	-0.000
855.00	-0.000
855.17	-0.000
855.34	-0.000
855.51	-0.000
855.68	-0.000
855.86	-0.000
856.03	-0.000
856.20	-0.000
856.37	-0.000
856.54	-0.000
856.72	-0.000
856.89	-0.000
857.06	-0.000
857.23	-0.000
857.40	-0.000
857.57	-0.000
857.75	-0.000
857.92	-0.000
858.09	-0.000
858.26	-0.000
858.43	-0.000
858.60	-0.000
858.78	-0.000
858.95	-0.000
859.12	-0.000
859.29	-0.000
859.46	-0.000
859.63	-0.000
859.81	-0.000
859.98	-0.000
860.15	-0.000
860.32	-0.000
860.49	-0.000
860.66	-0.000
860.83	-0.000
861.01	-0.000
861.18	-0.000
861.35	-0.000
861.52	-0.000
861.69	-0.000
861.86	-0.000
862.03	-0.000
862.21	-0.000
862.38	-0.000
862.55	-0.000
862.72	-0.000
862.89	-0.000
863.06	-0.000
863.23	-0.000
863.40	-0.000
863.58	-0.000
863.75	-0.000
863.92	-0.000
864.09	-0.000
864.26	-0.000
864.43	-0.000
864.60	-0.000
864.77	-0.000
864.94	-0.000
865.11	-0.000
865.29	-0.000
865.46	-0.000
865.63	-0.000
865.80	-0.000
865.97	-0.000
866.14	-0.000
866.31	-0.000
866.48	-0.000
866.65	-0.000
866.82	-0.000
866.99	-0.000
867.16	-0.000
867.34	-0.000
867.51	-0.000
867.68	-0.000
867.85	-0.000
868.02	-0.000
868.19	-0.000
868.36	-0.000
868.53	-0.000
868.70	-0.000
868.87	-0.000
869.04	-0.000
869.21	-0.000
869.38	-0.000
869.55	-0.000
869.72	-0.000
869.89	-0.000
870.06	-0.000
870.24	-0.000
870.41	-0.000
870.58	-0.000
870.75	-0.000
870.92	-0.000
871.09	-0.000
871.26	-0.000
871.43	-0.000
871.60	-0.000
871.77	-0.000
871.94	-0.000
872.11	-0.000
872.28	-0.000
872.45	-0.000
872.62	-0.000
872.79	-0.000
872.96	-0.000
873.13	-0.000
873.30	-0.000
873.47	-0.000
873.64	-0.000
873.81	-0.000
873.98	-0.000
874.15	-0.000
874.32	-0.000
874.49	-0.000
874.66	-0.000
874.83	-0.000
875.00	-0.000
875.17	-0.000
875.34	-0.000
875.51	-0.000
875.68	-0.000
875.85	-0.000
876.02	-0.000
876.19	-0.000
876.36	-0.000
876.53	-0.000
876.70	-0.000
876.87	-0.000
877.04	-0.000
877.21	-0.000
877.38	-0.000
877.55	-0.000
877.72	-0.000
877.89	-0.000
878.06	-0.000
878.23	-0.000
878.39	-0.000
878.56	-0.000
878.73	-0.000
878.90	-0.000
879.07	-0.000
879.24	-0.000
879.41	-0.000
879.58	-0.000
879.75	-0.000
879.92	-0.000
880.09	-0.000
880.26	-0.000
880.43	-0.000
880.60	-0.000
880.77	-0.000
880.94	-0.000
881.11	-0.000
881.27	-0.000
881.44	-0.000
881.61	-0.000
881.78	-0.000
881.95	-0.000
882.12	-0.000
882.29	-0.000
882.46	-0.000
882.63	-0.000
882.80	-0.000
882.97	-0.000
883.14	-0.000
883.30	-0.000
883.47	-0.000
883.64	-0.000
883.81	-0.000
883.98	-0.000
884.15	-0.000
884.32	-0.000
884.49	-0.000
884.66	-0.000
884.82	-0.000
884.99	-0.000
885.16	-0.000
885.33	-0.000
885.50	-0.000
885.67	-0.000
885.84	-0.000
886.01	-0.000
886.17	-0.000
886.34	-0.000
886.51	-0.000
886.68	-0.000
886.85	-0.000
887.02	-0.000
887.19	-0.000
887.36	-0.000
887.52	-0.000
887.69	-0.000
887.86	-0.000
888.03	-0.000
888.20	-0.000
888.37	-0.000
888.54	-0.000
888.70	-0.000
888.87	-0.000
889.04	-0.000
889.21	-0.000
889.38	-0.000
889.55	-0.000
889.71	-0.000
889.88	-0.000
890.05	-0.000
890.22	-0.000
890.39	-0.000
>>>>>End Processed Spectral Data<<<<<
