SpectraSuite Data File
++++++++++++++++++++++++++++++++++++
Date: Fri Jun 19 14:55:08 CEST 2015
User: introlabs
Dark Spectrum Present: Yes
Reference Spectrum Present: Yes
Number of Sampled Component Spectra: 1
Spectrometers: USB4H08886
Integration Time (usec): 745692 (USB4H08886)
Spectra Averaged: 5 (USB4H08886)
Boxcar Smoothing: 5 (USB4H08886)
Correct for Electrical Dark: Yes (USB4H08886)
Strobe/Lamp Enabled: No (USB4H08886)
Correct for Detector Non-linearity: Yes (USB4H08886)
Correct for Stray Light: Yes (USB4H08886)
Number of Pixels in Processed Spectrum: 3648
>>>>>Begin Processed Spectral Data<<<<<
178.14	-0.000
178.36	-0.000
178.57	-0.000
178.79	-0.000
179.01	-0.000
179.22	-0.000
179.44	-0.000
179.65	-0.000
179.87	-0.000
180.08	-0.000
180.30	-0.000
180.52	-0.000
180.73	-0.000
180.95	-0.000
181.16	-0.000
181.38	-0.000
181.59	-0.000
181.81	-0.000
182.03	-0.000
182.24	-0.000
182.46	-0.000
182.67	-0.000
182.89	-0.000
183.10	-0.000
183.32	-0.000
183.54	-0.000
183.75	-0.000
183.97	-0.000
184.18	-0.000
184.40	-0.000
184.61	-0.000
184.83	-0.000
185.04	-0.000
185.26	-0.000
185.48	-0.000
185.69	-0.000
185.91	-0.000
186.12	-0.000
186.34	-0.000
186.55	-0.000
186.77	-0.000
186.98	-0.000
187.20	-0.000
187.42	-0.000
187.63	-0.000
187.85	-0.000
188.06	-0.000
188.28	-0.000
188.49	-0.000
188.71	-0.000
188.92	-0.000
189.14	-0.000
189.36	-0.000
189.57	-0.000
189.79	-0.000
190.00	-0.000
190.22	-0.000
190.43	-0.000
190.65	-0.000
190.86	-0.000
191.08	-0.000
191.29	-0.000
191.51	-0.000
191.72	-0.000
191.94	-0.000
192.16	-0.000
192.37	-0.000
192.59	-0.000
192.80	-0.000
193.02	-0.000
193.23	-0.000
193.45	-0.000
193.66	-0.000
193.88	-0.000
194.09	-0.000
194.31	-0.000
194.52	-0.000
194.74	-0.000
194.95	-0.000
195.17	-0.000
195.38	-0.000
195.60	-0.000
195.81	-0.000
196.03	-0.000
196.25	-0.000
196.46	-0.000
196.68	-0.000
196.89	-0.000
197.11	-0.000
197.32	-0.000
197.54	-0.000
197.75	-0.000
197.97	-0.000
198.18	-0.000
198.40	-0.000
198.61	-0.000
198.83	-0.000
199.04	-0.000
199.26	-0.000
199.47	-0.000
199.69	-0.000
199.90	-0.000
200.12	-0.000
200.33	-0.000
200.55	-0.000
200.76	-0.000
200.98	-0.000
201.19	-0.000
201.41	-0.000
201.62	-0.000
201.84	-0.000
202.05	-0.000
202.27	-0.000
202.48	-0.000
202.70	-0.000
202.91	-0.000
203.13	-0.000
203.34	-0.000
203.56	-0.000
203.77	-0.000
203.99	-0.000
204.20	-0.000
204.42	-0.000
204.63	-0.000
204.85	-0.000
205.06	-0.000
205.28	-0.000
205.49	-0.000
205.71	-0.000
205.92	-0.000
206.14	-0.000
206.35	-0.000
206.56	-0.000
206.78	-0.000
206.99	-0.000
207.21	-0.000
207.42	-0.000
207.64	-0.000
207.85	-0.000
208.07	-0.000
208.28	-0.000
208.50	-0.000
208.71	-0.000
208.93	-0.000
209.14	-0.000
209.36	-0.000
209.57	-0.000
209.79	-0.000
210.00	-0.000
210.22	-0.000
210.43	-0.000
210.64	-0.000
210.86	-0.000
211.07	-0.000
211.29	-0.000
211.50	-0.000
211.72	-0.000
211.93	-0.000
212.15	-0.000
212.36	-0.000
212.58	-0.000
212.79	-0.000
213.01	-0.000
213.22	-0.000
213.43	-0.000
213.65	-0.000
213.86	-0.000
214.08	-0.000
214.29	-0.000
214.51	-0.000
214.72	-0.000
214.94	-0.000
215.15	-0.000
215.36	-0.000
215.58	-0.000
215.79	-0.000
216.01	-0.000
216.22	-0.000
216.44	-0.000
216.65	-0.000
216.87	-0.000
217.08	-0.000
217.29	-0.000
217.51	-0.000
217.72	-0.000
217.94	-0.000
218.15	-0.000
218.37	-0.000
218.58	-0.000
218.80	-0.000
219.01	-0.000
219.22	-0.000
219.44	-0.000
219.65	-0.000
219.87	-0.000
220.08	-0.000
220.30	-0.000
220.51	-0.000
220.72	-0.000
220.94	-0.000
221.15	-0.000
221.37	-0.000
221.58	-0.000
221.79	-0.000
222.01	-0.000
222.22	-0.000
222.44	-0.000
222.65	-0.000
222.87	-0.000
223.08	-0.000
223.29	-0.000
223.51	-0.000
223.72	-0.000
223.94	-0.000
224.15	-0.000
224.36	-0.000
224.58	-0.000
224.79	-0.000
225.01	-0.000
225.22	-0.000
225.44	-0.000
225.65	-0.000
225.86	-0.000
226.08	-0.000
226.29	-0.000
226.51	-0.000
226.72	-0.000
226.93	-0.000
227.15	-0.000
227.36	-0.000
227.58	-0.000
227.79	-0.000
228.00	-0.000
228.22	-0.000
228.43	-0.000
228.65	-0.000
228.86	-0.000
229.07	-0.000
229.29	-0.000
229.50	-0.000
229.72	-0.000
229.93	-0.000
230.14	-0.000
230.36	-0.000
230.57	-0.000
230.78	-0.000
231.00	-0.000
231.21	-0.000
231.43	-0.000
231.64	-0.000
231.85	-0.000
232.07	-0.000
232.28	-0.000
232.50	-0.000
232.71	-0.000
232.92	-0.000
233.14	-0.000
233.35	-0.000
233.56	-0.000
233.78	-0.000
233.99	-0.000
234.21	-0.000
234.42	-0.000
234.63	-0.000
234.85	-0.000
235.06	-0.000
235.27	-0.000
235.49	-0.000
235.70	-0.000
235.91	-0.000
236.13	-0.000
236.34	-0.000
236.56	-0.000
236.77	-0.000
236.98	-0.000
237.20	-0.000
237.41	-0.000
237.62	-0.000
237.84	-0.000
238.05	-0.000
238.26	-0.000
238.48	-0.000
238.69	-0.000
238.91	-0.000
239.12	-0.000
239.33	-0.000
239.55	-0.000
239.76	-0.000
239.97	-0.000
240.19	-0.000
240.40	-0.000
240.61	-0.000
240.83	-0.000
241.04	-0.000
241.25	-0.000
241.47	-0.000
241.68	-0.000
241.89	-0.000
242.11	-0.000
242.32	-0.000
242.53	-0.000
242.75	-0.000
242.96	-0.000
243.17	-0.000
243.39	-0.000
243.60	-0.000
243.81	-0.000
244.03	-0.000
244.24	-0.000
244.45	-0.000
244.67	-0.000
244.88	-0.000
245.09	-0.000
245.31	-0.000
245.52	-0.000
245.73	-0.000
245.95	-0.000
246.16	-0.000
246.37	-0.000
246.59	-0.000
246.80	-0.000
247.01	-0.000
247.23	-0.000
247.44	-0.000
247.65	-0.000
247.87	-0.000
248.08	-0.000
248.29	-0.000
248.51	-0.000
248.72	-0.000
248.93	-0.000
249.15	-0.000
249.36	-0.000
249.57	-0.000
249.78	-0.000
250.00	-0.000
250.21	-0.000
250.42	-0.000
250.64	-0.000
250.85	-0.000
251.06	-0.000
251.28	-0.000
251.49	-0.000
251.70	-0.000
251.92	-0.000
252.13	-0.000
252.34	-0.000
252.55	-0.000
252.77	-0.000
252.98	-0.000
253.19	-0.000
253.41	-0.000
253.62	-0.000
253.83	-0.000
254.05	-0.000
254.26	-0.000
254.47	-0.000
254.68	-0.000
254.90	-0.000
255.11	-0.000
255.32	-0.000
255.54	-0.000
255.75	-0.000
255.96	-0.000
256.17	-0.000
256.39	-0.000
256.60	-0.000
256.81	-0.000
257.03	-0.000
257.24	-0.000
257.45	-0.000
257.66	-0.000
257.88	-0.000
258.09	-0.000
258.30	-0.000
258.51	-0.000
258.73	-0.000
258.94	-0.000
259.15	-0.000
259.37	-0.000
259.58	-0.000
259.79	-0.000
260.00	-0.000
260.22	-0.000
260.43	-0.000
260.64	-0.000
260.85	-0.000
261.07	-0.000
261.28	-0.000
261.49	-0.000
261.71	-0.000
261.92	-0.000
262.13	-0.000
262.34	-0.000
262.56	-0.000
262.77	-0.000
262.98	-0.000
263.19	-0.000
263.41	-0.000
263.62	-0.000
263.83	-0.000
264.04	-0.000
264.26	-0.000
264.47	-0.000
264.68	-0.000
264.89	-0.000
265.11	-0.000
265.32	-0.000
265.53	-0.000
265.74	-0.000
265.96	-0.000
266.17	-0.000
266.38	-0.000
266.59	-0.000
266.81	-0.000
267.02	-0.000
267.23	-0.000
267.44	-0.000
267.65	-0.000
267.87	-0.000
268.08	-0.000
268.29	-0.000
268.50	-0.000
268.72	-0.000
268.93	-0.000
269.14	-0.000
269.35	-0.000
269.57	-0.000
269.78	-0.000
269.99	-0.000
270.20	-0.000
270.41	-0.000
270.63	-0.000
270.84	-0.000
271.05	-0.000
271.26	-0.000
271.48	-0.000
271.69	-0.000
271.90	-0.000
272.11	-0.000
272.32	-0.000
272.54	-0.000
272.75	-0.000
272.96	-0.000
273.17	-0.000
273.39	-0.000
273.60	-0.000
273.81	-0.000
274.02	-0.000
274.23	-0.000
274.45	-0.000
274.66	-0.000
274.87	-0.000
275.08	-0.000
275.29	-0.000
275.51	-0.000
275.72	-0.000
275.93	-0.000
276.14	-0.000
276.35	-0.000
276.57	-0.000
276.78	-0.000
276.99	-0.000
277.20	-0.000
277.41	-0.000
277.63	-0.000
277.84	-0.000
278.05	-0.000
278.26	-0.000
278.47	-0.000
278.69	-0.000
278.90	-0.000
279.11	-0.000
279.32	-0.000
279.53	-0.000
279.74	-0.000
279.96	-0.000
280.17	-0.000
280.38	-0.000
280.59	-0.000
280.80	-0.000
281.02	-0.000
281.23	-0.000
281.44	-0.000
281.65	-0.000
281.86	-0.000
282.07	-0.000
282.29	-0.000
282.50	-0.000
282.71	-0.000
282.92	-0.000
283.13	-0.000
283.35	-0.000
283.56	-0.000
283.77	-0.000
283.98	-0.000
284.19	-0.000
284.40	-0.000
284.62	-0.000
284.83	-0.000
285.04	-0.000
285.25	-0.000
285.46	-0.000
285.67	-0.000
285.88	-0.000
286.10	-0.000
286.31	-0.000
286.52	-0.000
286.73	-0.000
286.94	-0.000
287.15	-0.000
287.37	-0.000
287.58	-0.000
287.79	-0.000
288.00	-0.000
288.21	-0.000
288.42	-0.000
288.63	-0.000
288.85	-0.000
289.06	-0.000
289.27	-0.000
289.48	-0.000
289.69	-0.000
289.90	-0.000
290.11	-0.000
290.33	-0.000
290.54	-0.000
290.75	-0.000
290.96	-0.000
291.17	-0.000
291.38	-0.000
291.59	-0.000
291.81	-0.000
292.02	-0.000
292.23	-0.000
292.44	-0.000
292.65	-0.000
292.86	-0.000
293.07	-0.000
293.28	-0.000
293.50	-0.000
293.71	-0.000
293.92	-0.000
294.13	-0.000
294.34	-0.000
294.55	-0.000
294.76	-0.000
294.97	-0.000
295.19	-0.000
295.40	-0.000
295.61	-0.000
295.82	-0.000
296.03	-0.000
296.24	-0.000
296.45	2.575
296.66	1.915
296.87	1.952
297.09	2.071
297.30	2.510
297.51	1.836
297.72	1.796
297.93	1.907
298.14	1.862
298.35	1.786
298.56	1.770
298.77	1.934
298.99	1.890
299.20	1.850
299.41	1.816
299.62	1.756
299.83	1.742
300.04	1.676
300.25	1.665
300.46	1.715
300.67	1.675
300.88	1.618
301.10	1.624
301.31	1.713
301.52	1.640
301.73	1.570
301.94	1.568
302.15	1.589
302.36	1.534
302.57	1.464
302.78	1.471
302.99	1.525
303.20	1.551
303.41	1.446
303.63	1.425
303.84	1.432
304.05	1.427
304.26	1.363
304.47	1.367
304.68	1.366
304.89	1.356
305.10	1.315
305.31	1.298
305.52	1.342
305.73	1.336
305.94	1.297
306.15	1.285
306.37	1.313
306.58	1.321
306.79	1.289
307.00	1.316
307.21	1.360
307.42	1.350
307.63	1.312
307.84	1.275
308.05	1.313
308.26	1.314
308.47	1.296
308.68	1.289
308.89	1.289
309.10	1.287
309.31	1.245
309.52	1.235
309.73	1.251
309.95	1.247
310.16	1.217
310.37	1.207
310.58	1.226
310.79	1.223
311.00	1.219
311.21	1.226
311.42	1.228
311.63	1.224
311.84	1.204
312.05	1.200
312.26	1.222
312.47	1.234
312.68	1.207
312.89	1.187
313.10	1.191
313.31	1.163
313.52	1.162
313.73	1.161
313.94	1.164
314.15	1.147
314.36	1.128
314.57	1.121
314.78	1.108
314.99	1.104
315.21	1.092
315.42	1.098
315.63	1.111
315.84	1.091
316.05	1.076
316.26	1.083
316.47	1.102
316.68	1.098
316.89	1.079
317.10	1.099
317.31	1.104
317.52	1.105
317.73	1.085
317.94	1.081
318.15	1.122
318.36	1.122
318.57	1.105
318.78	1.091
318.99	1.123
319.20	1.120
319.41	1.087
319.62	1.089
319.83	1.104
320.04	1.099
320.25	1.089
320.46	1.055
320.67	1.059
320.88	1.054
321.09	1.041
321.30	1.028
321.51	1.044
321.72	1.042
321.93	1.025
322.14	1.018
322.35	1.045
322.56	1.047
322.77	1.035
322.98	1.046
323.19	1.055
323.40	1.063
323.61	1.039
323.82	1.034
324.03	1.039
324.24	1.038
324.45	1.024
324.66	1.004
324.87	1.000
325.08	0.998
325.29	0.979
325.50	0.977
325.71	0.980
325.92	0.988
326.13	0.974
326.34	0.973
326.55	0.979
326.76	0.978
326.97	0.966
327.18	0.961
327.39	0.988
327.60	0.988
327.80	0.983
328.01	0.981
328.22	0.981
328.43	0.985
328.64	0.974
328.85	0.978
329.06	0.979
329.27	0.980
329.48	0.974
329.69	0.954
329.90	0.966
330.11	0.959
330.32	0.953
330.53	0.946
330.74	0.945
330.95	0.943
331.16	0.928
331.37	0.937
331.58	0.937
331.79	0.936
332.00	0.926
332.21	0.918
332.42	0.922
332.63	0.913
332.83	0.910
333.04	0.912
333.25	0.926
333.46	0.925
333.67	0.912
333.88	0.915
334.09	0.926
334.30	0.923
334.51	0.914
334.72	0.909
334.93	0.912
335.14	0.911
335.35	0.904
335.56	0.896
335.77	0.904
335.98	0.902
336.18	0.895
336.39	0.887
336.60	0.892
336.81	0.890
337.02	0.889
337.23	0.894
337.44	0.897
337.65	0.900
337.86	0.891
338.07	0.886
338.28	0.892
338.49	0.889
338.70	0.882
338.91	0.888
339.11	0.895
339.32	0.891
339.53	0.879
339.74	0.876
339.95	0.872
340.16	0.869
340.37	0.862
340.58	0.859
340.79	0.863
341.00	0.862
341.21	0.851
341.41	0.851
341.62	0.853
341.83	0.854
342.04	0.849
342.25	0.861
342.46	0.865
342.67	0.864
342.88	0.857
343.09	0.856
343.30	0.865
343.50	0.868
343.71	0.858
343.92	0.856
344.13	0.860
344.34	0.859
344.55	0.843
344.76	0.841
344.97	0.846
345.18	0.846
345.38	0.843
345.59	0.837
345.80	0.835
346.01	0.833
346.22	0.828
346.43	0.823
346.64	0.831
346.85	0.829
347.06	0.822
347.26	0.823
347.47	0.825
347.68	0.821
347.89	0.818
348.10	0.814
348.31	0.821
348.52	0.821
348.73	0.818
348.93	0.814
349.14	0.816
349.35	0.815
349.56	0.809
349.77	0.805
349.98	0.810
350.19	0.808
350.39	0.803
350.60	0.799
350.81	0.813
351.02	0.812
351.23	0.808
351.44	0.811
351.65	0.814
351.86	0.812
352.06	0.810
352.27	0.809
352.48	0.810
352.69	0.810
352.90	0.805
353.11	0.792
353.31	0.800
353.52	0.797
353.73	0.789
353.94	0.790
354.15	0.796
354.36	0.795
354.57	0.787
354.77	0.789
354.98	0.788
355.19	0.786
355.40	0.785
355.61	0.790
355.82	0.794
356.02	0.794
356.23	0.787
356.44	0.789
356.65	0.793
356.86	0.794
357.07	0.788
357.27	0.791
357.48	0.794
357.69	0.790
357.90	0.774
358.11	0.771
358.32	0.774
358.52	0.776
358.73	0.765
358.94	0.767
359.15	0.772
359.36	0.772
359.56	0.767
359.77	0.765
359.98	0.771
360.19	0.771
360.40	0.768
360.61	0.769
360.81	0.769
361.02	0.769
361.23	0.761
361.44	0.759
361.65	0.759
361.85	0.758
362.06	0.756
362.27	0.757
362.48	0.756
362.69	0.759
362.89	0.753
363.10	0.754
363.31	0.758
363.52	0.762
363.73	0.757
363.93	0.758
364.14	0.760
364.35	0.762
364.56	0.753
364.77	0.755
364.97	0.757
365.18	0.757
365.39	0.752
365.60	0.748
365.81	0.749
366.01	0.749
366.22	0.746
366.43	0.744
366.64	0.745
366.84	0.750
367.05	0.747
367.26	0.746
367.47	0.747
367.68	0.748
367.88	0.745
368.09	0.743
368.30	0.746
368.51	0.745
368.71	0.745
368.92	0.750
369.13	0.748
369.34	0.747
369.55	0.747
369.75	0.747
369.96	0.753
370.17	0.753
370.38	0.749
370.58	0.747
370.79	0.752
371.00	0.750
371.21	0.742
371.41	0.748
371.62	0.751
371.83	0.746
372.04	0.744
372.24	0.737
372.45	0.738
372.66	0.739
372.87	0.737
373.07	0.734
373.28	0.735
373.49	0.738
373.70	0.729
373.90	0.728
374.11	0.737
374.32	0.736
374.53	0.736
374.73	0.737
374.94	0.739
375.15	0.739
375.36	0.736
375.56	0.746
375.77	0.745
375.98	0.746
376.19	0.744
376.39	0.738
376.60	0.742
376.81	0.743
377.02	0.740
377.22	0.740
377.43	0.739
377.64	0.739
377.84	0.730
378.05	0.735
378.26	0.740
378.47	0.739
378.67	0.735
378.88	0.732
379.09	0.733
379.30	0.732
379.50	0.730
379.71	0.732
379.92	0.735
380.12	0.734
380.33	0.725
380.54	0.722
380.75	0.729
380.95	0.729
381.16	0.728
381.37	0.727
381.57	0.729
381.78	0.729
381.99	0.729
382.20	0.728
382.40	0.731
382.61	0.732
382.82	0.729
383.02	0.722
383.23	0.725
383.44	0.725
383.64	0.723
383.85	0.726
384.06	0.730
384.27	0.727
384.47	0.725
384.68	0.727
384.89	0.732
385.09	0.732
385.30	0.731
385.51	0.730
385.71	0.733
385.92	0.735
386.13	0.733
386.33	0.735
386.54	0.735
386.75	0.734
386.95	0.730
387.16	0.725
387.37	0.728
387.58	0.728
387.78	0.726
387.99	0.723
388.20	0.725
388.40	0.721
388.61	0.717
388.82	0.720
389.02	0.723
389.23	0.723
389.44	0.721
389.64	0.722
389.85	0.733
390.06	0.733
390.26	0.734
390.47	0.733
390.68	0.736
390.88	0.734
391.09	0.730
391.30	0.730
391.50	0.730
391.71	0.730
391.92	0.727
392.12	0.719
392.33	0.719
392.53	0.719
392.74	0.719
392.95	0.719
393.15	0.721
393.36	0.723
393.57	0.720
393.77	0.723
393.98	0.725
394.19	0.725
394.39	0.724
394.60	0.725
394.81	0.727
395.01	0.725
395.22	0.723
395.43	0.725
395.63	0.729
395.84	0.731
396.04	0.727
396.25	0.729
396.46	0.731
396.66	0.730
396.87	0.728
397.08	0.725
397.28	0.727
397.49	0.729
397.69	0.725
397.90	0.720
398.11	0.722
398.31	0.723
398.52	0.719
398.73	0.719
398.93	0.719
399.14	0.718
399.34	0.717
399.55	0.719
399.76	0.719
399.96	0.720
400.17	0.719
400.37	0.717
400.58	0.723
400.79	0.725
400.99	0.723
401.20	0.728
401.41	0.730
401.61	0.731
401.82	0.735
402.02	0.735
402.23	0.736
402.44	0.735
402.64	0.736
402.85	0.731
403.05	0.729
403.26	0.728
403.47	0.723
403.67	0.722
403.88	0.722
404.08	0.716
404.29	0.715
404.50	0.715
404.70	0.715
404.91	0.714
405.11	0.711
405.32	0.711
405.52	0.711
405.73	0.710
405.94	0.708
406.14	0.711
406.35	0.713
406.55	0.712
406.76	0.709
406.97	0.711
407.17	0.713
407.38	0.713
407.58	0.712
407.79	0.715
407.99	0.718
408.20	0.719
408.41	0.714
408.61	0.713
408.82	0.714
409.02	0.715
409.23	0.712
409.43	0.711
409.64	0.712
409.84	0.712
410.05	0.709
410.26	0.707
410.46	0.707
410.67	0.707
410.87	0.708
411.08	0.710
411.28	0.711
411.49	0.713
411.69	0.711
411.90	0.712
412.11	0.713
412.31	0.714
412.52	0.712
412.72	0.713
412.93	0.713
413.13	0.712
413.34	0.709
413.54	0.711
413.75	0.712
413.95	0.711
414.16	0.708
414.37	0.710
414.57	0.710
414.78	0.713
414.98	0.710
415.19	0.711
415.39	0.709
415.60	0.711
415.80	0.709
416.01	0.708
416.21	0.710
416.42	0.710
416.62	0.705
416.83	0.705
417.03	0.705
417.24	0.705
417.44	0.703
417.65	0.702
417.86	0.702
418.06	0.700
418.27	0.698
418.47	0.700
418.68	0.700
418.88	0.701
419.09	0.700
419.29	0.700
419.50	0.702
419.70	0.702
419.91	0.700
420.11	0.698
420.32	0.700
420.52	0.699
420.73	0.698
420.93	0.698
421.14	0.700
421.34	0.699
421.55	0.695
421.75	0.695
421.96	0.696
422.16	0.696
422.37	0.696
422.57	0.693
422.78	0.695
422.98	0.692
423.19	0.690
423.39	0.688
423.60	0.692
423.80	0.693
424.01	0.691
424.21	0.694
424.42	0.695
424.62	0.694
424.83	0.693
425.03	0.693
425.23	0.695
425.44	0.696
425.64	0.696
425.85	0.695
426.05	0.696
426.26	0.696
426.46	0.693
426.67	0.692
426.87	0.698
427.08	0.698
427.28	0.697
427.49	0.697
427.69	0.697
427.90	0.696
428.10	0.692
428.31	0.692
428.51	0.693
428.71	0.692
428.92	0.693
429.12	0.690
429.33	0.691
429.53	0.694
429.74	0.699
429.94	0.700
430.15	0.700
430.35	0.699
430.56	0.697
430.76	0.696
430.96	0.697
431.17	0.694
431.37	0.692
431.58	0.690
431.78	0.687
431.99	0.679
432.19	0.681
432.40	0.683
432.60	0.684
432.80	0.686
433.01	0.684
433.21	0.683
433.42	0.685
433.62	0.686
433.83	0.685
434.03	0.687
434.23	0.690
434.44	0.689
434.64	0.686
434.85	0.691
435.05	0.693
435.26	0.693
435.46	0.691
435.66	0.691
435.87	0.691
436.07	0.690
436.28	0.686
436.48	0.684
436.69	0.683
436.89	0.683
437.09	0.677
437.30	0.675
437.50	0.675
437.71	0.688
437.91	0.686
438.11	0.688
438.32	0.692
438.52	0.692
438.73	0.691
438.93	0.690
439.13	0.690
439.34	0.694
439.54	0.691
439.75	0.692
439.95	0.681
440.15	0.686
440.36	0.684
440.56	0.682
440.77	0.682
440.97	0.682
441.17	0.680
441.38	0.682
441.58	0.679
441.79	0.678
441.99	0.677
442.19	0.675
442.40	0.673
442.60	0.673
442.81	0.671
443.01	0.671
443.21	0.672
443.42	0.671
443.62	0.670
443.82	0.669
444.03	0.671
444.23	0.671
444.44	0.671
444.64	0.669
444.84	0.670
445.05	0.670
445.25	0.667
445.45	0.668
445.66	0.670
445.86	0.669
446.06	0.671
446.27	0.671
446.47	0.674
446.68	0.672
446.88	0.671
447.08	0.670
447.29	0.672
447.49	0.672
447.69	0.672
447.90	0.670
448.10	0.674
448.30	0.671
448.51	0.672
448.71	0.669
448.91	0.672
449.12	0.671
449.32	0.672
449.52	0.671
449.73	0.674
449.93	0.673
450.14	0.674
450.34	0.674
450.54	0.676
450.75	0.673
450.95	0.673
451.15	0.673
451.36	0.674
451.56	0.672
451.76	0.672
451.97	0.669
452.17	0.669
452.37	0.667
452.58	0.664
452.78	0.664
452.98	0.666
453.19	0.666
453.39	0.667
453.59	0.666
453.79	0.666
454.00	0.666
454.20	0.665
454.40	0.665
454.61	0.668
454.81	0.668
455.01	0.666
455.22	0.667
455.42	0.669
455.62	0.666
455.83	0.666
456.03	0.669
456.23	0.670
456.44	0.670
456.64	0.669
456.84	0.669
457.04	0.669
457.25	0.668
457.45	0.665
457.65	0.664
457.86	0.665
458.06	0.663
458.26	0.659
458.47	0.658
458.67	0.659
458.87	0.659
459.07	0.656
459.28	0.659
459.48	0.661
459.68	0.661
459.89	0.660
460.09	0.659
460.29	0.660
460.49	0.662
460.70	0.661
460.90	0.661
461.10	0.662
461.31	0.661
461.51	0.659
461.71	0.660
461.91	0.661
462.12	0.661
462.32	0.661
462.52	0.661
462.72	0.664
462.93	0.664
463.13	0.663
463.33	0.664
463.53	0.666
463.74	0.666
463.94	0.662
464.14	0.662
464.35	0.664
464.55	0.663
464.75	0.661
464.95	0.659
465.16	0.660
465.36	0.659
465.56	0.658
465.76	0.657
465.97	0.657
466.17	0.658
466.37	0.656
466.57	0.656
466.78	0.657
466.98	0.657
467.18	0.655
467.38	0.654
467.59	0.657
467.79	0.658
467.99	0.657
468.19	0.658
468.39	0.661
468.60	0.661
468.80	0.658
469.00	0.659
469.20	0.660
469.41	0.660
469.61	0.660
469.81	0.660
470.01	0.659
470.22	0.659
470.42	0.657
470.62	0.655
470.82	0.657
471.02	0.656
471.23	0.654
471.43	0.654
471.63	0.657
471.83	0.656
472.04	0.654
472.24	0.653
472.44	0.658
472.64	0.659
472.84	0.657
473.05	0.656
473.25	0.660
473.45	0.658
473.65	0.657
473.85	0.657
474.06	0.658
474.26	0.657
474.46	0.658
474.66	0.655
474.86	0.655
475.07	0.655
475.27	0.654
475.47	0.651
475.67	0.652
475.87	0.654
476.08	0.651
476.28	0.652
476.48	0.654
476.68	0.653
476.88	0.651
477.09	0.653
477.29	0.654
477.49	0.654
477.69	0.653
477.89	0.653
478.09	0.652
478.30	0.655
478.50	0.652
478.70	0.652
478.90	0.652
479.10	0.654
479.31	0.655
479.51	0.653
479.71	0.654
479.91	0.654
480.11	0.653
480.31	0.653
480.52	0.652
480.72	0.652
480.92	0.651
481.12	0.649
481.32	0.647
481.52	0.645
481.72	0.645
481.93	0.649
482.13	0.649
482.33	0.649
482.53	0.647
482.73	0.648
482.93	0.649
483.14	0.649
483.34	0.648
483.54	0.649
483.74	0.648
483.94	0.648
484.14	0.644
484.34	0.643
484.55	0.644
484.75	0.643
484.95	0.641
485.15	0.641
485.35	0.641
485.55	0.640
485.75	0.638
485.96	0.639
486.16	0.641
486.36	0.640
486.56	0.638
486.76	0.639
486.96	0.639
487.16	0.639
487.36	0.637
487.57	0.637
487.77	0.637
487.97	0.637
488.17	0.635
488.37	0.635
488.57	0.635
488.77	0.636
488.97	0.634
489.18	0.633
489.38	0.636
489.58	0.636
489.78	0.635
489.98	0.635
490.18	0.636
490.38	0.636
490.58	0.635
490.78	0.635
490.98	0.637
491.19	0.637
491.39	0.637
491.59	0.635
491.79	0.638
491.99	0.639
492.19	0.638
492.39	0.641
492.59	0.641
492.79	0.643
492.99	0.644
493.20	0.644
493.40	0.644
493.60	0.645
493.80	0.644
494.00	0.642
494.20	0.642
494.40	0.642
494.60	0.639
494.80	0.643
495.00	0.641
495.20	0.639
495.40	0.638
495.61	0.639
495.81	0.639
496.01	0.643
496.21	0.643
496.41	0.642
496.61	0.644
496.81	0.643
497.01	0.638
497.21	0.638
497.41	0.639
497.61	0.639
497.81	0.636
498.01	0.637
498.21	0.634
498.41	0.632
498.61	0.633
498.82	0.633
499.02	0.635
499.22	0.636
499.42	0.635
499.62	0.637
499.82	0.637
500.02	0.639
500.22	0.637
500.42	0.640
500.62	0.640
500.82	0.640
501.02	0.639
501.22	0.639
501.42	0.639
501.62	0.641
501.82	0.640
502.02	0.641
502.22	0.640
502.42	0.642
502.62	0.639
502.82	0.639
503.02	0.639
503.22	0.639
503.42	0.637
503.63	0.638
503.83	0.635
504.03	0.634
504.23	0.633
504.43	0.634
504.63	0.634
504.83	0.634
505.03	0.634
505.23	0.635
505.43	0.636
505.63	0.637
505.83	0.637
506.03	0.638
506.23	0.640
506.43	0.640
506.63	0.639
506.83	0.638
507.03	0.640
507.23	0.640
507.43	0.638
507.63	0.638
507.83	0.638
508.03	0.639
508.23	0.638
508.43	0.637
508.63	0.639
508.83	0.639
509.03	0.640
509.23	0.639
509.43	0.640
509.63	0.640
509.83	0.639
510.03	0.641
510.23	0.643
510.43	0.644
510.63	0.644
510.83	0.643
511.03	0.644
511.23	0.642
511.43	0.642
511.63	0.643
511.83	0.645
512.03	0.645
512.22	0.642
512.42	0.641
512.62	0.642
512.82	0.641
513.02	0.641
513.22	0.641
513.42	0.643
513.62	0.645
513.82	0.644
514.02	0.643
514.22	0.645
514.42	0.645
514.62	0.645
514.82	0.645
515.02	0.647
515.22	0.651
515.42	0.649
515.62	0.652
515.82	0.651
516.02	0.652
516.22	0.653
516.42	0.654
516.62	0.655
516.82	0.657
517.01	0.655
517.21	0.654
517.41	0.657
517.61	0.658
517.81	0.654
518.01	0.653
518.21	0.653
518.41	0.651
518.61	0.650
518.81	0.651
519.01	0.651
519.21	0.652
519.41	0.651
519.61	0.645
519.81	0.648
520.00	0.648
520.20	0.648
520.40	0.651
520.60	0.652
520.80	0.651
521.00	0.652
521.20	0.652
521.40	0.656
521.60	0.657
521.80	0.656
522.00	0.656
522.20	0.658
522.39	0.657
522.59	0.654
522.79	0.655
522.99	0.657
523.19	0.655
523.39	0.653
523.59	0.651
523.79	0.654
523.99	0.656
524.19	0.655
524.38	0.654
524.58	0.656
524.78	0.656
524.98	0.654
525.18	0.656
525.38	0.658
525.58	0.658
525.78	0.656
525.98	0.654
526.18	0.655
526.37	0.654
526.57	0.656
526.77	0.655
526.97	0.656
527.17	0.657
527.37	0.653
527.57	0.656
527.77	0.658
527.96	0.658
528.16	0.657
528.36	0.659
528.56	0.660
528.76	0.658
528.96	0.658
529.16	0.659
529.36	0.661
529.55	0.661
529.75	0.658
529.95	0.658
530.15	0.659
530.35	0.661
530.55	0.659
530.75	0.660
530.94	0.661
531.14	0.660
531.34	0.659
531.54	0.657
531.74	0.660
531.94	0.663
532.13	0.662
532.33	0.664
532.53	0.662
532.73	0.662
532.93	0.660
533.13	0.661
533.33	0.662
533.52	0.662
533.72	0.665
533.92	0.664
534.12	0.661
534.32	0.661
534.52	0.659
534.71	0.661
534.91	0.664
535.11	0.666
535.31	0.664
535.51	0.666
535.71	0.668
535.90	0.665
536.10	0.666
536.30	0.668
536.50	0.669
536.70	0.669
536.89	0.666
537.09	0.666
537.29	0.667
537.49	0.668
537.69	0.666
537.89	0.667
538.08	0.667
538.28	0.665
538.48	0.665
538.68	0.667
538.88	0.669
539.07	0.669
539.27	0.667
539.47	0.666
539.67	0.666
539.87	0.668
540.06	0.666
540.26	0.666
540.46	0.669
540.66	0.666
540.86	0.663
541.05	0.664
541.25	0.665
541.45	0.665
541.65	0.664
541.84	0.665
542.04	0.666
542.24	0.666
542.44	0.664
542.64	0.665
542.83	0.668
543.03	0.668
543.23	0.665
543.43	0.666
543.62	0.667
543.82	0.668
544.02	0.667
544.22	0.667
544.42	0.671
544.61	0.672
544.81	0.669
545.01	0.668
545.21	0.670
545.40	0.672
545.60	0.670
545.80	0.673
546.00	0.673
546.19	0.672
546.39	0.672
546.59	0.669
546.79	0.670
546.98	0.671
547.18	0.671
547.38	0.671
547.58	0.673
547.77	0.674
547.97	0.669
548.17	0.671
548.37	0.670
548.56	0.670
548.76	0.670
548.96	0.671
549.16	0.673
549.35	0.673
549.55	0.670
549.75	0.671
549.95	0.674
550.14	0.675
550.34	0.674
550.54	0.679
550.73	0.683
550.93	0.683
551.13	0.680
551.33	0.679
551.52	0.680
551.72	0.680
551.92	0.678
552.12	0.679
552.31	0.679
552.51	0.680
552.71	0.675
552.90	0.675
553.10	0.677
553.30	0.677
553.50	0.676
553.69	0.677
553.89	0.678
554.09	0.678
554.28	0.674
554.48	0.675
554.68	0.677
554.87	0.677
555.07	0.674
555.27	0.673
555.47	0.676
555.66	0.676
555.86	0.675
556.06	0.677
556.25	0.678
556.45	0.686
556.65	0.684
556.84	0.686
557.04	0.690
557.24	0.691
557.43	0.692
557.63	0.694
557.83	0.696
558.02	0.696
558.22	0.700
558.42	0.701
558.61	0.695
558.81	0.695
559.01	0.692
559.21	0.691
559.40	0.691
559.60	0.690
559.80	0.687
559.99	0.688
560.19	0.690
560.39	0.685
560.58	0.683
560.78	0.682
560.97	0.686
561.17	0.685
561.37	0.683
561.56	0.684
561.76	0.686
561.96	0.685
562.15	0.682
562.35	0.685
562.55	0.686
562.74	0.685
562.94	0.685
563.14	0.683
563.33	0.684
563.53	0.684
563.73	0.681
563.92	0.683
564.12	0.685
564.31	0.687
564.51	0.686
564.71	0.687
564.90	0.690
565.10	0.691
565.30	0.693
565.49	0.694
565.69	0.695
565.89	0.696
566.08	0.693
566.28	0.695
566.47	0.698
566.67	0.695
566.87	0.692
567.06	0.694
567.26	0.701
567.46	0.696
567.65	0.695
567.85	0.697
568.04	0.699
568.24	0.699
568.44	0.696
568.63	0.694
568.83	0.696
569.02	0.695
569.22	0.691
569.42	0.687
569.61	0.689
569.81	0.688
570.00	0.686
570.20	0.687
570.40	0.688
570.59	0.688
570.79	0.686
570.98	0.683
571.18	0.685
571.38	0.685
571.57	0.682
571.77	0.680
571.96	0.684
572.16	0.681
572.35	0.677
572.55	0.677
572.75	0.675
572.94	0.675
573.14	0.674
573.33	0.674
573.53	0.674
573.73	0.674
573.92	0.672
574.12	0.670
574.31	0.673
574.51	0.673
574.70	0.670
574.90	0.672
575.09	0.674
575.29	0.674
575.49	0.671
575.68	0.672
575.88	0.674
576.07	0.675
576.27	0.672
576.46	0.671
576.66	0.670
576.86	0.669
577.05	0.668
577.25	0.666
577.44	0.667
577.64	0.667
577.83	0.665
578.03	0.666
578.22	0.666
578.42	0.665
578.61	0.664
578.81	0.664
579.00	0.665
579.20	0.664
579.40	0.663
579.59	0.661
579.79	0.662
579.98	0.661
580.18	0.660
580.37	0.661
580.57	0.663
580.76	0.667
580.96	0.665
581.15	0.666
581.35	0.668
581.54	0.668
581.74	0.667
581.93	0.669
582.13	0.670
582.32	0.667
582.52	0.665
582.71	0.664
582.91	0.660
583.10	0.660
583.30	0.659
583.49	0.658
583.69	0.661
583.88	0.662
584.08	0.662
584.27	0.664
584.47	0.667
584.66	0.668
584.86	0.667
585.05	0.669
585.25	0.671
585.44	0.671
585.64	0.670
585.83	0.666
586.03	0.666
586.22	0.665
586.42	0.661
586.61	0.663
586.81	0.665
587.00	0.664
587.20	0.662
587.39	0.663
587.59	0.664
587.78	0.665
587.98	0.666
588.17	0.667
588.37	0.669
588.56	0.671
588.76	0.667
588.95	0.667
589.15	0.671
589.34	0.673
589.54	0.672
589.73	0.673
589.92	0.677
590.12	0.676
590.31	0.674
590.51	0.680
590.70	0.682
590.90	0.682
591.09	0.680
591.29	0.679
591.48	0.679
591.68	0.680
591.87	0.679
592.06	0.678
592.26	0.681
592.45	0.681
592.65	0.674
592.84	0.673
593.04	0.676
593.23	0.678
593.43	0.675
593.62	0.675
593.81	0.675
594.01	0.674
594.20	0.671
594.40	0.670
594.59	0.671
594.79	0.672
594.98	0.670
595.17	0.670
595.37	0.670
595.56	0.672
595.76	0.672
595.95	0.674
596.14	0.677
596.34	0.679
596.53	0.677
596.73	0.679
596.92	0.680
597.12	0.683
597.31	0.683
597.50	0.683
597.70	0.685
597.89	0.684
598.09	0.680
598.28	0.681
598.47	0.684
598.67	0.682
598.86	0.678
599.06	0.680
599.25	0.681
599.44	0.678
599.64	0.675
599.83	0.673
600.03	0.675
600.22	0.676
600.41	0.676
600.61	0.674
600.80	0.677
601.00	0.677
601.19	0.673
601.38	0.671
601.58	0.674
601.77	0.675
601.96	0.677
602.16	0.677
602.35	0.685
602.55	0.682
602.74	0.683
602.93	0.684
603.13	0.690
603.32	0.692
603.51	0.691
603.71	0.694
603.90	0.696
604.09	0.697
604.29	0.694
604.48	0.689
604.68	0.691
604.87	0.690
605.06	0.687
605.26	0.683
605.45	0.683
605.64	0.682
605.84	0.677
606.03	0.676
606.22	0.675
606.42	0.675
606.61	0.671
606.80	0.671
607.00	0.673
607.19	0.673
607.38	0.672
607.58	0.673
607.77	0.676
607.96	0.675
608.16	0.674
608.35	0.678
608.54	0.682
608.74	0.685
608.93	0.690
609.12	0.693
609.32	0.695
609.51	0.699
609.70	0.698
609.90	0.699
610.09	0.704
610.28	0.710
610.48	0.703
610.67	0.704
610.86	0.704
611.06	0.698
611.25	0.696
611.44	0.697
611.64	0.697
611.83	0.699
612.02	0.696
612.21	0.695
612.41	0.693
612.60	0.692
612.79	0.688
612.99	0.688
613.18	0.691
613.37	0.689
613.57	0.686
613.76	0.687
613.95	0.685
614.14	0.685
614.34	0.682
614.53	0.683
614.72	0.686
614.92	0.686
615.11	0.684
615.30	0.680
615.49	0.682
615.69	0.684
615.88	0.680
616.07	0.681
616.26	0.683
616.46	0.685
616.65	0.681
616.84	0.680
617.04	0.682
617.23	0.685
617.42	0.686
617.61	0.690
617.81	0.690
618.00	0.692
618.19	0.690
618.38	0.694
618.58	0.697
618.77	0.698
618.96	0.698
619.15	0.700
619.35	0.701
619.54	0.702
619.73	0.697
619.92	0.699
620.12	0.704
620.31	0.705
620.50	0.700
620.69	0.700
620.89	0.703
621.08	0.702
621.27	0.702
621.46	0.702
621.66	0.706
621.85	0.706
622.04	0.702
622.23	0.702
622.43	0.703
622.62	0.702
622.81	0.701
623.00	0.701
623.19	0.704
623.39	0.703
623.58	0.699
623.77	0.698
623.96	0.701
624.16	0.701
624.35	0.696
624.54	0.699
624.73	0.703
624.92	0.701
625.12	0.698
625.31	0.699
625.50	0.702
625.69	0.704
625.88	0.699
626.08	0.700
626.27	0.701
626.46	0.701
626.65	0.698
626.84	0.698
627.04	0.703
627.23	0.703
627.42	0.699
627.61	0.701
627.80	0.703
628.00	0.704
628.19	0.702
628.38	0.706
628.57	0.709
628.76	0.707
628.96	0.703
629.15	0.704
629.34	0.706
629.53	0.706
629.72	0.700
629.91	0.701
630.11	0.705
630.30	0.705
630.49	0.707
630.68	0.708
630.87	0.712
631.06	0.715
631.26	0.710
631.45	0.712
631.64	0.720
631.83	0.722
632.02	0.719
632.21	0.718
632.41	0.725
632.60	0.719
632.79	0.718
632.98	0.718
633.17	0.719
633.36	0.721
633.55	0.718
633.75	0.714
633.94	0.716
634.13	0.717
634.32	0.715
634.51	0.708
634.70	0.711
634.89	0.711
635.09	0.707
635.28	0.707
635.47	0.708
635.66	0.711
635.85	0.707
636.04	0.709
636.23	0.713
636.43	0.714
636.62	0.714
636.81	0.713
637.00	0.715
637.19	0.718
637.38	0.714
637.57	0.714
637.76	0.714
637.95	0.715
638.15	0.712
638.34	0.708
638.53	0.711
638.72	0.713
638.91	0.710
639.10	0.709
639.29	0.709
639.48	0.711
639.67	0.711
639.87	0.710
640.06	0.715
640.25	0.715
640.44	0.715
640.63	0.715
640.82	0.717
641.01	0.717
641.20	0.715
641.39	0.717
641.58	0.719
641.78	0.718
641.97	0.714
642.16	0.728
642.35	0.728
642.54	0.727
642.73	0.722
642.92	0.720
643.11	0.724
643.30	0.725
643.49	0.719
643.68	0.722
643.87	0.725
644.06	0.725
644.25	0.705
644.45	0.707
644.64	0.709
644.83	0.709
645.02	0.706
645.21	0.706
645.40	0.707
645.59	0.707
645.78	0.701
645.97	0.703
646.16	0.703
646.35	0.703
646.54	0.701
646.73	0.702
646.92	0.704
647.11	0.703
647.30	0.699
647.49	0.700
647.68	0.700
647.88	0.698
648.07	0.692
648.26	0.695
648.45	0.697
648.64	0.694
648.83	0.691
649.02	0.693
649.21	0.704
649.40	0.703
649.59	0.698
649.78	0.699
649.97	0.713
650.16	0.713
650.35	0.707
650.54	0.709
650.73	0.717
650.92	0.714
651.11	0.707
651.30	0.704
651.49	0.707
651.68	0.709
651.87	0.705
652.06	0.695
652.25	0.699
652.44	0.702
652.63	0.700
652.82	0.701
653.01	0.702
653.20	0.700
653.39	0.689
653.58	0.687
653.77	0.686
653.96	0.681
654.15	0.674
654.34	0.672
654.53	0.667
654.72	0.661
654.91	0.651
655.10	0.647
655.29	0.645
655.48	0.643
655.67	0.638
655.86	0.636
656.05	0.634
656.24	0.634
656.43	0.629
656.62	0.627
656.81	0.627
657.00	0.624
657.19	0.621
657.38	0.621
657.57	0.620
657.76	0.621
657.95	0.619
658.14	0.622
658.33	0.624
658.51	0.628
658.70	0.629
658.89	0.631
659.08	0.641
659.27	0.648
659.46	0.648
659.65	0.655
659.84	0.659
660.03	0.663
660.22	0.664
660.41	0.667
660.60	0.666
660.79	0.668
660.98	0.673
661.17	0.671
661.36	0.671
661.55	0.672
661.74	0.670
661.92	0.672
662.11	0.674
662.30	0.673
662.49	0.667
662.68	0.667
662.87	0.670
663.06	0.665
663.25	0.666
663.44	0.667
663.63	0.667
663.82	0.666
664.01	0.661
664.20	0.660
664.38	0.661
664.57	0.661
664.76	0.660
664.95	0.660
665.14	0.665
665.33	0.660
665.52	0.668
665.71	0.671
665.90	0.671
666.09	0.672
666.28	0.669
666.46	0.668
666.65	0.669
666.84	0.667
667.03	0.662
667.22	0.659
667.41	0.662
667.60	0.652
667.79	0.646
667.98	0.647
668.16	0.649
668.35	0.649
668.54	0.645
668.73	0.646
668.92	0.647
669.11	0.647
669.30	0.642
669.49	0.639
669.67	0.641
669.86	0.643
670.05	0.640
670.24	0.637
670.43	0.635
670.62	0.634
670.81	0.629
671.00	0.629
671.18	0.629
671.37	0.628
671.56	0.626
671.75	0.625
671.94	0.622
672.13	0.619
672.32	0.615
672.50	0.614
672.69	0.615
672.88	0.616
673.07	0.612
673.26	0.614
673.45	0.615
673.63	0.615
673.82	0.611
674.01	0.612
674.20	0.612
674.39	0.612
674.58	0.611
674.76	0.611
674.95	0.610
675.14	0.609
675.33	0.604
675.52	0.604
675.71	0.603
675.89	0.603
676.08	0.600
676.27	0.600
676.46	0.600
676.65	0.600
676.84	0.599
677.02	0.601
677.21	0.603
677.40	0.602
677.59	0.599
677.78	0.600
677.96	0.602
678.15	0.600
678.34	0.598
678.53	0.598
678.72	0.598
678.90	0.594
679.09	0.590
679.28	0.587
679.47	0.587
679.66	0.586
679.84	0.583
680.03	0.581
680.22	0.580
680.41	0.582
680.60	0.579
680.78	0.578
680.97	0.581
681.16	0.582
681.35	0.580
681.53	0.579
681.72	0.580
681.91	0.582
682.10	0.580
682.29	0.583
682.47	0.580
682.66	0.580
682.85	0.579
683.04	0.576
683.22	0.576
683.41	0.578
683.60	0.577
683.79	0.579
683.97	0.577
684.16	0.576
684.35	0.572
684.54	0.574
684.72	0.574
684.91	0.575
685.10	0.573
685.29	0.575
685.47	0.572
685.66	0.571
685.85	0.568
686.04	0.567
686.22	0.570
686.41	0.572
686.60	0.569
686.79	0.572
686.97	0.573
687.16	0.575
687.35	0.572
687.54	0.576
687.72	0.580
687.91	0.579
688.10	0.581
688.29	0.581
688.47	0.579
688.66	0.578
688.85	0.574
689.03	0.571
689.22	0.576
689.41	0.576
689.60	0.571
689.78	0.569
689.97	0.570
690.16	0.566
690.34	0.562
690.53	0.562
690.72	0.562
690.91	0.560
691.09	0.558
691.28	0.552
691.47	0.550
691.65	0.549
691.84	0.546
692.03	0.545
692.21	0.543
692.40	0.543
692.59	0.540
692.77	0.539
692.96	0.540
693.15	0.541
693.34	0.538
693.52	0.539
693.71	0.539
693.90	0.540
694.08	0.541
694.27	0.542
694.46	0.551
694.64	0.552
694.83	0.552
695.02	0.551
695.20	0.551
695.39	0.551
695.58	0.551
695.76	0.552
695.95	0.551
696.14	0.550
696.32	0.548
696.51	0.539
696.70	0.539
696.88	0.540
697.07	0.539
697.26	0.540
697.44	0.541
697.63	0.539
697.81	0.537
698.00	0.537
698.19	0.536
698.37	0.536
698.56	0.535
698.75	0.536
698.93	0.535
699.12	0.535
699.31	0.534
699.49	0.534
699.68	0.534
699.87	0.537
700.05	0.537
700.24	0.537
700.42	0.538
700.61	0.538
700.80	0.536
700.98	0.536
701.17	0.537
701.36	0.536
701.54	0.535
701.73	0.536
701.91	0.534
702.10	0.533
702.29	0.531
702.47	0.530
702.66	0.532
702.84	0.533
703.03	0.531
703.22	0.533
703.40	0.532
703.59	0.533
703.77	0.533
703.96	0.533
704.15	0.534
704.33	0.533
704.52	0.533
704.70	0.532
704.89	0.532
705.08	0.530
705.26	0.526
705.45	0.526
705.63	0.525
705.82	0.522
706.00	0.521
706.19	0.521
706.38	0.521
706.56	0.520
706.75	0.517
706.93	0.517
707.12	0.519
707.30	0.519
707.49	0.517
707.68	0.515
707.86	0.515
708.05	0.514
708.23	0.511
708.42	0.511
708.60	0.514
708.79	0.514
708.98	0.512
709.16	0.511
709.35	0.513
709.53	0.517
709.72	0.516
709.90	0.519
710.09	0.521
710.27	0.523
710.46	0.527
710.64	0.525
710.83	0.526
711.02	0.528
711.20	0.527
711.39	0.525
711.57	0.523
711.76	0.523
711.94	0.521
712.13	0.522
712.31	0.522
712.50	0.518
712.68	0.515
712.87	0.516
713.05	0.516
713.24	0.517
713.42	0.516
713.61	0.517
713.79	0.518
713.98	0.518
714.16	0.519
714.35	0.518
714.54	0.519
714.72	0.519
714.91	0.517
715.09	0.523
715.28	0.527
715.46	0.526
715.65	0.524
715.83	0.523
716.02	0.526
716.20	0.522
716.39	0.521
716.57	0.523
716.76	0.526
716.94	0.525
717.12	0.517
717.31	0.518
717.49	0.521
717.68	0.523
717.86	0.522
718.05	0.524
718.23	0.526
718.42	0.529
718.60	0.529
718.79	0.537
718.97	0.539
719.16	0.540
719.34	0.538
719.53	0.537
719.71	0.536
719.90	0.538
720.08	0.535
720.27	0.535
720.45	0.535
720.63	0.534
720.82	0.527
721.00	0.529
721.19	0.532
721.37	0.532
721.56	0.533
721.74	0.536
721.93	0.545
722.11	0.552
722.30	0.551
722.48	0.556
722.66	0.558
722.85	0.559
723.03	0.559
723.22	0.558
723.40	0.561
723.59	0.561
723.77	0.565
723.95	0.558
724.14	0.558
724.32	0.560
724.51	0.559
724.69	0.559
724.88	0.559
725.06	0.558
725.24	0.559
725.43	0.561
725.61	0.562
725.80	0.556
725.98	0.554
726.16	0.552
726.35	0.557
726.53	0.557
726.72	0.556
726.90	0.566
727.09	0.566
727.27	0.571
727.45	0.568
727.64	0.577
727.82	0.584
728.01	0.588
728.19	0.585
728.37	0.590
728.56	0.593
728.74	0.600
728.92	0.589
729.11	0.591
729.29	0.590
729.48	0.592
729.66	0.583
729.84	0.583
730.03	0.587
730.21	0.590
730.40	0.581
730.58	0.581
730.76	0.581
730.95	0.582
731.13	0.583
731.31	0.597
731.50	0.606
731.68	0.608
731.86	0.604
732.05	0.619
732.23	0.621
732.42	0.624
732.60	0.628
732.78	0.633
732.97	0.652
733.15	0.658
733.33	0.646
733.52	0.652
733.70	0.663
733.88	0.672
734.07	0.656
734.25	0.680
734.43	0.689
734.62	0.690
734.80	0.685
734.98	0.675
735.17	0.681
735.35	0.686
735.53	0.675
735.72	0.677
735.90	0.697
736.08	0.716
736.27	0.695
736.45	0.704
736.63	0.716
736.82	0.725
737.00	0.726
737.18	0.736
737.37	0.766
737.55	0.788
737.73	0.785
737.92	0.785
738.10	0.783
738.28	0.805
738.46	0.792
738.65	0.805
738.83	0.826
739.01	0.879
739.20	0.869
739.38	0.850
739.56	0.843
739.75	0.849
739.93	0.818
740.11	0.842
740.29	0.837
740.48	0.842
740.66	0.820
740.84	0.812
741.03	0.777
741.21	0.790
741.39	0.774
741.57	0.784
741.76	0.798
741.94	0.804
742.12	0.771
742.31	0.776
742.49	0.795
742.67	0.822
742.85	0.839
743.04	0.841
743.22	0.849
743.40	0.901
743.58	0.884
743.77	0.902
743.95	0.932
744.13	0.984
744.31	0.967
744.50	0.960
744.68	0.950
744.86	0.923
745.04	0.934
745.23	0.993
745.41	0.974
745.59	0.976
745.77	0.939
745.96	0.930
746.14	0.933
746.32	0.929
746.50	0.918
746.69	0.906
746.87	0.919
747.05	0.905
747.23	0.835
747.42	0.824
747.60	0.851
747.78	0.853
747.96	0.879
748.14	0.839
748.33	0.866
748.51	0.863
748.69	0.857
748.87	0.878
749.06	0.872
749.24	0.872
749.42	0.860
749.60	0.844
749.78	0.851
749.97	0.809
750.15	0.804
750.33	0.806
750.51	0.828
750.69	0.831
750.88	0.836
751.06	0.848
751.24	0.870
751.42	0.861
751.60	0.851
751.79	0.917
751.97	0.962
752.15	0.959
752.33	0.926
752.51	0.987
752.69	1.003
752.88	0.978
753.06	1.017
753.24	0.998
753.42	1.028
753.60	1.179
753.78	1.053
753.97	1.067
754.15	1.086
754.33	1.117
754.51	1.002
754.69	0.989
754.87	1.011
755.06	0.947
755.24	0.950
755.42	0.956
755.60	0.865
755.78	0.875
755.96	0.825
756.15	0.823
756.33	0.827
756.51	0.843
756.69	0.830
756.87	0.801
757.05	0.819
757.23	0.802
757.42	0.772
757.60	0.769
757.78	0.761
757.96	0.760
758.14	0.746
758.32	0.730
758.50	0.741
758.69	0.738
758.87	0.731
759.05	0.733
759.23	0.743
759.41	0.745
759.59	0.738
759.77	0.757
759.95	0.781
760.13	0.827
760.32	0.827
760.50	0.818
760.68	0.845
760.86	0.844
761.04	0.821
761.22	0.821
761.40	0.865
761.58	0.868
761.76	0.842
761.95	0.823
762.13	0.786
762.31	0.788
762.49	0.763
762.67	0.779
762.85	0.788
763.03	0.785
763.21	0.769
763.39	0.750
763.57	0.753
763.75	0.749
763.94	0.737
764.12	0.737
764.30	0.757
764.48	0.762
764.66	0.728
764.84	0.729
765.02	0.763
765.20	0.774
765.38	0.757
765.56	0.762
765.74	0.797
765.92	0.798
766.10	0.803
766.28	0.796
766.46	0.818
766.65	0.819
766.83	0.807
767.01	0.793
767.19	0.795
767.37	0.793
767.55	0.781
767.73	0.764
767.91	0.765
768.09	0.756
768.27	0.747
768.45	0.738
768.63	0.743
768.81	0.745
768.99	0.720
769.17	0.741
769.35	0.754
769.53	0.751
769.71	0.736
769.89	0.743
770.07	0.748
770.25	0.731
770.43	0.712
770.61	0.733
770.79	0.737
770.97	0.749
771.15	0.722
771.33	0.723
771.51	0.727
771.69	0.736
771.87	0.744
772.05	0.749
772.24	0.757
772.42	0.764
772.60	0.746
772.78	0.805
772.96	0.830
773.14	0.825
773.32	0.807
773.49	0.811
773.67	0.808
773.85	0.787
774.03	0.775
774.21	0.805
774.39	0.816
774.57	0.835
774.75	0.764
774.93	0.756
775.11	0.777
775.29	0.781
775.47	0.784
775.65	0.791
775.83	0.806
776.01	0.828
776.19	0.787
776.37	0.788
776.55	0.785
776.73	0.782
776.91	0.781
777.09	0.767
777.27	0.767
777.45	0.758
777.63	0.739
777.81	0.736
777.99	0.722
778.17	0.721
778.35	0.702
778.53	0.694
778.71	0.700
778.89	0.688
779.07	0.678
779.24	0.681
779.42	0.680
779.60	0.696
779.78	0.692
779.96	0.695
780.14	0.702
780.32	0.719
780.50	0.703
780.68	0.704
780.86	0.694
781.04	0.709
781.22	0.716
781.40	0.726
781.58	0.716
781.75	0.710
781.93	0.695
782.11	0.694
782.29	0.683
782.47	0.680
782.65	0.670
782.83	0.697
783.01	0.690
783.19	0.686
783.37	0.673
783.55	0.678
783.72	0.694
783.90	0.707
784.08	0.701
784.26	0.711
784.44	0.731
784.62	0.732
784.80	0.702
784.98	0.709
785.16	0.710
785.33	0.724
785.51	0.710
785.69	0.698
785.87	0.696
786.05	0.708
786.23	0.706
786.41	0.703
786.59	0.709
786.77	0.708
786.94	0.696
787.12	0.699
787.30	0.698
787.48	0.696
787.66	0.686
787.84	0.687
788.02	0.675
788.19	0.671
788.37	0.661
788.55	0.661
788.73	0.661
788.91	0.656
789.09	0.642
789.27	0.633
789.44	0.645
789.62	0.650
789.80	0.659
789.98	0.683
790.16	0.672
790.34	0.666
790.51	0.656
790.69	0.675
790.87	0.679
791.05	0.676
791.23	0.672
791.41	0.673
791.58	0.680
791.76	0.660
791.94	0.631
792.12	0.639
792.30	0.641
792.48	0.640
792.65	0.634
792.83	0.639
793.01	0.647
793.19	0.644
793.37	0.629
793.54	0.626
793.72	0.637
793.90	0.636
794.08	0.627
794.26	0.628
794.43	0.635
794.61	0.621
794.79	0.611
794.97	0.609
795.15	0.614
795.32	0.618
795.50	0.608
795.68	0.602
795.86	0.606
796.04	0.607
796.21	0.600
796.39	0.599
796.57	0.612
796.75	0.618
796.92	0.618
797.10	0.621
797.28	0.624
797.46	0.627
797.64	0.629
797.81	0.634
797.99	0.637
798.17	0.641
798.35	0.635
798.52	0.637
798.70	0.633
798.88	0.642
799.06	0.643
799.23	0.644
799.41	0.653
799.59	0.647
799.77	0.638
799.94	0.647
800.12	0.656
800.30	0.673
800.48	0.673
800.65	0.673
800.83	0.664
801.01	0.657
801.19	0.656
801.36	0.652
801.54	0.654
801.72	0.662
801.90	0.650
802.07	0.645
802.25	0.631
802.43	0.615
802.60	0.614
802.78	0.618
802.96	0.621
803.14	0.617
803.31	0.616
803.49	0.617
803.67	0.614
803.84	0.618
804.02	0.609
804.20	0.612
804.38	0.617
804.55	0.616
804.73	0.605
804.91	0.606
805.08	0.617
805.26	0.613
805.44	0.676
805.61	0.678
805.79	0.676
805.97	0.678
806.15	0.671
806.32	0.667
806.50	0.670
806.68	0.670
806.85	0.662
807.03	0.652
807.21	0.668
807.38	0.602
807.56	0.592
807.74	0.602
807.91	0.607
808.09	0.609
808.27	0.627
808.44	0.652
808.62	0.661
808.80	0.664
808.97	0.659
809.15	0.656
809.33	0.673
809.50	0.681
809.68	0.668
809.86	0.675
810.03	0.706
810.21	0.687
810.39	0.670
810.56	0.675
810.74	0.695
810.91	0.765
811.09	0.753
811.27	0.772
811.44	0.776
811.62	0.779
811.80	0.764
811.97	0.734
812.15	0.734
812.33	0.729
812.50	0.715
812.68	0.704
812.85	0.650
813.03	0.653
813.21	0.623
813.38	0.617
813.56	0.619
813.74	0.628
813.91	0.634
814.09	0.660
814.26	0.652
814.44	0.656
814.62	0.646
814.79	0.648
814.97	0.651
815.14	0.656
815.32	0.659
815.50	0.675
815.67	0.679
815.85	0.670
816.02	0.660
816.20	0.668
816.38	0.682
816.55	0.691
816.73	0.690
816.90	0.700
817.08	0.726
817.26	0.731
817.43	0.711
817.61	0.733
817.78	0.751
817.96	0.735
818.13	0.726
818.31	0.726
818.49	0.735
818.66	0.727
818.84	0.715
819.01	0.698
819.19	0.703
819.36	0.708
819.54	0.679
819.71	0.718
819.89	0.730
820.07	0.739
820.24	0.735
820.42	0.735
820.59	0.758
820.77	0.779
820.94	0.771
821.12	0.790
821.29	0.805
821.47	0.808
821.64	0.748
821.82	0.760
822.00	0.758
822.17	0.753
822.35	0.746
822.52	0.749
822.70	0.739
822.87	0.747
823.05	0.729
823.22	0.736
823.40	0.764
823.57	0.784
823.75	0.769
823.92	0.794
824.10	0.813
824.27	0.853
824.45	0.836
824.62	0.892
824.80	0.903
824.97	0.907
825.15	0.896
825.32	0.906
825.50	0.907
825.67	0.916
825.85	0.894
826.02	0.914
826.20	0.938
826.37	1.056
826.55	0.978
826.72	1.165
826.90	1.250
827.07	1.307
827.25	1.250
827.42	1.394
827.60	1.533
827.77	1.714
827.95	1.651
828.12	1.729
828.30	1.374
828.47	1.506
828.65	1.161
828.82	1.190
829.00	1.225
829.17	1.288
829.34	1.301
829.52	1.334
829.69	-0.000
829.87	-0.000
830.04	-0.000
830.22	-0.000
830.39	-0.000
830.57	-0.000
830.74	-0.000
830.92	-0.000
831.09	-0.000
831.26	-0.000
831.44	-0.000
831.61	-0.000
831.79	-0.000
831.96	-0.000
832.14	-0.000
832.31	-0.000
832.49	-0.000
832.66	-0.000
832.83	-0.000
833.01	-0.000
833.18	-0.000
833.36	-0.000
833.53	-0.000
833.70	-0.000
833.88	-0.000
834.05	-0.000
834.23	-0.000
834.40	-0.000
834.58	-0.000
834.75	-0.000
834.92	-0.000
835.10	-0.000
835.27	-0.000
835.45	-0.000
835.62	-0.000
835.79	-0.000
835.97	-0.000
836.14	-0.000
836.32	-0.000
836.49	-0.000
836.66	-0.000
836.84	-0.000
837.01	-0.000
837.18	-0.000
837.36	-0.000
837.53	-0.000
837.71	-0.000
837.88	-0.000
838.05	-0.000
838.23	-0.000
838.40	-0.000
838.58	-0.000
838.75	-0.000
838.92	-0.000
839.10	-0.000
839.27	-0.000
839.44	-0.000
839.62	-0.000
839.79	-0.000
839.96	-0.000
840.14	-0.000
840.31	-0.000
840.48	-0.000
840.66	-0.000
840.83	-0.000
841.01	-0.000
841.18	-0.000
841.35	-0.000
841.53	-0.000
841.70	-0.000
841.87	-0.000
842.05	-0.000
842.22	-0.000
842.39	-0.000
842.57	-0.000
842.74	-0.000
842.91	-0.000
843.09	-0.000
843.26	-0.000
843.43	-0.000
843.60	-0.000
843.78	-0.000
843.95	-0.000
844.12	-0.000
844.30	-0.000
844.47	-0.000
844.64	-0.000
844.82	-0.000
844.99	-0.000
845.16	-0.000
845.34	-0.000
845.51	-0.000
845.68	-0.000
845.85	-0.000
846.03	-0.000
846.20	-0.000
846.37	-0.000
846.55	-0.000
846.72	-0.000
846.89	-0.000
847.06	-0.000
847.24	-0.000
847.41	-0.000
847.58	-0.000
847.76	-0.000
847.93	-0.000
848.10	-0.000
848.27	-0.000
848.45	-0.000
848.62	-0.000
848.79	-0.000
848.97	-0.000
849.14	-0.000
849.31	-0.000
849.48	-0.000
849.66	-0.000
849.83	-0.000
850.00	-0.000
850.17	-0.000
850.35	-0.000
850.52	-0.000
850.69	-0.000
850.86	-0.000
851.04	-0.000
851.21	-0.000
851.38	-0.000
851.55	-0.000
851.72	-0.000
851.90	-0.000
852.07	-0.000
852.24	-0.000
852.41	-0.000
852.59	-0.000
852.76	-0.000
852.93	-0.000
853.10	-0.000
853.28	-0.000
853.45	-0.000
853.62	-0.000
853.79	-0.000
853.96	-0.000
854.14	-0.000
854.31	-0.000
854.48	-0.000
854.65	-0.000
854.82	-0.000
855.00	-0.000
855.17	-0.000
855.34	-0.000
855.51	-0.000
855.68	-0.000
855.86	-0.000
856.03	-0.000
856.20	-0.000
856.37	-0.000
856.54	-0.000
856.72	-0.000
856.89	-0.000
857.06	-0.000
857.23	-0.000
857.40	-0.000
857.57	-0.000
857.75	-0.000
857.92	-0.000
858.09	-0.000
858.26	-0.000
858.43	-0.000
858.60	-0.000
858.78	-0.000
858.95	-0.000
859.12	-0.000
859.29	-0.000
859.46	-0.000
859.63	-0.000
859.81	-0.000
859.98	-0.000
860.15	-0.000
860.32	-0.000
860.49	-0.000
860.66	-0.000
860.83	-0.000
861.01	-0.000
861.18	-0.000
861.35	-0.000
861.52	-0.000
861.69	-0.000
861.86	-0.000
862.03	-0.000
862.21	-0.000
862.38	-0.000
862.55	-0.000
862.72	-0.000
862.89	-0.000
863.06	-0.000
863.23	-0.000
863.40	-0.000
863.58	-0.000
863.75	-0.000
863.92	-0.000
864.09	-0.000
864.26	-0.000
864.43	-0.000
864.60	-0.000
864.77	-0.000
864.94	-0.000
865.11	-0.000
865.29	-0.000
865.46	-0.000
865.63	-0.000
865.80	-0.000
865.97	-0.000
866.14	-0.000
866.31	-0.000
866.48	-0.000
866.65	-0.000
866.82	-0.000
866.99	-0.000
867.16	-0.000
867.34	-0.000
867.51	-0.000
867.68	-0.000
867.85	-0.000
868.02	-0.000
868.19	-0.000
868.36	-0.000
868.53	-0.000
868.70	-0.000
868.87	-0.000
869.04	-0.000
869.21	-0.000
869.38	-0.000
869.55	-0.000
869.72	-0.000
869.89	-0.000
870.06	-0.000
870.24	-0.000
870.41	-0.000
870.58	-0.000
870.75	-0.000
870.92	-0.000
871.09	-0.000
871.26	-0.000
871.43	-0.000
871.60	-0.000
871.77	-0.000
871.94	-0.000
872.11	-0.000
872.28	-0.000
872.45	-0.000
872.62	-0.000
872.79	-0.000
872.96	-0.000
873.13	-0.000
873.30	-0.000
873.47	-0.000
873.64	-0.000
873.81	-0.000
873.98	-0.000
874.15	-0.000
874.32	-0.000
874.49	-0.000
874.66	-0.000
874.83	-0.000
875.00	-0.000
875.17	-0.000
875.34	-0.000
875.51	-0.000
875.68	-0.000
875.85	-0.000
876.02	-0.000
876.19	-0.000
876.36	-0.000
876.53	-0.000
876.70	-0.000
876.87	-0.000
877.04	-0.000
877.21	-0.000
877.38	-0.000
877.55	-0.000
877.72	-0.000
877.89	-0.000
878.06	-0.000
878.23	-0.000
878.39	-0.000
878.56	-0.000
878.73	-0.000
878.90	-0.000
879.07	-0.000
879.24	-0.000
879.41	-0.000
879.58	-0.000
879.75	-0.000
879.92	-0.000
880.09	-0.000
880.26	-0.000
880.43	-0.000
880.60	-0.000
880.77	-0.000
880.94	-0.000
881.11	-0.000
881.27	-0.000
881.44	-0.000
881.61	-0.000
881.78	-0.000
881.95	-0.000
882.12	-0.000
882.29	-0.000
882.46	-0.000
882.63	-0.000
882.80	-0.000
882.97	-0.000
883.14	-0.000
883.30	-0.000
883.47	-0.000
883.64	-0.000
883.81	-0.000
883.98	-0.000
884.15	-0.000
884.32	-0.000
884.49	-0.000
884.66	-0.000
884.82	-0.000
884.99	-0.000
885.16	-0.000
885.33	-0.000
885.50	-0.000
885.67	-0.000
885.84	-0.000
886.01	-0.000
886.17	-0.000
886.34	-0.000
886.51	-0.000
886.68	-0.000
886.85	-0.000
887.02	-0.000
887.19	-0.000
887.36	-0.000
887.52	-0.000
887.69	-0.000
887.86	-0.000
888.03	-0.000
888.20	-0.000
888.37	-0.000
888.54	-0.000
888.70	-0.000
888.87	-0.000
889.04	-0.000
889.21	-0.000
889.38	-0.000
889.55	-0.000
889.71	-0.000
889.88	-0.000
890.05	-0.000
890.22	-0.000
890.39	-0.000
>>>>>End Processed Spectral Data<<<<<
