SpectraSuite Data File
++++++++++++++++++++++++++++++++++++
Date: Fri Jun 19 15:43:31 CEST 2015
User: introlabs
Dark Spectrum Present: Yes
Reference Spectrum Present: Yes
Number of Sampled Component Spectra: 1
Spectrometers: USB4H08886
Integration Time (usec): 745692 (USB4H08886)
Spectra Averaged: 5 (USB4H08886)
Boxcar Smoothing: 5 (USB4H08886)
Correct for Electrical Dark: Yes (USB4H08886)
Strobe/Lamp Enabled: No (USB4H08886)
Correct for Detector Non-linearity: Yes (USB4H08886)
Correct for Stray Light: Yes (USB4H08886)
Number of Pixels in Processed Spectrum: 3648
>>>>>Begin Processed Spectral Data<<<<<
178.14	-0.000
178.36	-0.000
178.57	-0.000
178.79	-0.000
179.01	-0.000
179.22	-0.000
179.44	-0.000
179.65	-0.000
179.87	-0.000
180.08	-0.000
180.30	-0.000
180.52	-0.000
180.73	-0.000
180.95	-0.000
181.16	-0.000
181.38	-0.000
181.59	-0.000
181.81	-0.000
182.03	-0.000
182.24	-0.000
182.46	-0.000
182.67	-0.000
182.89	-0.000
183.10	-0.000
183.32	-0.000
183.54	-0.000
183.75	-0.000
183.97	-0.000
184.18	-0.000
184.40	-0.000
184.61	-0.000
184.83	-0.000
185.04	-0.000
185.26	-0.000
185.48	-0.000
185.69	-0.000
185.91	-0.000
186.12	-0.000
186.34	-0.000
186.55	-0.000
186.77	-0.000
186.98	-0.000
187.20	-0.000
187.42	-0.000
187.63	-0.000
187.85	-0.000
188.06	-0.000
188.28	-0.000
188.49	-0.000
188.71	-0.000
188.92	-0.000
189.14	-0.000
189.36	-0.000
189.57	-0.000
189.79	-0.000
190.00	-0.000
190.22	-0.000
190.43	-0.000
190.65	-0.000
190.86	-0.000
191.08	-0.000
191.29	-0.000
191.51	-0.000
191.72	-0.000
191.94	-0.000
192.16	-0.000
192.37	-0.000
192.59	-0.000
192.80	-0.000
193.02	-0.000
193.23	-0.000
193.45	-0.000
193.66	-0.000
193.88	-0.000
194.09	-0.000
194.31	-0.000
194.52	-0.000
194.74	-0.000
194.95	-0.000
195.17	-0.000
195.38	-0.000
195.60	-0.000
195.81	-0.000
196.03	-0.000
196.25	-0.000
196.46	-0.000
196.68	-0.000
196.89	-0.000
197.11	-0.000
197.32	-0.000
197.54	-0.000
197.75	-0.000
197.97	-0.000
198.18	-0.000
198.40	-0.000
198.61	-0.000
198.83	-0.000
199.04	-0.000
199.26	-0.000
199.47	-0.000
199.69	-0.000
199.90	-0.000
200.12	-0.000
200.33	-0.000
200.55	-0.000
200.76	-0.000
200.98	-0.000
201.19	-0.000
201.41	-0.000
201.62	-0.000
201.84	-0.000
202.05	-0.000
202.27	-0.000
202.48	-0.000
202.70	-0.000
202.91	-0.000
203.13	-0.000
203.34	-0.000
203.56	-0.000
203.77	-0.000
203.99	-0.000
204.20	-0.000
204.42	-0.000
204.63	-0.000
204.85	-0.000
205.06	-0.000
205.28	-0.000
205.49	-0.000
205.71	-0.000
205.92	-0.000
206.14	-0.000
206.35	-0.000
206.56	-0.000
206.78	-0.000
206.99	-0.000
207.21	-0.000
207.42	-0.000
207.64	-0.000
207.85	-0.000
208.07	-0.000
208.28	-0.000
208.50	-0.000
208.71	-0.000
208.93	-0.000
209.14	-0.000
209.36	-0.000
209.57	-0.000
209.79	-0.000
210.00	-0.000
210.22	-0.000
210.43	-0.000
210.64	-0.000
210.86	-0.000
211.07	-0.000
211.29	-0.000
211.50	-0.000
211.72	-0.000
211.93	-0.000
212.15	-0.000
212.36	-0.000
212.58	-0.000
212.79	-0.000
213.01	-0.000
213.22	-0.000
213.43	-0.000
213.65	-0.000
213.86	-0.000
214.08	-0.000
214.29	-0.000
214.51	-0.000
214.72	-0.000
214.94	-0.000
215.15	-0.000
215.36	-0.000
215.58	-0.000
215.79	-0.000
216.01	-0.000
216.22	-0.000
216.44	-0.000
216.65	-0.000
216.87	-0.000
217.08	-0.000
217.29	-0.000
217.51	-0.000
217.72	-0.000
217.94	-0.000
218.15	-0.000
218.37	-0.000
218.58	-0.000
218.80	-0.000
219.01	-0.000
219.22	-0.000
219.44	-0.000
219.65	-0.000
219.87	-0.000
220.08	-0.000
220.30	-0.000
220.51	-0.000
220.72	-0.000
220.94	-0.000
221.15	-0.000
221.37	-0.000
221.58	-0.000
221.79	-0.000
222.01	-0.000
222.22	-0.000
222.44	-0.000
222.65	-0.000
222.87	-0.000
223.08	-0.000
223.29	-0.000
223.51	-0.000
223.72	-0.000
223.94	-0.000
224.15	-0.000
224.36	-0.000
224.58	-0.000
224.79	-0.000
225.01	-0.000
225.22	-0.000
225.44	-0.000
225.65	-0.000
225.86	-0.000
226.08	-0.000
226.29	-0.000
226.51	-0.000
226.72	-0.000
226.93	-0.000
227.15	-0.000
227.36	-0.000
227.58	-0.000
227.79	-0.000
228.00	-0.000
228.22	-0.000
228.43	-0.000
228.65	-0.000
228.86	-0.000
229.07	-0.000
229.29	-0.000
229.50	-0.000
229.72	-0.000
229.93	-0.000
230.14	-0.000
230.36	-0.000
230.57	-0.000
230.78	-0.000
231.00	-0.000
231.21	-0.000
231.43	-0.000
231.64	-0.000
231.85	-0.000
232.07	-0.000
232.28	-0.000
232.50	-0.000
232.71	-0.000
232.92	-0.000
233.14	-0.000
233.35	-0.000
233.56	-0.000
233.78	-0.000
233.99	-0.000
234.21	-0.000
234.42	-0.000
234.63	-0.000
234.85	-0.000
235.06	-0.000
235.27	-0.000
235.49	-0.000
235.70	-0.000
235.91	-0.000
236.13	-0.000
236.34	-0.000
236.56	-0.000
236.77	-0.000
236.98	-0.000
237.20	-0.000
237.41	-0.000
237.62	-0.000
237.84	-0.000
238.05	-0.000
238.26	-0.000
238.48	-0.000
238.69	-0.000
238.91	-0.000
239.12	-0.000
239.33	-0.000
239.55	-0.000
239.76	-0.000
239.97	-0.000
240.19	-0.000
240.40	-0.000
240.61	-0.000
240.83	-0.000
241.04	-0.000
241.25	-0.000
241.47	-0.000
241.68	-0.000
241.89	-0.000
242.11	-0.000
242.32	-0.000
242.53	-0.000
242.75	-0.000
242.96	-0.000
243.17	-0.000
243.39	-0.000
243.60	-0.000
243.81	-0.000
244.03	-0.000
244.24	-0.000
244.45	-0.000
244.67	-0.000
244.88	-0.000
245.09	-0.000
245.31	-0.000
245.52	-0.000
245.73	-0.000
245.95	-0.000
246.16	-0.000
246.37	-0.000
246.59	-0.000
246.80	-0.000
247.01	-0.000
247.23	-0.000
247.44	-0.000
247.65	-0.000
247.87	-0.000
248.08	-0.000
248.29	-0.000
248.51	-0.000
248.72	-0.000
248.93	-0.000
249.15	-0.000
249.36	-0.000
249.57	-0.000
249.78	-0.000
250.00	-0.000
250.21	-0.000
250.42	-0.000
250.64	-0.000
250.85	-0.000
251.06	-0.000
251.28	-0.000
251.49	-0.000
251.70	-0.000
251.92	-0.000
252.13	-0.000
252.34	-0.000
252.55	-0.000
252.77	-0.000
252.98	-0.000
253.19	-0.000
253.41	-0.000
253.62	-0.000
253.83	-0.000
254.05	-0.000
254.26	-0.000
254.47	-0.000
254.68	-0.000
254.90	-0.000
255.11	-0.000
255.32	-0.000
255.54	-0.000
255.75	-0.000
255.96	-0.000
256.17	-0.000
256.39	-0.000
256.60	-0.000
256.81	-0.000
257.03	-0.000
257.24	-0.000
257.45	-0.000
257.66	-0.000
257.88	-0.000
258.09	-0.000
258.30	-0.000
258.51	-0.000
258.73	-0.000
258.94	-0.000
259.15	-0.000
259.37	-0.000
259.58	-0.000
259.79	-0.000
260.00	-0.000
260.22	-0.000
260.43	-0.000
260.64	-0.000
260.85	-0.000
261.07	-0.000
261.28	-0.000
261.49	-0.000
261.71	-0.000
261.92	-0.000
262.13	-0.000
262.34	-0.000
262.56	-0.000
262.77	-0.000
262.98	-0.000
263.19	-0.000
263.41	-0.000
263.62	-0.000
263.83	-0.000
264.04	-0.000
264.26	-0.000
264.47	-0.000
264.68	-0.000
264.89	-0.000
265.11	-0.000
265.32	-0.000
265.53	-0.000
265.74	-0.000
265.96	-0.000
266.17	-0.000
266.38	-0.000
266.59	-0.000
266.81	-0.000
267.02	-0.000
267.23	-0.000
267.44	-0.000
267.65	-0.000
267.87	-0.000
268.08	-0.000
268.29	-0.000
268.50	-0.000
268.72	-0.000
268.93	-0.000
269.14	-0.000
269.35	-0.000
269.57	-0.000
269.78	-0.000
269.99	-0.000
270.20	-0.000
270.41	-0.000
270.63	-0.000
270.84	-0.000
271.05	-0.000
271.26	-0.000
271.48	-0.000
271.69	-0.000
271.90	-0.000
272.11	-0.000
272.32	-0.000
272.54	-0.000
272.75	-0.000
272.96	-0.000
273.17	-0.000
273.39	-0.000
273.60	-0.000
273.81	-0.000
274.02	-0.000
274.23	-0.000
274.45	-0.000
274.66	-0.000
274.87	-0.000
275.08	-0.000
275.29	-0.000
275.51	-0.000
275.72	-0.000
275.93	-0.000
276.14	-0.000
276.35	-0.000
276.57	-0.000
276.78	-0.000
276.99	-0.000
277.20	-0.000
277.41	-0.000
277.63	-0.000
277.84	-0.000
278.05	-0.000
278.26	-0.000
278.47	-0.000
278.69	-0.000
278.90	-0.000
279.11	-0.000
279.32	-0.000
279.53	-0.000
279.74	-0.000
279.96	-0.000
280.17	-0.000
280.38	-0.000
280.59	-0.000
280.80	-0.000
281.02	-0.000
281.23	-0.000
281.44	-0.000
281.65	-0.000
281.86	-0.000
282.07	-0.000
282.29	-0.000
282.50	-0.000
282.71	-0.000
282.92	-0.000
283.13	-0.000
283.35	-0.000
283.56	-0.000
283.77	-0.000
283.98	-0.000
284.19	-0.000
284.40	-0.000
284.62	-0.000
284.83	-0.000
285.04	-0.000
285.25	-0.000
285.46	-0.000
285.67	-0.000
285.88	-0.000
286.10	-0.000
286.31	-0.000
286.52	-0.000
286.73	-0.000
286.94	-0.000
287.15	-0.000
287.37	-0.000
287.58	-0.000
287.79	-0.000
288.00	-0.000
288.21	-0.000
288.42	-0.000
288.63	-0.000
288.85	-0.000
289.06	-0.000
289.27	-0.000
289.48	-0.000
289.69	-0.000
289.90	-0.000
290.11	-0.000
290.33	-0.000
290.54	-0.000
290.75	-0.000
290.96	-0.000
291.17	-0.000
291.38	-0.000
291.59	-0.000
291.81	-0.000
292.02	-0.000
292.23	-0.000
292.44	-0.000
292.65	2.882
292.86	-0.000
293.07	-0.000
293.28	2.199
293.50	2.549
293.71	-0.000
293.92	2.845
294.13	-0.000
294.34	-0.000
294.55	-0.000
294.76	-0.000
294.97	2.605
295.19	-0.000
295.40	-0.000
295.61	-0.000
295.82	2.477
296.03	2.122
296.24	2.171
296.45	1.775
296.66	1.596
296.87	1.608
297.09	1.641
297.30	1.748
297.51	1.543
297.72	1.520
297.93	1.570
298.14	1.541
298.35	1.521
298.56	1.505
298.77	1.580
298.99	1.558
299.20	1.557
299.41	1.538
299.62	1.499
299.83	1.497
300.04	1.463
300.25	1.457
300.46	1.485
300.67	1.468
300.88	1.432
301.10	1.432
301.31	1.481
301.52	1.434
301.73	1.399
301.94	1.401
302.15	1.408
302.36	1.373
302.57	1.330
302.78	1.334
302.99	1.366
303.20	1.381
303.41	1.316
303.63	1.304
303.84	1.312
304.05	1.310
304.26	1.263
304.47	1.266
304.68	1.265
304.89	1.259
305.10	1.229
305.31	1.215
305.52	1.249
305.73	1.242
305.94	1.212
306.15	1.201
306.37	1.216
306.58	1.222
306.79	1.201
307.00	1.219
307.21	1.247
307.42	1.240
307.63	1.216
307.84	1.190
308.05	1.223
308.26	1.222
308.47	1.205
308.68	1.201
308.89	1.201
309.10	1.197
309.31	1.166
309.52	1.159
309.73	1.170
309.95	1.164
310.16	1.141
310.37	1.131
310.58	1.145
310.79	1.147
311.00	1.144
311.21	1.144
311.42	1.147
311.63	1.141
311.84	1.126
312.05	1.125
312.26	1.144
312.47	1.152
312.68	1.133
312.89	1.117
313.10	1.121
313.31	1.100
313.52	1.104
313.73	1.103
313.94	1.105
314.15	1.091
314.36	1.073
314.57	1.067
314.78	1.055
314.99	1.050
315.21	1.042
315.42	1.046
315.63	1.053
315.84	1.033
316.05	1.022
316.26	1.031
316.47	1.045
316.68	1.042
316.89	1.026
317.10	1.043
317.31	1.047
317.52	1.047
317.73	1.028
317.94	1.029
318.15	1.065
318.36	1.063
318.57	1.047
318.78	1.035
318.99	1.062
319.20	1.061
319.41	1.034
319.62	1.037
319.83	1.049
320.04	1.046
320.25	1.037
320.46	1.008
320.67	1.011
320.88	1.007
321.09	0.997
321.30	0.984
321.51	0.997
321.72	0.994
321.93	0.979
322.14	0.970
322.35	0.995
322.56	0.996
322.77	0.985
322.98	0.995
323.19	1.002
323.40	1.009
323.61	0.992
323.82	0.986
324.03	0.991
324.24	0.990
324.45	0.979
324.66	0.961
324.87	0.957
325.08	0.957
325.29	0.940
325.50	0.933
325.71	0.936
325.92	0.943
326.13	0.931
326.34	0.931
326.55	0.936
326.76	0.935
326.97	0.926
327.18	0.922
327.39	0.944
327.60	0.944
327.80	0.946
328.01	0.944
328.22	0.943
328.43	0.946
328.64	0.935
328.85	0.939
329.06	0.942
329.27	0.942
329.48	0.938
329.69	0.920
329.90	0.930
330.11	0.923
330.32	0.918
330.53	0.912
330.74	0.910
330.95	0.910
331.16	0.897
331.37	0.904
331.58	0.903
331.79	0.904
332.00	0.897
332.21	0.890
332.42	0.893
332.63	0.885
332.83	0.882
333.04	0.886
333.25	0.897
333.46	0.896
333.67	0.883
333.88	0.884
334.09	0.891
334.30	0.889
334.51	0.882
334.72	0.878
334.93	0.880
335.14	0.878
335.35	0.873
335.56	0.868
335.77	0.876
335.98	0.874
336.18	0.870
336.39	0.863
336.60	0.865
336.81	0.864
337.02	0.864
337.23	0.870
337.44	0.871
337.65	0.872
337.86	0.863
338.07	0.859
338.28	0.862
338.49	0.859
338.70	0.852
338.91	0.859
339.11	0.864
339.32	0.861
339.53	0.850
339.74	0.848
339.95	0.843
340.16	0.842
340.37	0.836
340.58	0.834
340.79	0.838
341.00	0.839
341.21	0.829
341.41	0.830
341.62	0.830
341.83	0.830
342.04	0.825
342.25	0.837
342.46	0.839
342.67	0.837
342.88	0.832
343.09	0.830
343.30	0.837
343.50	0.841
343.71	0.833
343.92	0.832
344.13	0.837
344.34	0.836
344.55	0.821
344.76	0.820
344.97	0.823
345.18	0.822
345.38	0.820
345.59	0.814
345.80	0.813
346.01	0.812
346.22	0.809
346.43	0.803
346.64	0.812
346.85	0.811
347.06	0.806
347.26	0.806
347.47	0.810
347.68	0.806
347.89	0.803
348.10	0.797
348.31	0.802
348.52	0.801
348.73	0.798
348.93	0.795
349.14	0.796
349.35	0.795
349.56	0.790
349.77	0.785
349.98	0.789
350.19	0.787
350.39	0.784
350.60	0.780
350.81	0.795
351.02	0.794
351.23	0.790
351.44	0.793
351.65	0.795
351.86	0.793
352.06	0.792
352.27	0.793
352.48	0.794
352.69	0.793
352.90	0.787
353.11	0.775
353.31	0.780
353.52	0.777
353.73	0.770
353.94	0.771
354.15	0.777
354.36	0.776
354.57	0.768
354.77	0.771
354.98	0.769
355.19	0.770
355.40	0.769
355.61	0.775
355.82	0.778
356.02	0.777
356.23	0.772
356.44	0.773
356.65	0.775
356.86	0.776
357.07	0.769
357.27	0.772
357.48	0.773
357.69	0.768
357.90	0.754
358.11	0.752
358.32	0.755
358.52	0.757
358.73	0.749
358.94	0.751
359.15	0.755
359.36	0.756
359.56	0.752
359.77	0.751
359.98	0.758
360.19	0.758
360.40	0.754
360.61	0.754
360.81	0.753
361.02	0.754
361.23	0.745
361.44	0.744
361.65	0.744
361.85	0.743
362.06	0.740
362.27	0.742
362.48	0.742
362.69	0.745
362.89	0.739
363.10	0.741
363.31	0.745
363.52	0.749
363.73	0.745
363.93	0.745
364.14	0.747
364.35	0.748
364.56	0.739
364.77	0.740
364.97	0.741
365.18	0.742
365.39	0.737
365.60	0.733
365.81	0.733
366.01	0.732
366.22	0.730
366.43	0.729
366.64	0.730
366.84	0.736
367.05	0.733
367.26	0.733
367.47	0.734
367.68	0.734
367.88	0.732
368.09	0.730
368.30	0.732
368.51	0.733
368.71	0.732
368.92	0.736
369.13	0.733
369.34	0.733
369.55	0.733
369.75	0.732
369.96	0.738
370.17	0.739
370.38	0.736
370.58	0.735
370.79	0.739
371.00	0.738
371.21	0.730
371.41	0.735
371.62	0.738
371.83	0.735
372.04	0.734
372.24	0.728
372.45	0.728
372.66	0.730
372.87	0.727
373.07	0.725
373.28	0.726
373.49	0.730
373.70	0.722
373.90	0.721
374.11	0.729
374.32	0.728
374.53	0.728
374.73	0.728
374.94	0.728
375.15	0.728
375.36	0.725
375.56	0.734
375.77	0.733
375.98	0.734
376.19	0.732
376.39	0.726
376.60	0.729
376.81	0.729
377.02	0.727
377.22	0.727
377.43	0.728
377.64	0.727
377.84	0.719
378.05	0.723
378.26	0.728
378.47	0.727
378.67	0.725
378.88	0.723
379.09	0.722
379.30	0.723
379.50	0.721
379.71	0.723
379.92	0.725
380.12	0.724
380.33	0.717
380.54	0.714
380.75	0.719
380.95	0.720
381.16	0.718
381.37	0.718
381.57	0.720
381.78	0.721
381.99	0.722
382.20	0.721
382.40	0.724
382.61	0.725
382.82	0.722
383.02	0.715
383.23	0.718
383.44	0.718
383.64	0.718
383.85	0.720
384.06	0.722
384.27	0.720
384.47	0.719
384.68	0.719
384.89	0.725
385.09	0.724
385.30	0.724
385.51	0.724
385.71	0.727
385.92	0.727
386.13	0.726
386.33	0.729
386.54	0.729
386.75	0.729
386.95	0.725
387.16	0.721
387.37	0.724
387.58	0.724
387.78	0.722
387.99	0.719
388.20	0.721
388.40	0.718
388.61	0.714
388.82	0.716
389.02	0.718
389.23	0.718
389.44	0.717
389.64	0.717
389.85	0.727
390.06	0.727
390.26	0.728
390.47	0.727
390.68	0.729
390.88	0.727
391.09	0.723
391.30	0.723
391.50	0.723
391.71	0.724
391.92	0.721
392.12	0.714
392.33	0.714
392.53	0.713
392.74	0.714
392.95	0.714
393.15	0.716
393.36	0.718
393.57	0.716
393.77	0.719
393.98	0.720
394.19	0.720
394.39	0.720
394.60	0.722
394.81	0.724
395.01	0.722
395.22	0.720
395.43	0.722
395.63	0.726
395.84	0.728
396.04	0.724
396.25	0.727
396.46	0.728
396.66	0.726
396.87	0.724
397.08	0.722
397.28	0.724
397.49	0.725
397.69	0.722
397.90	0.717
398.11	0.719
398.31	0.720
398.52	0.716
398.73	0.718
398.93	0.717
399.14	0.717
399.34	0.716
399.55	0.717
399.76	0.717
399.96	0.718
400.17	0.717
400.37	0.715
400.58	0.721
400.79	0.723
400.99	0.720
401.20	0.725
401.41	0.728
401.61	0.729
401.82	0.734
402.02	0.734
402.23	0.735
402.44	0.735
402.64	0.735
402.85	0.730
403.05	0.728
403.26	0.728
403.47	0.722
403.67	0.721
403.88	0.721
404.08	0.715
404.29	0.713
404.50	0.713
404.70	0.713
404.91	0.712
405.11	0.710
405.32	0.710
405.52	0.710
405.73	0.710
405.94	0.708
406.14	0.711
406.35	0.713
406.55	0.714
406.76	0.712
406.97	0.712
407.17	0.714
407.38	0.715
407.58	0.714
407.79	0.716
407.99	0.719
408.20	0.719
408.41	0.715
408.61	0.714
408.82	0.714
409.02	0.714
409.23	0.712
409.43	0.711
409.64	0.711
409.84	0.712
410.05	0.708
410.26	0.707
410.46	0.706
410.67	0.706
410.87	0.708
411.08	0.710
411.28	0.711
411.49	0.713
411.69	0.711
411.90	0.713
412.11	0.714
412.31	0.715
412.52	0.713
412.72	0.714
412.93	0.714
413.13	0.713
413.34	0.709
413.54	0.711
413.75	0.712
413.95	0.712
414.16	0.708
414.37	0.711
414.57	0.711
414.78	0.714
414.98	0.712
415.19	0.713
415.39	0.711
415.60	0.713
415.80	0.713
416.01	0.711
416.21	0.713
416.42	0.713
416.62	0.708
416.83	0.709
417.03	0.708
417.24	0.707
417.44	0.706
417.65	0.705
417.86	0.705
418.06	0.703
418.27	0.701
418.47	0.703
418.68	0.703
418.88	0.703
419.09	0.702
419.29	0.703
419.50	0.703
419.70	0.702
419.91	0.701
420.11	0.698
420.32	0.700
420.52	0.700
420.73	0.700
420.93	0.700
421.14	0.702
421.34	0.701
421.55	0.698
421.75	0.698
421.96	0.699
422.16	0.700
422.37	0.699
422.57	0.696
422.78	0.697
422.98	0.694
423.19	0.692
423.39	0.690
423.60	0.694
423.80	0.695
424.01	0.694
424.21	0.695
424.42	0.695
424.62	0.695
424.83	0.695
425.03	0.694
425.23	0.696
425.44	0.696
425.64	0.697
425.85	0.695
426.05	0.695
426.26	0.696
426.46	0.693
426.67	0.693
426.87	0.698
427.08	0.698
427.28	0.696
427.49	0.697
427.69	0.698
427.90	0.697
428.10	0.694
428.31	0.694
428.51	0.696
428.71	0.695
428.92	0.696
429.12	0.693
429.33	0.694
429.53	0.697
429.74	0.701
429.94	0.702
430.15	0.701
430.35	0.701
430.56	0.698
430.76	0.697
430.96	0.697
431.17	0.695
431.37	0.692
431.58	0.690
431.78	0.686
431.99	0.679
432.19	0.681
432.40	0.683
432.60	0.683
432.80	0.685
433.01	0.684
433.21	0.684
433.42	0.686
433.62	0.686
433.83	0.686
434.03	0.689
434.23	0.692
434.44	0.691
434.64	0.688
434.85	0.694
435.05	0.695
435.26	0.694
435.46	0.693
435.66	0.692
435.87	0.692
436.07	0.692
436.28	0.688
436.48	0.685
436.69	0.684
436.89	0.684
437.09	0.678
437.30	0.676
437.50	0.677
437.71	0.689
437.91	0.688
438.11	0.690
438.32	0.693
438.52	0.693
438.73	0.693
438.93	0.691
439.13	0.690
439.34	0.694
439.54	0.692
439.75	0.692
439.95	0.681
440.15	0.685
440.36	0.684
440.56	0.682
440.77	0.682
440.97	0.682
441.17	0.681
441.38	0.683
441.58	0.680
441.79	0.680
441.99	0.679
442.19	0.677
442.40	0.674
442.60	0.674
442.81	0.672
443.01	0.672
443.21	0.673
443.42	0.672
443.62	0.670
443.82	0.670
444.03	0.671
444.23	0.670
444.44	0.671
444.64	0.670
444.84	0.671
445.05	0.672
445.25	0.670
445.45	0.670
445.66	0.672
445.86	0.672
446.06	0.673
446.27	0.672
446.47	0.675
446.68	0.673
446.88	0.672
447.08	0.671
447.29	0.672
447.49	0.672
447.69	0.672
447.90	0.670
448.10	0.674
448.30	0.671
448.51	0.672
448.71	0.670
448.91	0.673
449.12	0.671
449.32	0.672
449.52	0.671
449.73	0.675
449.93	0.673
450.14	0.674
450.34	0.673
450.54	0.675
450.75	0.673
450.95	0.673
451.15	0.672
451.36	0.674
451.56	0.671
451.76	0.670
451.97	0.667
452.17	0.668
452.37	0.666
452.58	0.663
452.78	0.662
452.98	0.664
453.19	0.663
453.39	0.663
453.59	0.662
453.79	0.663
454.00	0.663
454.20	0.663
454.40	0.662
454.61	0.665
454.81	0.665
455.01	0.664
455.22	0.665
455.42	0.667
455.62	0.665
455.83	0.665
456.03	0.667
456.23	0.668
456.44	0.670
456.64	0.669
456.84	0.669
457.04	0.669
457.25	0.668
457.45	0.664
457.65	0.663
457.86	0.664
458.06	0.663
458.26	0.659
458.47	0.658
458.67	0.659
458.87	0.659
459.07	0.656
459.28	0.658
459.48	0.660
459.68	0.660
459.89	0.659
460.09	0.658
460.29	0.659
460.49	0.659
460.70	0.658
460.90	0.658
461.10	0.658
461.31	0.657
461.51	0.655
461.71	0.657
461.91	0.658
462.12	0.659
462.32	0.658
462.52	0.658
462.72	0.661
462.93	0.662
463.13	0.661
463.33	0.663
463.53	0.664
463.74	0.664
463.94	0.659
464.14	0.660
464.35	0.661
464.55	0.661
464.75	0.659
464.95	0.657
465.16	0.659
465.36	0.658
465.56	0.656
465.76	0.656
465.97	0.656
466.17	0.657
466.37	0.655
466.57	0.655
466.78	0.656
466.98	0.655
467.18	0.654
467.38	0.653
467.59	0.654
467.79	0.655
467.99	0.653
468.19	0.655
468.39	0.658
468.60	0.657
468.80	0.656
469.00	0.658
469.20	0.659
469.41	0.659
469.61	0.659
469.81	0.658
470.01	0.658
470.22	0.659
470.42	0.657
470.62	0.655
470.82	0.656
471.02	0.655
471.23	0.653
471.43	0.653
471.63	0.656
471.83	0.655
472.04	0.654
472.24	0.653
472.44	0.657
472.64	0.657
472.84	0.656
473.05	0.656
473.25	0.659
473.45	0.658
473.65	0.657
473.85	0.657
474.06	0.658
474.26	0.658
474.46	0.659
474.66	0.655
474.86	0.656
475.07	0.656
475.27	0.654
475.47	0.652
475.67	0.652
475.87	0.654
476.08	0.651
476.28	0.652
476.48	0.653
476.68	0.651
476.88	0.649
477.09	0.651
477.29	0.653
477.49	0.652
477.69	0.652
477.89	0.652
478.09	0.651
478.30	0.654
478.50	0.651
478.70	0.651
478.90	0.651
479.10	0.654
479.31	0.656
479.51	0.654
479.71	0.654
479.91	0.654
480.11	0.653
480.31	0.653
480.52	0.652
480.72	0.652
480.92	0.651
481.12	0.650
481.32	0.647
481.52	0.644
481.72	0.644
481.93	0.648
482.13	0.648
482.33	0.648
482.53	0.647
482.73	0.647
482.93	0.648
483.14	0.648
483.34	0.647
483.54	0.648
483.74	0.648
483.94	0.647
484.14	0.643
484.34	0.642
484.55	0.643
484.75	0.642
484.95	0.640
485.15	0.639
485.35	0.639
485.55	0.638
485.75	0.636
485.96	0.637
486.16	0.638
486.36	0.637
486.56	0.636
486.76	0.636
486.96	0.637
487.16	0.636
487.36	0.635
487.57	0.635
487.77	0.635
487.97	0.636
488.17	0.634
488.37	0.633
488.57	0.633
488.77	0.633
488.97	0.632
489.18	0.631
489.38	0.634
489.58	0.635
489.78	0.634
489.98	0.634
490.18	0.634
490.38	0.634
490.58	0.633
490.78	0.634
490.98	0.636
491.19	0.636
491.39	0.635
491.59	0.634
491.79	0.637
491.99	0.637
492.19	0.636
492.39	0.639
492.59	0.639
492.79	0.642
492.99	0.642
493.20	0.641
493.40	0.642
493.60	0.643
493.80	0.642
494.00	0.640
494.20	0.641
494.40	0.640
494.60	0.638
494.80	0.642
495.00	0.640
495.20	0.639
495.40	0.638
495.61	0.639
495.81	0.638
496.01	0.642
496.21	0.643
496.41	0.642
496.61	0.643
496.81	0.642
497.01	0.637
497.21	0.637
497.41	0.637
497.61	0.637
497.81	0.635
498.01	0.635
498.21	0.633
498.41	0.631
498.61	0.632
498.82	0.633
499.02	0.635
499.22	0.636
499.42	0.634
499.62	0.636
499.82	0.637
500.02	0.638
500.22	0.637
500.42	0.639
500.62	0.638
500.82	0.638
501.02	0.637
501.22	0.637
501.42	0.636
501.62	0.639
501.82	0.638
502.02	0.639
502.22	0.638
502.42	0.640
502.62	0.637
502.82	0.638
503.02	0.638
503.22	0.638
503.42	0.636
503.63	0.636
503.83	0.634
504.03	0.632
504.23	0.631
504.43	0.632
504.63	0.633
504.83	0.633
505.03	0.632
505.23	0.634
505.43	0.635
505.63	0.636
505.83	0.636
506.03	0.637
506.23	0.639
506.43	0.639
506.63	0.638
506.83	0.636
507.03	0.638
507.23	0.638
507.43	0.636
507.63	0.636
507.83	0.636
508.03	0.636
508.23	0.636
508.43	0.634
508.63	0.636
508.83	0.636
509.03	0.637
509.23	0.636
509.43	0.637
509.63	0.637
509.83	0.636
510.03	0.639
510.23	0.640
510.43	0.641
510.63	0.642
510.83	0.642
511.03	0.644
511.23	0.641
511.43	0.641
511.63	0.643
511.83	0.645
512.03	0.645
512.22	0.642
512.42	0.641
512.62	0.642
512.82	0.641
513.02	0.640
513.22	0.640
513.42	0.641
513.62	0.644
513.82	0.642
514.02	0.641
514.22	0.642
514.42	0.643
514.62	0.642
514.82	0.642
515.02	0.644
515.22	0.647
515.42	0.647
515.62	0.649
515.82	0.648
516.02	0.650
516.22	0.650
516.42	0.651
516.62	0.652
516.82	0.653
517.01	0.652
517.21	0.651
517.41	0.654
517.61	0.653
517.81	0.649
518.01	0.649
518.21	0.649
518.41	0.647
518.61	0.647
518.81	0.647
519.01	0.647
519.21	0.648
519.41	0.647
519.61	0.643
519.81	0.645
520.00	0.645
520.20	0.646
520.40	0.649
520.60	0.649
520.80	0.649
521.00	0.649
521.20	0.650
521.40	0.654
521.60	0.655
521.80	0.654
522.00	0.654
522.20	0.657
522.39	0.656
522.59	0.653
522.79	0.655
522.99	0.657
523.19	0.655
523.39	0.653
523.59	0.650
523.79	0.652
523.99	0.654
524.19	0.653
524.38	0.652
524.58	0.653
524.78	0.653
524.98	0.652
525.18	0.655
525.38	0.656
525.58	0.657
525.78	0.655
525.98	0.654
526.18	0.654
526.37	0.654
526.57	0.655
526.77	0.655
526.97	0.656
527.17	0.656
527.37	0.652
527.57	0.655
527.77	0.656
527.96	0.656
528.16	0.655
528.36	0.656
528.56	0.658
528.76	0.656
528.96	0.655
529.16	0.656
529.36	0.659
529.55	0.658
529.75	0.655
529.95	0.656
530.15	0.657
530.35	0.659
530.55	0.657
530.75	0.658
530.94	0.660
531.14	0.660
531.34	0.658
531.54	0.656
531.74	0.659
531.94	0.662
532.13	0.660
532.33	0.662
532.53	0.661
532.73	0.660
532.93	0.659
533.13	0.660
533.33	0.660
533.52	0.661
533.72	0.665
533.92	0.663
534.12	0.661
534.32	0.661
534.52	0.659
534.71	0.661
534.91	0.664
535.11	0.665
535.31	0.662
535.51	0.664
535.71	0.665
535.90	0.662
536.10	0.663
536.30	0.666
536.50	0.667
536.70	0.667
536.89	0.665
537.09	0.664
537.29	0.666
537.49	0.667
537.69	0.665
537.89	0.666
538.08	0.666
538.28	0.664
538.48	0.664
538.68	0.665
538.88	0.666
539.07	0.667
539.27	0.665
539.47	0.664
539.67	0.664
539.87	0.665
540.06	0.663
540.26	0.664
540.46	0.666
540.66	0.663
540.86	0.661
541.05	0.661
541.25	0.662
541.45	0.662
541.65	0.661
541.84	0.663
542.04	0.664
542.24	0.665
542.44	0.664
542.64	0.665
542.83	0.667
543.03	0.668
543.23	0.666
543.43	0.668
543.62	0.669
543.82	0.669
544.02	0.668
544.22	0.668
544.42	0.671
544.61	0.671
544.81	0.668
545.01	0.667
545.21	0.669
545.40	0.669
545.60	0.667
545.80	0.669
546.00	0.670
546.19	0.669
546.39	0.668
546.59	0.666
546.79	0.668
546.98	0.668
547.18	0.668
547.38	0.669
547.58	0.671
547.77	0.671
547.97	0.668
548.17	0.670
548.37	0.670
548.56	0.670
548.76	0.670
548.96	0.670
549.16	0.672
549.35	0.672
549.55	0.670
549.75	0.670
549.95	0.673
550.14	0.673
550.34	0.671
550.54	0.676
550.73	0.679
550.93	0.680
551.13	0.678
551.33	0.677
551.52	0.678
551.72	0.678
551.92	0.676
552.12	0.677
552.31	0.677
552.51	0.676
552.71	0.672
552.90	0.672
553.10	0.673
553.30	0.673
553.50	0.672
553.69	0.673
553.89	0.673
554.09	0.673
554.28	0.670
554.48	0.672
554.68	0.674
554.87	0.674
555.07	0.671
555.27	0.671
555.47	0.672
555.66	0.673
555.86	0.671
556.06	0.673
556.25	0.675
556.45	0.681
556.65	0.680
556.84	0.683
557.04	0.685
557.24	0.687
557.43	0.687
557.63	0.690
557.83	0.692
558.02	0.693
558.22	0.697
558.42	0.698
558.61	0.691
558.81	0.692
559.01	0.688
559.21	0.688
559.40	0.689
559.60	0.689
559.80	0.686
559.99	0.687
560.19	0.689
560.39	0.683
560.58	0.682
560.78	0.681
560.97	0.684
561.17	0.683
561.37	0.681
561.56	0.682
561.76	0.683
561.96	0.682
562.15	0.679
562.35	0.681
562.55	0.682
562.74	0.681
562.94	0.681
563.14	0.679
563.33	0.679
563.53	0.679
563.73	0.677
563.92	0.679
564.12	0.682
564.31	0.684
564.51	0.682
564.71	0.683
564.90	0.686
565.10	0.686
565.30	0.689
565.49	0.690
565.69	0.692
565.89	0.692
566.08	0.690
566.28	0.691
566.47	0.693
566.67	0.692
566.87	0.690
567.06	0.692
567.26	0.698
567.46	0.694
567.65	0.694
567.85	0.695
568.04	0.698
568.24	0.697
568.44	0.695
568.63	0.693
568.83	0.694
569.02	0.692
569.22	0.688
569.42	0.684
569.61	0.685
569.81	0.684
570.00	0.683
570.20	0.684
570.40	0.685
570.59	0.684
570.79	0.682
570.98	0.681
571.18	0.683
571.38	0.682
571.57	0.680
571.77	0.678
571.96	0.681
572.16	0.678
572.35	0.674
572.55	0.675
572.75	0.673
572.94	0.672
573.14	0.670
573.33	0.671
573.53	0.671
573.73	0.671
573.92	0.669
574.12	0.667
574.31	0.670
574.51	0.671
574.70	0.668
574.90	0.669
575.09	0.671
575.29	0.672
575.49	0.669
575.68	0.670
575.88	0.671
576.07	0.673
576.27	0.671
576.46	0.669
576.66	0.668
576.86	0.667
577.05	0.666
577.25	0.664
577.44	0.665
577.64	0.665
577.83	0.663
578.03	0.664
578.22	0.664
578.42	0.663
578.61	0.662
578.81	0.662
579.00	0.662
579.20	0.662
579.40	0.661
579.59	0.660
579.79	0.660
579.98	0.659
580.18	0.659
580.37	0.659
580.57	0.661
580.76	0.664
580.96	0.663
581.15	0.665
581.35	0.666
581.54	0.666
581.74	0.665
581.93	0.668
582.13	0.669
582.32	0.666
582.52	0.664
582.71	0.663
582.91	0.659
583.10	0.659
583.30	0.657
583.49	0.656
583.69	0.660
583.88	0.661
584.08	0.660
584.27	0.662
584.47	0.665
584.66	0.666
584.86	0.666
585.05	0.668
585.25	0.670
585.44	0.670
585.64	0.669
585.83	0.665
586.03	0.665
586.22	0.663
586.42	0.659
586.61	0.660
586.81	0.662
587.00	0.661
587.20	0.659
587.39	0.659
587.59	0.661
587.78	0.662
587.98	0.663
588.17	0.664
588.37	0.666
588.56	0.668
588.76	0.664
588.95	0.664
589.15	0.668
589.34	0.671
589.54	0.670
589.73	0.671
589.92	0.674
590.12	0.674
590.31	0.672
590.51	0.678
590.70	0.679
590.90	0.681
591.09	0.679
591.29	0.678
591.48	0.677
591.68	0.679
591.87	0.677
592.06	0.676
592.26	0.679
592.45	0.678
592.65	0.672
592.84	0.671
593.04	0.673
593.23	0.675
593.43	0.672
593.62	0.672
593.81	0.672
594.01	0.671
594.20	0.669
594.40	0.667
594.59	0.668
594.79	0.669
594.98	0.667
595.17	0.666
595.37	0.667
595.56	0.670
595.76	0.669
595.95	0.671
596.14	0.675
596.34	0.676
596.53	0.675
596.73	0.678
596.92	0.679
597.12	0.682
597.31	0.683
597.50	0.682
597.70	0.684
597.89	0.683
598.09	0.680
598.28	0.680
598.47	0.683
598.67	0.681
598.86	0.677
599.06	0.679
599.25	0.678
599.44	0.676
599.64	0.673
599.83	0.670
600.03	0.672
600.22	0.673
600.41	0.673
600.61	0.670
600.80	0.672
601.00	0.672
601.19	0.668
601.38	0.667
601.58	0.669
601.77	0.670
601.96	0.673
602.16	0.673
602.35	0.682
602.55	0.680
602.74	0.682
602.93	0.684
603.13	0.689
603.32	0.691
603.51	0.691
603.71	0.695
603.90	0.697
604.09	0.697
604.29	0.695
604.48	0.689
604.68	0.690
604.87	0.688
605.06	0.685
605.26	0.682
605.45	0.682
605.64	0.681
605.84	0.677
606.03	0.675
606.22	0.674
606.42	0.674
606.61	0.670
606.80	0.670
607.00	0.671
607.19	0.671
607.38	0.669
607.58	0.670
607.77	0.672
607.96	0.671
608.16	0.670
608.35	0.674
608.54	0.676
608.74	0.679
608.93	0.684
609.12	0.687
609.32	0.690
609.51	0.693
609.70	0.692
609.90	0.694
610.09	0.698
610.28	0.704
610.48	0.699
610.67	0.701
610.86	0.702
611.06	0.697
611.25	0.695
611.44	0.697
611.64	0.697
611.83	0.699
612.02	0.696
612.21	0.695
612.41	0.693
612.60	0.692
612.79	0.688
612.99	0.688
613.18	0.690
613.37	0.687
613.57	0.684
613.76	0.685
613.95	0.682
614.14	0.682
614.34	0.679
614.53	0.680
614.72	0.683
614.92	0.683
615.11	0.680
615.30	0.678
615.49	0.679
615.69	0.681
615.88	0.678
616.07	0.679
616.26	0.681
616.46	0.683
616.65	0.679
616.84	0.678
617.04	0.678
617.23	0.681
617.42	0.681
617.61	0.685
617.81	0.685
618.00	0.686
618.19	0.685
618.38	0.689
618.58	0.692
618.77	0.695
618.96	0.695
619.15	0.697
619.35	0.698
619.54	0.699
619.73	0.695
619.92	0.698
620.12	0.703
620.31	0.703
620.50	0.699
620.69	0.698
620.89	0.701
621.08	0.700
621.27	0.701
621.46	0.701
621.66	0.704
621.85	0.704
622.04	0.699
622.23	0.700
622.43	0.701
622.62	0.700
622.81	0.699
623.00	0.699
623.19	0.703
623.39	0.701
623.58	0.698
623.77	0.697
623.96	0.699
624.16	0.699
624.35	0.695
624.54	0.697
624.73	0.701
624.92	0.699
625.12	0.697
625.31	0.697
625.50	0.700
625.69	0.701
625.88	0.697
626.08	0.697
626.27	0.698
626.46	0.698
626.65	0.696
626.84	0.694
627.04	0.698
627.23	0.698
627.42	0.695
627.61	0.696
627.80	0.699
628.00	0.699
628.19	0.698
628.38	0.701
628.57	0.703
628.76	0.701
628.96	0.698
629.15	0.699
629.34	0.702
629.53	0.703
629.72	0.698
629.91	0.697
630.11	0.701
630.30	0.701
630.49	0.704
630.68	0.705
630.87	0.709
631.06	0.711
631.26	0.707
631.45	0.709
631.64	0.716
631.83	0.717
632.02	0.715
632.21	0.715
632.41	0.720
632.60	0.715
632.79	0.713
632.98	0.713
633.17	0.713
633.36	0.715
633.55	0.711
633.75	0.707
633.94	0.709
634.13	0.710
634.32	0.708
634.51	0.703
634.70	0.705
634.89	0.705
635.09	0.702
635.28	0.702
635.47	0.702
635.66	0.705
635.85	0.701
636.04	0.701
636.23	0.705
636.43	0.707
636.62	0.706
636.81	0.705
637.00	0.706
637.19	0.709
637.38	0.707
637.57	0.706
637.76	0.707
637.95	0.708
638.15	0.706
638.34	0.702
638.53	0.704
638.72	0.705
638.91	0.704
639.10	0.702
639.29	0.703
639.48	0.703
639.67	0.705
639.87	0.704
640.06	0.709
640.25	0.709
640.44	0.711
640.63	0.712
640.82	0.713
641.01	0.714
641.20	0.713
641.39	0.713
641.58	0.715
641.78	0.713
641.97	0.710
642.16	0.723
642.35	0.724
642.54	0.722
642.73	0.717
642.92	0.716
643.11	0.719
643.30	0.719
643.49	0.714
643.68	0.717
643.87	0.718
644.06	0.718
644.25	0.699
644.45	0.701
644.64	0.703
644.83	0.704
645.02	0.701
645.21	0.700
645.40	0.701
645.59	0.702
645.78	0.697
645.97	0.700
646.16	0.701
646.35	0.701
646.54	0.700
646.73	0.701
646.92	0.702
647.11	0.700
647.30	0.697
647.49	0.699
647.68	0.698
647.88	0.697
648.07	0.691
648.26	0.694
648.45	0.695
648.64	0.690
648.83	0.688
649.02	0.691
649.21	0.701
649.40	0.699
649.59	0.695
649.78	0.697
649.97	0.711
650.16	0.709
650.35	0.704
650.54	0.706
650.73	0.714
650.92	0.710
651.11	0.703
651.30	0.701
651.49	0.705
651.68	0.706
651.87	0.702
652.06	0.693
652.25	0.696
652.44	0.700
652.63	0.700
652.82	0.701
653.01	0.703
653.20	0.702
653.39	0.692
653.58	0.690
653.77	0.688
653.96	0.684
654.15	0.677
654.34	0.674
654.53	0.668
654.72	0.662
654.91	0.652
655.10	0.648
655.29	0.645
655.48	0.643
655.67	0.638
655.86	0.635
656.05	0.633
656.24	0.632
656.43	0.626
656.62	0.625
656.81	0.624
657.00	0.620
657.19	0.616
657.38	0.615
657.57	0.613
657.76	0.614
657.95	0.612
658.14	0.614
658.33	0.616
658.51	0.620
658.70	0.621
658.89	0.623
659.08	0.633
659.27	0.642
659.46	0.643
659.65	0.651
659.84	0.654
660.03	0.658
660.22	0.660
660.41	0.665
660.60	0.664
660.79	0.666
660.98	0.671
661.17	0.669
661.36	0.668
661.55	0.668
661.74	0.666
661.92	0.669
662.11	0.670
662.30	0.669
662.49	0.662
662.68	0.662
662.87	0.664
663.06	0.659
663.25	0.662
663.44	0.663
663.63	0.663
663.82	0.662
664.01	0.658
664.20	0.657
664.38	0.658
664.57	0.658
664.76	0.659
664.95	0.659
665.14	0.663
665.33	0.657
665.52	0.664
665.71	0.669
665.90	0.668
666.09	0.670
666.28	0.667
666.46	0.667
666.65	0.667
666.84	0.664
667.03	0.659
667.22	0.657
667.41	0.660
667.60	0.651
667.79	0.644
667.98	0.645
668.16	0.646
668.35	0.646
668.54	0.642
668.73	0.644
668.92	0.645
669.11	0.645
669.30	0.640
669.49	0.636
669.67	0.637
669.86	0.639
670.05	0.636
670.24	0.633
670.43	0.631
670.62	0.630
670.81	0.625
671.00	0.625
671.18	0.625
671.37	0.624
671.56	0.622
671.75	0.621
671.94	0.618
672.13	0.617
672.32	0.613
672.50	0.612
672.69	0.612
672.88	0.613
673.07	0.609
673.26	0.611
673.45	0.612
673.63	0.612
673.82	0.608
674.01	0.609
674.20	0.608
674.39	0.608
674.58	0.608
674.76	0.608
674.95	0.606
675.14	0.606
675.33	0.602
675.52	0.600
675.71	0.600
675.89	0.600
676.08	0.596
676.27	0.596
676.46	0.596
676.65	0.596
676.84	0.596
677.02	0.597
677.21	0.598
677.40	0.597
677.59	0.595
677.78	0.596
677.96	0.598
678.15	0.598
678.34	0.596
678.53	0.597
678.72	0.597
678.90	0.594
679.09	0.590
679.28	0.587
679.47	0.587
679.66	0.586
679.84	0.582
680.03	0.579
680.22	0.578
680.41	0.580
680.60	0.575
680.78	0.575
680.97	0.577
681.16	0.577
681.35	0.576
681.53	0.575
681.72	0.576
681.91	0.578
682.10	0.577
682.29	0.580
682.47	0.577
682.66	0.576
682.85	0.575
683.04	0.573
683.22	0.573
683.41	0.575
683.60	0.574
683.79	0.575
683.97	0.574
684.16	0.572
684.35	0.568
684.54	0.570
684.72	0.571
684.91	0.572
685.10	0.570
685.29	0.572
685.47	0.569
685.66	0.568
685.85	0.565
686.04	0.564
686.22	0.566
686.41	0.569
686.60	0.566
686.79	0.568
686.97	0.568
687.16	0.569
687.35	0.567
687.54	0.570
687.72	0.573
687.91	0.573
688.10	0.575
688.29	0.575
688.47	0.572
688.66	0.572
688.85	0.569
689.03	0.567
689.22	0.572
689.41	0.572
689.60	0.568
689.78	0.566
689.97	0.566
690.16	0.563
690.34	0.559
690.53	0.559
690.72	0.559
690.91	0.557
691.09	0.556
691.28	0.549
691.47	0.548
691.65	0.546
691.84	0.543
692.03	0.543
692.21	0.541
692.40	0.541
692.59	0.539
692.77	0.537
692.96	0.538
693.15	0.539
693.34	0.537
693.52	0.536
693.71	0.536
693.90	0.538
694.08	0.538
694.27	0.539
694.46	0.547
694.64	0.548
694.83	0.548
695.02	0.547
695.20	0.547
695.39	0.547
695.58	0.547
695.76	0.548
695.95	0.547
696.14	0.546
696.32	0.544
696.51	0.535
696.70	0.535
696.88	0.536
697.07	0.535
697.26	0.536
697.44	0.537
697.63	0.536
697.81	0.533
698.00	0.533
698.19	0.532
698.37	0.533
698.56	0.532
698.75	0.532
698.93	0.531
699.12	0.531
699.31	0.530
699.49	0.530
699.68	0.530
699.87	0.533
700.05	0.533
700.24	0.533
700.42	0.534
700.61	0.534
700.80	0.532
700.98	0.532
701.17	0.533
701.36	0.532
701.54	0.532
701.73	0.533
701.91	0.530
702.10	0.530
702.29	0.528
702.47	0.527
702.66	0.528
702.84	0.529
703.03	0.527
703.22	0.529
703.40	0.528
703.59	0.529
703.77	0.529
703.96	0.529
704.15	0.530
704.33	0.530
704.52	0.530
704.70	0.529
704.89	0.529
705.08	0.529
705.26	0.525
705.45	0.525
705.63	0.524
705.82	0.522
706.00	0.520
706.19	0.520
706.38	0.519
706.56	0.518
706.75	0.516
706.93	0.515
707.12	0.516
707.30	0.516
707.49	0.514
707.68	0.513
707.86	0.512
708.05	0.513
708.23	0.510
708.42	0.510
708.60	0.513
708.79	0.512
708.98	0.511
709.16	0.510
709.35	0.512
709.53	0.515
709.72	0.514
709.90	0.515
710.09	0.517
710.27	0.519
710.46	0.522
710.64	0.521
710.83	0.523
711.02	0.524
711.20	0.523
711.39	0.522
711.57	0.519
711.76	0.520
711.94	0.518
712.13	0.519
712.31	0.519
712.50	0.515
712.68	0.513
712.87	0.514
713.05	0.514
713.24	0.515
713.42	0.514
713.61	0.515
713.79	0.516
713.98	0.516
714.16	0.517
714.35	0.517
714.54	0.518
714.72	0.518
714.91	0.516
715.09	0.521
715.28	0.524
715.46	0.524
715.65	0.522
715.83	0.521
716.02	0.524
716.20	0.520
716.39	0.519
716.57	0.520
716.76	0.522
716.94	0.523
717.12	0.515
717.31	0.517
717.49	0.519
717.68	0.521
717.86	0.521
718.05	0.522
718.23	0.524
718.42	0.526
718.60	0.527
718.79	0.534
718.97	0.536
719.16	0.537
719.34	0.534
719.53	0.534
719.71	0.533
719.90	0.534
720.08	0.533
720.27	0.533
720.45	0.534
720.63	0.532
720.82	0.527
721.00	0.528
721.19	0.531
721.37	0.531
721.56	0.532
721.74	0.535
721.93	0.543
722.11	0.547
722.30	0.546
722.48	0.550
722.66	0.552
722.85	0.551
723.03	0.552
723.22	0.551
723.40	0.554
723.59	0.553
723.77	0.557
723.95	0.551
724.14	0.552
724.32	0.554
724.51	0.553
724.69	0.554
724.88	0.554
725.06	0.552
725.24	0.553
725.43	0.554
725.61	0.557
725.80	0.552
725.98	0.549
726.16	0.547
726.35	0.553
726.53	0.553
726.72	0.551
726.90	0.562
727.09	0.563
727.27	0.568
727.45	0.566
727.64	0.573
727.82	0.581
728.01	0.586
728.19	0.584
728.37	0.590
728.56	0.593
728.74	0.600
728.92	0.589
729.11	0.590
729.29	0.589
729.48	0.592
729.66	0.584
729.84	0.583
730.03	0.585
730.21	0.586
730.40	0.578
730.58	0.579
730.76	0.578
730.95	0.580
731.13	0.581
731.31	0.593
731.50	0.600
731.68	0.604
731.86	0.601
732.05	0.616
732.23	0.619
732.42	0.621
732.60	0.624
732.78	0.629
732.97	0.645
733.15	0.653
733.33	0.643
733.52	0.649
733.70	0.657
733.88	0.667
734.07	0.654
734.25	0.678
734.43	0.687
734.62	0.687
734.80	0.684
734.98	0.676
735.17	0.680
735.35	0.685
735.53	0.675
735.72	0.679
735.90	0.697
736.08	0.714
736.27	0.692
736.45	0.700
736.63	0.710
736.82	0.720
737.00	0.719
737.18	0.728
737.37	0.757
737.55	0.779
737.73	0.776
737.92	0.777
738.10	0.773
738.28	0.791
738.46	0.783
738.65	0.796
738.83	0.814
739.01	0.864
739.20	0.858
739.38	0.844
739.56	0.835
739.75	0.840
739.93	0.810
740.11	0.832
740.29	0.828
740.48	0.835
740.66	0.815
740.84	0.810
741.03	0.773
741.21	0.782
741.39	0.764
741.57	0.775
741.76	0.786
741.94	0.792
742.12	0.762
742.31	0.768
742.49	0.783
742.67	0.806
742.85	0.820
743.04	0.827
743.22	0.833
743.40	0.882
743.58	0.868
743.77	0.881
743.95	0.909
744.13	0.956
744.31	0.944
744.50	0.940
744.68	0.933
744.86	0.910
745.04	0.925
745.23	0.989
745.41	0.970
745.59	0.971
745.77	0.941
745.96	0.931
746.14	0.936
746.32	0.931
746.50	0.921
746.69	0.907
746.87	0.913
747.05	0.901
747.23	0.834
747.42	0.821
747.60	0.840
747.78	0.847
747.96	0.877
748.14	0.836
748.33	0.866
748.51	0.859
748.69	0.855
748.87	0.877
749.06	0.869
749.24	0.869
749.42	0.851
749.60	0.835
749.78	0.843
749.97	0.800
750.15	0.794
750.33	0.792
750.51	0.814
750.69	0.818
750.88	0.829
751.06	0.838
751.24	0.858
751.42	0.856
751.60	0.854
751.79	0.915
751.97	0.957
752.15	0.960
752.33	0.929
752.51	0.988
752.69	1.000
752.88	0.968
753.06	1.010
753.24	0.991
753.42	1.019
753.60	1.163
753.78	1.046
753.97	1.059
754.15	1.071
754.33	1.100
754.51	0.995
754.69	0.980
754.87	1.003
755.06	0.938
755.24	0.939
755.42	0.949
755.60	0.853
755.78	0.860
755.96	0.811
756.15	0.814
756.33	0.817
756.51	0.832
756.69	0.824
756.87	0.792
757.05	0.808
757.23	0.795
757.42	0.764
757.60	0.764
757.78	0.753
757.96	0.755
758.14	0.741
758.32	0.726
758.50	0.736
758.69	0.734
758.87	0.728
759.05	0.732
759.23	0.739
759.41	0.740
759.59	0.736
759.77	0.754
759.95	0.778
760.13	0.818
760.32	0.820
760.50	0.815
760.68	0.831
760.86	0.833
761.04	0.807
761.22	0.811
761.40	0.854
761.58	0.852
761.76	0.831
761.95	0.814
762.13	0.777
762.31	0.778
762.49	0.752
762.67	0.771
762.85	0.782
763.03	0.780
763.21	0.768
763.39	0.749
763.57	0.750
763.75	0.746
763.94	0.733
764.12	0.732
764.30	0.750
764.48	0.754
764.66	0.722
764.84	0.720
765.02	0.751
765.20	0.755
765.38	0.737
765.56	0.741
765.74	0.773
765.92	0.772
766.10	0.778
766.28	0.773
766.46	0.795
766.65	0.794
766.83	0.783
767.01	0.771
767.19	0.774
767.37	0.776
767.55	0.767
767.73	0.748
767.91	0.752
768.09	0.740
768.27	0.732
768.45	0.723
768.63	0.727
768.81	0.730
768.99	0.707
769.17	0.729
769.35	0.738
769.53	0.738
769.71	0.723
769.89	0.731
770.07	0.734
770.25	0.717
770.43	0.700
770.61	0.720
770.79	0.722
770.97	0.730
771.15	0.705
771.33	0.707
771.51	0.705
771.69	0.715
771.87	0.722
772.05	0.727
772.24	0.733
772.42	0.742
772.60	0.724
772.78	0.779
772.96	0.800
773.14	0.795
773.32	0.779
773.49	0.789
773.67	0.786
773.85	0.771
774.03	0.763
774.21	0.793
774.39	0.802
774.57	0.820
774.75	0.757
774.93	0.754
775.11	0.773
775.29	0.779
775.47	0.778
775.65	0.787
775.83	0.798
776.01	0.818
776.19	0.776
776.37	0.779
776.55	0.777
776.73	0.774
776.91	0.773
777.09	0.756
777.27	0.752
777.45	0.743
777.63	0.725
777.81	0.719
777.99	0.706
778.17	0.706
778.35	0.687
778.53	0.675
778.71	0.678
778.89	0.666
779.07	0.659
779.24	0.663
779.42	0.665
779.60	0.682
779.78	0.680
779.96	0.686
780.14	0.691
780.32	0.707
780.50	0.696
780.68	0.695
780.86	0.687
781.04	0.701
781.22	0.706
781.40	0.715
781.58	0.703
781.75	0.699
781.93	0.685
782.11	0.683
782.29	0.670
782.47	0.668
782.65	0.659
782.83	0.682
783.01	0.676
783.19	0.669
783.37	0.657
783.55	0.659
783.72	0.673
783.90	0.683
784.08	0.679
784.26	0.692
784.44	0.710
784.62	0.713
784.80	0.684
784.98	0.690
785.16	0.696
785.33	0.713
785.51	0.705
785.69	0.691
785.87	0.686
786.05	0.696
786.23	0.693
786.41	0.689
786.59	0.692
786.77	0.694
786.94	0.684
787.12	0.684
787.30	0.680
787.48	0.676
787.66	0.668
787.84	0.670
788.02	0.660
788.19	0.658
788.37	0.648
788.55	0.649
788.73	0.651
788.91	0.646
789.09	0.634
789.27	0.624
789.44	0.636
789.62	0.643
789.80	0.652
789.98	0.675
790.16	0.664
790.34	0.660
790.51	0.651
790.69	0.666
790.87	0.669
791.05	0.667
791.23	0.665
791.41	0.661
791.58	0.668
791.76	0.648
791.94	0.623
792.12	0.630
792.30	0.631
792.48	0.628
792.65	0.624
792.83	0.630
793.01	0.635
793.19	0.632
793.37	0.621
793.54	0.616
793.72	0.624
793.90	0.622
794.08	0.613
794.26	0.615
794.43	0.622
794.61	0.606
794.79	0.599
794.97	0.597
795.15	0.600
795.32	0.604
795.50	0.594
795.68	0.590
795.86	0.593
796.04	0.595
796.21	0.590
796.39	0.589
796.57	0.601
796.75	0.606
796.92	0.609
797.10	0.615
797.28	0.617
797.46	0.620
797.64	0.624
797.81	0.631
797.99	0.635
798.17	0.639
798.35	0.634
798.52	0.637
798.70	0.631
798.88	0.640
799.06	0.639
799.23	0.640
799.41	0.646
799.59	0.639
799.77	0.630
799.94	0.635
800.12	0.640
800.30	0.657
800.48	0.657
800.65	0.658
800.83	0.647
801.01	0.640
801.19	0.642
801.36	0.637
801.54	0.639
801.72	0.646
801.90	0.636
802.07	0.632
802.25	0.618
802.43	0.603
802.60	0.599
802.78	0.605
802.96	0.609
803.14	0.604
803.31	0.605
803.49	0.606
803.67	0.602
803.84	0.607
804.02	0.602
804.20	0.605
804.38	0.610
804.55	0.610
804.73	0.598
804.91	0.599
805.08	0.608
805.26	0.604
805.44	0.665
805.61	0.667
805.79	0.666
805.97	0.667
806.15	0.660
806.32	0.655
806.50	0.659
806.68	0.660
806.85	0.653
807.03	0.645
807.21	0.659
807.38	0.596
807.56	0.587
807.74	0.595
807.91	0.598
808.09	0.600
808.27	0.617
808.44	0.639
808.62	0.647
808.80	0.648
808.97	0.644
809.15	0.639
809.33	0.652
809.50	0.660
809.68	0.649
809.86	0.656
810.03	0.684
810.21	0.668
810.39	0.652
810.56	0.659
810.74	0.677
810.91	0.743
811.09	0.737
811.27	0.757
811.44	0.759
811.62	0.762
811.80	0.749
811.97	0.723
812.15	0.722
812.33	0.720
812.50	0.706
812.68	0.696
812.85	0.644
813.03	0.646
813.21	0.618
813.38	0.613
813.56	0.614
813.74	0.624
813.91	0.630
814.09	0.658
814.26	0.650
814.44	0.651
814.62	0.643
814.79	0.645
814.97	0.647
815.14	0.649
815.32	0.651
815.50	0.667
815.67	0.667
815.85	0.658
816.02	0.647
816.20	0.652
816.38	0.666
816.55	0.670
816.73	0.671
816.90	0.678
817.08	0.705
817.26	0.713
817.43	0.696
817.61	0.719
817.78	0.736
817.96	0.717
818.13	0.710
818.31	0.709
818.49	0.716
818.66	0.708
818.84	0.698
819.01	0.682
819.19	0.686
819.36	0.687
819.54	0.659
819.71	0.695
819.89	0.705
820.07	0.716
820.24	0.714
820.42	0.716
820.59	0.733
820.77	0.752
820.94	0.744
821.12	0.756
821.29	0.767
821.47	0.771
821.64	0.719
821.82	0.731
822.00	0.730
822.17	0.726
822.35	0.723
822.52	0.723
822.70	0.715
822.87	0.722
823.05	0.711
823.22	0.722
823.40	0.743
823.57	0.763
823.75	0.749
823.92	0.767
824.10	0.783
824.27	0.821
824.45	0.815
824.62	0.865
824.80	0.878
824.97	0.888
825.15	0.878
825.32	0.891
825.50	0.888
825.67	0.895
825.85	0.877
826.02	0.891
826.20	0.899
826.37	1.001
826.55	0.941
826.72	1.090
826.90	1.135
827.07	1.174
827.25	1.136
827.42	1.252
827.60	1.333
827.77	1.428
827.95	1.409
828.12	1.469
828.30	1.253
828.47	1.315
828.65	1.082
828.82	1.129
829.00	1.148
829.17	1.202
829.34	1.204
829.52	1.228
829.69	3.349
829.87	-0.000
830.04	-0.000
830.22	-0.000
830.39	-0.000
830.57	-0.000
830.74	-0.000
830.92	-0.000
831.09	-0.000
831.26	-0.000
831.44	-0.000
831.61	-0.000
831.79	-0.000
831.96	-0.000
832.14	-0.000
832.31	-0.000
832.49	-0.000
832.66	-0.000
832.83	-0.000
833.01	-0.000
833.18	-0.000
833.36	-0.000
833.53	-0.000
833.70	-0.000
833.88	-0.000
834.05	-0.000
834.23	-0.000
834.40	-0.000
834.58	-0.000
834.75	-0.000
834.92	-0.000
835.10	-0.000
835.27	-0.000
835.45	-0.000
835.62	-0.000
835.79	-0.000
835.97	-0.000
836.14	-0.000
836.32	-0.000
836.49	-0.000
836.66	-0.000
836.84	-0.000
837.01	-0.000
837.18	-0.000
837.36	-0.000
837.53	-0.000
837.71	-0.000
837.88	-0.000
838.05	-0.000
838.23	-0.000
838.40	-0.000
838.58	-0.000
838.75	-0.000
838.92	-0.000
839.10	-0.000
839.27	-0.000
839.44	-0.000
839.62	-0.000
839.79	-0.000
839.96	-0.000
840.14	-0.000
840.31	-0.000
840.48	-0.000
840.66	-0.000
840.83	-0.000
841.01	-0.000
841.18	-0.000
841.35	-0.000
841.53	-0.000
841.70	-0.000
841.87	-0.000
842.05	-0.000
842.22	-0.000
842.39	-0.000
842.57	-0.000
842.74	-0.000
842.91	-0.000
843.09	-0.000
843.26	-0.000
843.43	-0.000
843.60	-0.000
843.78	-0.000
843.95	-0.000
844.12	-0.000
844.30	-0.000
844.47	-0.000
844.64	-0.000
844.82	-0.000
844.99	-0.000
845.16	-0.000
845.34	-0.000
845.51	-0.000
845.68	-0.000
845.85	-0.000
846.03	-0.000
846.20	-0.000
846.37	-0.000
846.55	-0.000
846.72	-0.000
846.89	-0.000
847.06	-0.000
847.24	-0.000
847.41	-0.000
847.58	-0.000
847.76	-0.000
847.93	-0.000
848.10	-0.000
848.27	-0.000
848.45	-0.000
848.62	-0.000
848.79	-0.000
848.97	-0.000
849.14	-0.000
849.31	-0.000
849.48	-0.000
849.66	-0.000
849.83	-0.000
850.00	-0.000
850.17	-0.000
850.35	-0.000
850.52	-0.000
850.69	-0.000
850.86	-0.000
851.04	-0.000
851.21	-0.000
851.38	-0.000
851.55	-0.000
851.72	-0.000
851.90	-0.000
852.07	-0.000
852.24	-0.000
852.41	-0.000
852.59	-0.000
852.76	-0.000
852.93	-0.000
853.10	-0.000
853.28	-0.000
853.45	-0.000
853.62	-0.000
853.79	-0.000
853.96	-0.000
854.14	-0.000
854.31	-0.000
854.48	-0.000
854.65	-0.000
854.82	-0.000
855.00	-0.000
855.17	-0.000
855.34	-0.000
855.51	-0.000
855.68	-0.000
855.86	-0.000
856.03	-0.000
856.20	-0.000
856.37	-0.000
856.54	-0.000
856.72	-0.000
856.89	-0.000
857.06	-0.000
857.23	-0.000
857.40	-0.000
857.57	-0.000
857.75	-0.000
857.92	-0.000
858.09	-0.000
858.26	-0.000
858.43	-0.000
858.60	-0.000
858.78	-0.000
858.95	-0.000
859.12	-0.000
859.29	-0.000
859.46	-0.000
859.63	-0.000
859.81	-0.000
859.98	-0.000
860.15	-0.000
860.32	-0.000
860.49	-0.000
860.66	-0.000
860.83	-0.000
861.01	-0.000
861.18	-0.000
861.35	-0.000
861.52	-0.000
861.69	-0.000
861.86	-0.000
862.03	-0.000
862.21	-0.000
862.38	-0.000
862.55	-0.000
862.72	-0.000
862.89	-0.000
863.06	-0.000
863.23	-0.000
863.40	-0.000
863.58	-0.000
863.75	-0.000
863.92	-0.000
864.09	-0.000
864.26	-0.000
864.43	-0.000
864.60	-0.000
864.77	-0.000
864.94	-0.000
865.11	-0.000
865.29	-0.000
865.46	-0.000
865.63	-0.000
865.80	-0.000
865.97	-0.000
866.14	-0.000
866.31	-0.000
866.48	-0.000
866.65	-0.000
866.82	-0.000
866.99	-0.000
867.16	-0.000
867.34	-0.000
867.51	-0.000
867.68	-0.000
867.85	-0.000
868.02	-0.000
868.19	-0.000
868.36	-0.000
868.53	-0.000
868.70	-0.000
868.87	-0.000
869.04	-0.000
869.21	-0.000
869.38	-0.000
869.55	-0.000
869.72	-0.000
869.89	-0.000
870.06	-0.000
870.24	-0.000
870.41	-0.000
870.58	-0.000
870.75	-0.000
870.92	-0.000
871.09	-0.000
871.26	-0.000
871.43	-0.000
871.60	-0.000
871.77	-0.000
871.94	-0.000
872.11	-0.000
872.28	-0.000
872.45	-0.000
872.62	-0.000
872.79	-0.000
872.96	-0.000
873.13	-0.000
873.30	-0.000
873.47	-0.000
873.64	-0.000
873.81	-0.000
873.98	-0.000
874.15	-0.000
874.32	-0.000
874.49	-0.000
874.66	-0.000
874.83	-0.000
875.00	-0.000
875.17	-0.000
875.34	-0.000
875.51	-0.000
875.68	-0.000
875.85	-0.000
876.02	-0.000
876.19	-0.000
876.36	-0.000
876.53	-0.000
876.70	-0.000
876.87	-0.000
877.04	-0.000
877.21	-0.000
877.38	-0.000
877.55	-0.000
877.72	-0.000
877.89	-0.000
878.06	-0.000
878.23	-0.000
878.39	-0.000
878.56	-0.000
878.73	-0.000
878.90	-0.000
879.07	-0.000
879.24	-0.000
879.41	-0.000
879.58	-0.000
879.75	-0.000
879.92	-0.000
880.09	-0.000
880.26	-0.000
880.43	-0.000
880.60	-0.000
880.77	-0.000
880.94	-0.000
881.11	-0.000
881.27	-0.000
881.44	-0.000
881.61	-0.000
881.78	-0.000
881.95	-0.000
882.12	-0.000
882.29	-0.000
882.46	-0.000
882.63	-0.000
882.80	-0.000
882.97	-0.000
883.14	-0.000
883.30	-0.000
883.47	-0.000
883.64	-0.000
883.81	-0.000
883.98	-0.000
884.15	-0.000
884.32	-0.000
884.49	-0.000
884.66	-0.000
884.82	-0.000
884.99	-0.000
885.16	-0.000
885.33	-0.000
885.50	-0.000
885.67	-0.000
885.84	-0.000
886.01	-0.000
886.17	-0.000
886.34	-0.000
886.51	-0.000
886.68	-0.000
886.85	-0.000
887.02	-0.000
887.19	-0.000
887.36	-0.000
887.52	-0.000
887.69	-0.000
887.86	-0.000
888.03	-0.000
888.20	-0.000
888.37	-0.000
888.54	-0.000
888.70	-0.000
888.87	-0.000
889.04	-0.000
889.21	-0.000
889.38	-0.000
889.55	-0.000
889.71	-0.000
889.88	-0.000
890.05	-0.000
890.22	-0.000
890.39	-0.000
>>>>>End Processed Spectral Data<<<<<
