SpectraSuite Data File
++++++++++++++++++++++++++++++++++++
Date: Fri Jun 19 14:42:45 CEST 2015
User: introlabs
Dark Spectrum Present: Yes
Reference Spectrum Present: Yes
Number of Sampled Component Spectra: 1
Spectrometers: USB4H08886
Integration Time (usec): 745692 (USB4H08886)
Spectra Averaged: 5 (USB4H08886)
Boxcar Smoothing: 5 (USB4H08886)
Correct for Electrical Dark: Yes (USB4H08886)
Strobe/Lamp Enabled: No (USB4H08886)
Correct for Detector Non-linearity: Yes (USB4H08886)
Correct for Stray Light: Yes (USB4H08886)
Number of Pixels in Processed Spectrum: 3648
>>>>>Begin Processed Spectral Data<<<<<
178.14	-0.000
178.36	-0.000
178.57	-0.000
178.79	-0.000
179.01	-0.000
179.22	-0.000
179.44	-0.000
179.65	-0.000
179.87	-0.000
180.08	-0.000
180.30	-0.000
180.52	-0.000
180.73	-0.000
180.95	-0.000
181.16	-0.000
181.38	-0.000
181.59	-0.000
181.81	-0.000
182.03	-0.000
182.24	-0.000
182.46	-0.000
182.67	-0.000
182.89	-0.000
183.10	-0.000
183.32	-0.000
183.54	-0.000
183.75	-0.000
183.97	-0.000
184.18	-0.000
184.40	-0.000
184.61	-0.000
184.83	-0.000
185.04	-0.000
185.26	-0.000
185.48	-0.000
185.69	-0.000
185.91	-0.000
186.12	-0.000
186.34	-0.000
186.55	-0.000
186.77	-0.000
186.98	-0.000
187.20	-0.000
187.42	-0.000
187.63	-0.000
187.85	-0.000
188.06	-0.000
188.28	-0.000
188.49	-0.000
188.71	-0.000
188.92	-0.000
189.14	-0.000
189.36	-0.000
189.57	-0.000
189.79	-0.000
190.00	-0.000
190.22	-0.000
190.43	-0.000
190.65	-0.000
190.86	-0.000
191.08	-0.000
191.29	-0.000
191.51	-0.000
191.72	-0.000
191.94	-0.000
192.16	-0.000
192.37	-0.000
192.59	-0.000
192.80	-0.000
193.02	-0.000
193.23	-0.000
193.45	-0.000
193.66	-0.000
193.88	-0.000
194.09	-0.000
194.31	-0.000
194.52	-0.000
194.74	-0.000
194.95	-0.000
195.17	-0.000
195.38	-0.000
195.60	-0.000
195.81	-0.000
196.03	-0.000
196.25	-0.000
196.46	-0.000
196.68	-0.000
196.89	-0.000
197.11	-0.000
197.32	-0.000
197.54	-0.000
197.75	-0.000
197.97	-0.000
198.18	-0.000
198.40	-0.000
198.61	-0.000
198.83	-0.000
199.04	-0.000
199.26	-0.000
199.47	-0.000
199.69	-0.000
199.90	-0.000
200.12	-0.000
200.33	-0.000
200.55	-0.000
200.76	-0.000
200.98	-0.000
201.19	-0.000
201.41	-0.000
201.62	-0.000
201.84	-0.000
202.05	-0.000
202.27	-0.000
202.48	-0.000
202.70	-0.000
202.91	-0.000
203.13	-0.000
203.34	-0.000
203.56	-0.000
203.77	-0.000
203.99	-0.000
204.20	-0.000
204.42	-0.000
204.63	-0.000
204.85	-0.000
205.06	-0.000
205.28	-0.000
205.49	-0.000
205.71	-0.000
205.92	-0.000
206.14	-0.000
206.35	-0.000
206.56	-0.000
206.78	-0.000
206.99	-0.000
207.21	-0.000
207.42	-0.000
207.64	-0.000
207.85	-0.000
208.07	-0.000
208.28	-0.000
208.50	-0.000
208.71	-0.000
208.93	-0.000
209.14	-0.000
209.36	-0.000
209.57	-0.000
209.79	-0.000
210.00	-0.000
210.22	-0.000
210.43	-0.000
210.64	-0.000
210.86	-0.000
211.07	-0.000
211.29	-0.000
211.50	-0.000
211.72	-0.000
211.93	-0.000
212.15	-0.000
212.36	-0.000
212.58	-0.000
212.79	-0.000
213.01	-0.000
213.22	-0.000
213.43	-0.000
213.65	-0.000
213.86	-0.000
214.08	-0.000
214.29	-0.000
214.51	-0.000
214.72	-0.000
214.94	-0.000
215.15	-0.000
215.36	-0.000
215.58	-0.000
215.79	-0.000
216.01	-0.000
216.22	-0.000
216.44	-0.000
216.65	-0.000
216.87	-0.000
217.08	-0.000
217.29	-0.000
217.51	-0.000
217.72	-0.000
217.94	-0.000
218.15	-0.000
218.37	-0.000
218.58	-0.000
218.80	-0.000
219.01	-0.000
219.22	-0.000
219.44	-0.000
219.65	-0.000
219.87	-0.000
220.08	-0.000
220.30	-0.000
220.51	-0.000
220.72	-0.000
220.94	-0.000
221.15	-0.000
221.37	-0.000
221.58	-0.000
221.79	-0.000
222.01	-0.000
222.22	-0.000
222.44	-0.000
222.65	-0.000
222.87	-0.000
223.08	-0.000
223.29	-0.000
223.51	-0.000
223.72	-0.000
223.94	-0.000
224.15	-0.000
224.36	-0.000
224.58	-0.000
224.79	-0.000
225.01	-0.000
225.22	-0.000
225.44	-0.000
225.65	-0.000
225.86	-0.000
226.08	-0.000
226.29	-0.000
226.51	-0.000
226.72	-0.000
226.93	-0.000
227.15	-0.000
227.36	-0.000
227.58	-0.000
227.79	-0.000
228.00	-0.000
228.22	-0.000
228.43	-0.000
228.65	-0.000
228.86	-0.000
229.07	-0.000
229.29	-0.000
229.50	-0.000
229.72	-0.000
229.93	-0.000
230.14	-0.000
230.36	-0.000
230.57	-0.000
230.78	-0.000
231.00	-0.000
231.21	-0.000
231.43	-0.000
231.64	-0.000
231.85	-0.000
232.07	-0.000
232.28	-0.000
232.50	-0.000
232.71	-0.000
232.92	-0.000
233.14	-0.000
233.35	-0.000
233.56	-0.000
233.78	-0.000
233.99	-0.000
234.21	-0.000
234.42	-0.000
234.63	-0.000
234.85	-0.000
235.06	-0.000
235.27	-0.000
235.49	-0.000
235.70	-0.000
235.91	-0.000
236.13	-0.000
236.34	-0.000
236.56	-0.000
236.77	-0.000
236.98	-0.000
237.20	-0.000
237.41	-0.000
237.62	-0.000
237.84	-0.000
238.05	-0.000
238.26	-0.000
238.48	-0.000
238.69	-0.000
238.91	-0.000
239.12	-0.000
239.33	-0.000
239.55	-0.000
239.76	-0.000
239.97	-0.000
240.19	-0.000
240.40	-0.000
240.61	-0.000
240.83	-0.000
241.04	-0.000
241.25	-0.000
241.47	-0.000
241.68	-0.000
241.89	-0.000
242.11	-0.000
242.32	-0.000
242.53	-0.000
242.75	-0.000
242.96	-0.000
243.17	-0.000
243.39	-0.000
243.60	-0.000
243.81	-0.000
244.03	-0.000
244.24	-0.000
244.45	-0.000
244.67	-0.000
244.88	-0.000
245.09	-0.000
245.31	-0.000
245.52	-0.000
245.73	-0.000
245.95	-0.000
246.16	-0.000
246.37	-0.000
246.59	-0.000
246.80	-0.000
247.01	-0.000
247.23	-0.000
247.44	-0.000
247.65	-0.000
247.87	-0.000
248.08	-0.000
248.29	-0.000
248.51	-0.000
248.72	-0.000
248.93	-0.000
249.15	-0.000
249.36	-0.000
249.57	-0.000
249.78	-0.000
250.00	-0.000
250.21	-0.000
250.42	-0.000
250.64	-0.000
250.85	-0.000
251.06	-0.000
251.28	-0.000
251.49	-0.000
251.70	-0.000
251.92	-0.000
252.13	-0.000
252.34	-0.000
252.55	-0.000
252.77	-0.000
252.98	-0.000
253.19	-0.000
253.41	-0.000
253.62	-0.000
253.83	-0.000
254.05	-0.000
254.26	-0.000
254.47	-0.000
254.68	-0.000
254.90	-0.000
255.11	-0.000
255.32	-0.000
255.54	-0.000
255.75	-0.000
255.96	-0.000
256.17	-0.000
256.39	-0.000
256.60	-0.000
256.81	-0.000
257.03	-0.000
257.24	-0.000
257.45	-0.000
257.66	-0.000
257.88	-0.000
258.09	-0.000
258.30	-0.000
258.51	-0.000
258.73	-0.000
258.94	-0.000
259.15	-0.000
259.37	-0.000
259.58	-0.000
259.79	-0.000
260.00	-0.000
260.22	-0.000
260.43	-0.000
260.64	-0.000
260.85	-0.000
261.07	-0.000
261.28	-0.000
261.49	-0.000
261.71	-0.000
261.92	-0.000
262.13	-0.000
262.34	-0.000
262.56	-0.000
262.77	-0.000
262.98	-0.000
263.19	-0.000
263.41	-0.000
263.62	-0.000
263.83	-0.000
264.04	-0.000
264.26	-0.000
264.47	-0.000
264.68	-0.000
264.89	-0.000
265.11	-0.000
265.32	-0.000
265.53	-0.000
265.74	-0.000
265.96	-0.000
266.17	-0.000
266.38	-0.000
266.59	-0.000
266.81	-0.000
267.02	-0.000
267.23	-0.000
267.44	-0.000
267.65	-0.000
267.87	-0.000
268.08	-0.000
268.29	-0.000
268.50	-0.000
268.72	-0.000
268.93	-0.000
269.14	-0.000
269.35	-0.000
269.57	-0.000
269.78	-0.000
269.99	-0.000
270.20	-0.000
270.41	-0.000
270.63	-0.000
270.84	-0.000
271.05	-0.000
271.26	-0.000
271.48	-0.000
271.69	-0.000
271.90	-0.000
272.11	-0.000
272.32	-0.000
272.54	-0.000
272.75	-0.000
272.96	-0.000
273.17	-0.000
273.39	-0.000
273.60	-0.000
273.81	-0.000
274.02	-0.000
274.23	-0.000
274.45	-0.000
274.66	-0.000
274.87	-0.000
275.08	-0.000
275.29	-0.000
275.51	-0.000
275.72	-0.000
275.93	-0.000
276.14	-0.000
276.35	-0.000
276.57	-0.000
276.78	-0.000
276.99	-0.000
277.20	-0.000
277.41	-0.000
277.63	-0.000
277.84	-0.000
278.05	-0.000
278.26	-0.000
278.47	-0.000
278.69	-0.000
278.90	-0.000
279.11	-0.000
279.32	-0.000
279.53	-0.000
279.74	-0.000
279.96	-0.000
280.17	-0.000
280.38	-0.000
280.59	-0.000
280.80	-0.000
281.02	-0.000
281.23	-0.000
281.44	-0.000
281.65	-0.000
281.86	-0.000
282.07	-0.000
282.29	-0.000
282.50	-0.000
282.71	-0.000
282.92	-0.000
283.13	-0.000
283.35	-0.000
283.56	-0.000
283.77	-0.000
283.98	-0.000
284.19	-0.000
284.40	-0.000
284.62	-0.000
284.83	-0.000
285.04	-0.000
285.25	-0.000
285.46	-0.000
285.67	-0.000
285.88	-0.000
286.10	-0.000
286.31	-0.000
286.52	-0.000
286.73	-0.000
286.94	-0.000
287.15	-0.000
287.37	-0.000
287.58	-0.000
287.79	-0.000
288.00	-0.000
288.21	-0.000
288.42	-0.000
288.63	-0.000
288.85	-0.000
289.06	-0.000
289.27	-0.000
289.48	-0.000
289.69	-0.000
289.90	-0.000
290.11	-0.000
290.33	-0.000
290.54	-0.000
290.75	-0.000
290.96	-0.000
291.17	-0.000
291.38	-0.000
291.59	-0.000
291.81	-0.000
292.02	-0.000
292.23	-0.000
292.44	-0.000
292.65	-0.000
292.86	-0.000
293.07	-0.000
293.28	-0.000
293.50	-0.000
293.71	-0.000
293.92	-0.000
294.13	-0.000
294.34	-0.000
294.55	-0.000
294.76	-0.000
294.97	-0.000
295.19	-0.000
295.40	-0.000
295.61	-0.000
295.82	-0.000
296.03	-0.000
296.24	-0.000
296.45	2.270
296.66	1.825
296.87	1.842
297.09	1.923
297.30	2.196
297.51	1.766
297.72	1.716
297.93	1.810
298.14	1.769
298.35	1.729
298.56	1.703
298.77	1.849
298.99	1.825
299.20	1.790
299.41	1.766
299.62	1.707
299.83	1.691
300.04	1.625
300.25	1.620
300.46	1.658
300.67	1.628
300.88	1.576
301.10	1.579
301.31	1.649
301.52	1.587
301.73	1.527
301.94	1.531
302.15	1.556
302.36	1.502
302.57	1.439
302.78	1.455
302.99	1.502
303.20	1.525
303.41	1.428
303.63	1.412
303.84	1.418
304.05	1.411
304.26	1.346
304.47	1.345
304.68	1.351
304.89	1.340
305.10	1.294
305.31	1.278
305.52	1.319
305.73	1.313
305.94	1.272
306.15	1.266
306.37	1.291
306.58	1.298
306.79	1.267
307.00	1.290
307.21	1.328
307.42	1.320
307.63	1.285
307.84	1.252
308.05	1.290
308.26	1.293
308.47	1.268
308.68	1.261
308.89	1.264
309.10	1.264
309.31	1.222
309.52	1.213
309.73	1.228
309.95	1.220
310.16	1.191
310.37	1.182
310.58	1.198
310.79	1.195
311.00	1.193
311.21	1.196
311.42	1.196
311.63	1.191
311.84	1.172
312.05	1.171
312.26	1.199
312.47	1.213
312.68	1.185
312.89	1.167
313.10	1.174
313.31	1.146
313.52	1.148
313.73	1.149
313.94	1.152
314.15	1.138
314.36	1.117
314.57	1.107
314.78	1.094
314.99	1.090
315.21	1.077
315.42	1.084
315.63	1.098
315.84	1.074
316.05	1.060
316.26	1.067
316.47	1.082
316.68	1.078
316.89	1.057
317.10	1.077
317.31	1.083
317.52	1.085
317.73	1.062
317.94	1.062
318.15	1.107
318.36	1.107
318.57	1.090
318.78	1.080
318.99	1.115
319.20	1.114
319.41	1.080
319.62	1.080
319.83	1.096
320.04	1.090
320.25	1.075
320.46	1.040
320.67	1.042
320.88	1.038
321.09	1.024
321.30	1.009
321.51	1.026
321.72	1.024
321.93	1.007
322.14	0.997
322.35	1.025
322.56	1.028
322.77	1.014
322.98	1.026
323.19	1.033
323.40	1.040
323.61	1.017
323.82	1.011
324.03	1.018
324.24	1.017
324.45	1.003
324.66	0.985
324.87	0.981
325.08	0.981
325.29	0.961
325.50	0.955
325.71	0.961
325.92	0.969
326.13	0.956
326.34	0.956
326.55	0.964
326.76	0.964
326.97	0.953
327.18	0.947
327.39	0.973
327.60	0.974
327.80	0.974
328.01	0.970
328.22	0.971
328.43	0.975
328.64	0.960
328.85	0.964
329.06	0.965
329.27	0.964
329.48	0.959
329.69	0.940
329.90	0.950
330.11	0.943
330.32	0.937
330.53	0.931
330.74	0.930
330.95	0.930
331.16	0.914
331.37	0.925
331.58	0.925
331.79	0.924
332.00	0.915
332.21	0.909
332.42	0.914
332.63	0.905
332.83	0.901
333.04	0.904
333.25	0.916
333.46	0.916
333.67	0.901
333.88	0.904
334.09	0.915
334.30	0.912
334.51	0.903
334.72	0.897
334.93	0.901
335.14	0.899
335.35	0.891
335.56	0.885
335.77	0.894
335.98	0.892
336.18	0.885
336.39	0.877
336.60	0.882
336.81	0.880
337.02	0.879
337.23	0.883
337.44	0.885
337.65	0.886
337.86	0.877
338.07	0.871
338.28	0.875
338.49	0.874
338.70	0.867
338.91	0.874
339.11	0.881
339.32	0.876
339.53	0.865
339.74	0.864
339.95	0.861
340.16	0.859
340.37	0.853
340.58	0.852
340.79	0.855
341.00	0.855
341.21	0.844
341.41	0.845
341.62	0.846
341.83	0.846
342.04	0.841
342.25	0.853
342.46	0.857
342.67	0.856
342.88	0.849
343.09	0.848
343.30	0.856
343.50	0.858
343.71	0.847
343.92	0.848
344.13	0.852
344.34	0.851
344.55	0.834
344.76	0.833
344.97	0.837
345.18	0.836
345.38	0.833
345.59	0.828
345.80	0.829
346.01	0.828
346.22	0.822
346.43	0.816
346.64	0.825
346.85	0.823
347.06	0.816
347.26	0.815
347.47	0.819
347.68	0.814
347.89	0.811
348.10	0.805
348.31	0.812
348.52	0.811
348.73	0.809
348.93	0.805
349.14	0.809
349.35	0.809
349.56	0.802
349.77	0.797
349.98	0.804
350.19	0.801
350.39	0.796
350.60	0.792
350.81	0.808
351.02	0.805
351.23	0.801
351.44	0.803
351.65	0.806
351.86	0.804
352.06	0.803
352.27	0.803
352.48	0.804
352.69	0.804
352.90	0.799
353.11	0.784
353.31	0.793
353.52	0.788
353.73	0.780
353.94	0.781
354.15	0.787
354.36	0.786
354.57	0.777
354.77	0.779
354.98	0.779
355.19	0.777
355.40	0.778
355.61	0.782
355.82	0.787
356.02	0.787
356.23	0.780
356.44	0.781
356.65	0.784
356.86	0.785
357.07	0.779
357.27	0.782
357.48	0.786
357.69	0.782
357.90	0.766
358.11	0.762
358.32	0.766
358.52	0.768
358.73	0.758
358.94	0.761
359.15	0.765
359.36	0.765
359.56	0.760
359.77	0.757
359.98	0.764
360.19	0.764
360.40	0.761
360.61	0.762
360.81	0.760
361.02	0.762
361.23	0.753
361.44	0.752
361.65	0.752
361.85	0.751
362.06	0.749
362.27	0.750
362.48	0.750
362.69	0.753
362.89	0.746
363.10	0.749
363.31	0.753
363.52	0.756
363.73	0.751
363.93	0.753
364.14	0.755
364.35	0.756
364.56	0.747
364.77	0.749
364.97	0.749
365.18	0.750
365.39	0.744
365.60	0.741
365.81	0.741
366.01	0.741
366.22	0.736
366.43	0.736
366.64	0.738
366.84	0.743
367.05	0.740
367.26	0.741
367.47	0.743
367.68	0.743
367.88	0.740
368.09	0.738
368.30	0.741
368.51	0.742
368.71	0.741
368.92	0.745
369.13	0.742
369.34	0.742
369.55	0.740
369.75	0.741
369.96	0.748
370.17	0.748
370.38	0.745
370.58	0.744
370.79	0.748
371.00	0.747
371.21	0.737
371.41	0.743
371.62	0.747
371.83	0.743
372.04	0.740
372.24	0.734
372.45	0.736
372.66	0.737
372.87	0.733
373.07	0.730
373.28	0.731
373.49	0.735
373.70	0.725
373.90	0.724
374.11	0.734
374.32	0.734
374.53	0.732
374.73	0.732
374.94	0.733
375.15	0.734
375.36	0.732
375.56	0.741
375.77	0.741
375.98	0.741
376.19	0.739
376.39	0.731
376.60	0.734
376.81	0.734
377.02	0.731
377.22	0.731
377.43	0.731
377.64	0.730
377.84	0.721
378.05	0.725
378.26	0.731
378.47	0.730
378.67	0.728
378.88	0.726
379.09	0.726
379.30	0.726
379.50	0.724
379.71	0.726
379.92	0.728
380.12	0.728
380.33	0.719
380.54	0.716
380.75	0.723
380.95	0.723
381.16	0.720
381.37	0.721
381.57	0.724
381.78	0.724
381.99	0.724
382.20	0.724
382.40	0.728
382.61	0.729
382.82	0.725
383.02	0.718
383.23	0.721
383.44	0.722
383.64	0.720
383.85	0.722
384.06	0.725
384.27	0.723
384.47	0.721
384.68	0.721
384.89	0.727
385.09	0.727
385.30	0.727
385.51	0.726
385.71	0.729
385.92	0.730
386.13	0.728
386.33	0.730
386.54	0.730
386.75	0.729
386.95	0.724
387.16	0.719
387.37	0.721
387.58	0.721
387.78	0.719
387.99	0.717
388.20	0.719
388.40	0.716
388.61	0.712
388.82	0.716
389.02	0.719
389.23	0.719
389.44	0.718
389.64	0.719
389.85	0.730
390.06	0.730
390.26	0.731
390.47	0.730
390.68	0.732
390.88	0.730
391.09	0.725
391.30	0.724
391.50	0.723
391.71	0.723
391.92	0.720
392.12	0.712
392.33	0.712
392.53	0.711
392.74	0.712
392.95	0.711
393.15	0.714
393.36	0.715
393.57	0.713
393.77	0.716
393.98	0.718
394.19	0.718
394.39	0.717
394.60	0.719
394.81	0.722
395.01	0.720
395.22	0.719
395.43	0.720
395.63	0.724
395.84	0.726
396.04	0.723
396.25	0.725
396.46	0.727
396.66	0.725
396.87	0.722
397.08	0.719
397.28	0.722
397.49	0.723
397.69	0.719
397.90	0.714
398.11	0.715
398.31	0.716
398.52	0.712
398.73	0.713
398.93	0.713
399.14	0.711
399.34	0.710
399.55	0.711
399.76	0.711
399.96	0.713
400.17	0.712
400.37	0.710
400.58	0.717
400.79	0.718
400.99	0.715
401.20	0.721
401.41	0.724
401.61	0.726
401.82	0.731
402.02	0.730
402.23	0.731
402.44	0.730
402.64	0.730
402.85	0.725
403.05	0.724
403.26	0.723
403.47	0.716
403.67	0.715
403.88	0.716
404.08	0.710
404.29	0.708
404.50	0.708
404.70	0.709
404.91	0.708
405.11	0.705
405.32	0.706
405.52	0.707
405.73	0.707
405.94	0.705
406.14	0.708
406.35	0.709
406.55	0.709
406.76	0.707
406.97	0.707
407.17	0.710
407.38	0.711
407.58	0.709
407.79	0.711
407.99	0.714
408.20	0.715
408.41	0.710
408.61	0.708
408.82	0.709
409.02	0.709
409.23	0.707
409.43	0.705
409.64	0.706
409.84	0.706
410.05	0.702
410.26	0.701
410.46	0.700
410.67	0.699
410.87	0.700
411.08	0.702
411.28	0.703
411.49	0.705
411.69	0.703
411.90	0.704
412.11	0.706
412.31	0.707
412.52	0.705
412.72	0.706
412.93	0.707
413.13	0.706
413.34	0.702
413.54	0.704
413.75	0.706
413.95	0.705
414.16	0.702
414.37	0.705
414.57	0.705
414.78	0.708
414.98	0.705
415.19	0.706
415.39	0.704
415.60	0.706
415.80	0.705
416.01	0.703
416.21	0.705
416.42	0.705
416.62	0.700
416.83	0.700
417.03	0.699
417.24	0.699
417.44	0.697
417.65	0.696
417.86	0.696
418.06	0.695
418.27	0.692
418.47	0.693
418.68	0.694
418.88	0.695
419.09	0.693
419.29	0.694
419.50	0.695
419.70	0.695
419.91	0.694
420.11	0.691
420.32	0.693
420.52	0.694
420.73	0.693
420.93	0.693
421.14	0.695
421.34	0.694
421.55	0.691
421.75	0.691
421.96	0.692
422.16	0.692
422.37	0.692
422.57	0.689
422.78	0.691
422.98	0.687
423.19	0.685
423.39	0.683
423.60	0.687
423.80	0.688
424.01	0.686
424.21	0.689
424.42	0.690
424.62	0.689
424.83	0.688
425.03	0.689
425.23	0.691
425.44	0.691
425.64	0.691
425.85	0.690
426.05	0.690
426.26	0.691
426.46	0.687
426.67	0.687
426.87	0.691
427.08	0.692
427.28	0.689
427.49	0.691
427.69	0.692
427.90	0.690
428.10	0.687
428.31	0.687
428.51	0.688
428.71	0.688
428.92	0.689
429.12	0.687
429.33	0.688
429.53	0.692
429.74	0.696
429.94	0.696
430.15	0.696
430.35	0.696
430.56	0.693
430.76	0.692
430.96	0.693
431.17	0.690
431.37	0.687
431.58	0.686
431.78	0.682
431.99	0.675
432.19	0.677
432.40	0.678
432.60	0.679
432.80	0.681
433.01	0.679
433.21	0.679
433.42	0.681
433.62	0.681
433.83	0.681
434.03	0.683
434.23	0.686
434.44	0.685
434.64	0.683
434.85	0.687
435.05	0.689
435.26	0.689
435.46	0.687
435.66	0.686
435.87	0.686
436.07	0.685
436.28	0.681
436.48	0.678
436.69	0.678
436.89	0.678
437.09	0.672
437.30	0.671
437.50	0.671
437.71	0.683
437.91	0.682
438.11	0.683
438.32	0.688
438.52	0.688
438.73	0.687
438.93	0.686
439.13	0.685
439.34	0.689
439.54	0.686
439.75	0.686
439.95	0.677
440.15	0.681
440.36	0.679
440.56	0.676
440.77	0.677
440.97	0.677
441.17	0.676
441.38	0.678
441.58	0.675
441.79	0.675
441.99	0.674
442.19	0.673
442.40	0.670
442.60	0.670
442.81	0.667
443.01	0.667
443.21	0.668
443.42	0.667
443.62	0.665
443.82	0.665
444.03	0.667
444.23	0.666
444.44	0.666
444.64	0.665
444.84	0.667
445.05	0.667
445.25	0.665
445.45	0.665
445.66	0.667
445.86	0.666
446.06	0.667
446.27	0.666
446.47	0.670
446.68	0.668
446.88	0.667
447.08	0.667
447.29	0.669
447.49	0.669
447.69	0.669
447.90	0.667
448.10	0.671
448.30	0.669
448.51	0.670
448.71	0.667
448.91	0.669
449.12	0.668
449.32	0.670
449.52	0.669
449.73	0.672
449.93	0.671
450.14	0.671
450.34	0.671
450.54	0.673
450.75	0.671
450.95	0.670
451.15	0.670
451.36	0.672
451.56	0.669
451.76	0.668
451.97	0.665
452.17	0.666
452.37	0.664
452.58	0.661
452.78	0.660
452.98	0.662
453.19	0.662
453.39	0.662
453.59	0.660
453.79	0.662
454.00	0.662
454.20	0.661
454.40	0.662
454.61	0.664
454.81	0.664
455.01	0.663
455.22	0.664
455.42	0.666
455.62	0.663
455.83	0.663
456.03	0.665
456.23	0.666
456.44	0.667
456.64	0.665
456.84	0.665
457.04	0.666
457.25	0.665
457.45	0.661
457.65	0.661
457.86	0.662
458.06	0.661
458.26	0.656
458.47	0.656
458.67	0.657
458.87	0.657
459.07	0.655
459.28	0.657
459.48	0.660
459.68	0.660
459.89	0.658
460.09	0.657
460.29	0.659
460.49	0.660
460.70	0.659
460.90	0.659
461.10	0.660
461.31	0.659
461.51	0.656
461.71	0.659
461.91	0.660
462.12	0.660
462.32	0.659
462.52	0.659
462.72	0.662
462.93	0.662
463.13	0.661
463.33	0.661
463.53	0.663
463.74	0.662
463.94	0.657
464.14	0.657
464.35	0.658
464.55	0.659
464.75	0.657
464.95	0.655
465.16	0.657
465.36	0.656
465.56	0.654
465.76	0.654
465.97	0.654
466.17	0.654
466.37	0.653
466.57	0.654
466.78	0.655
466.98	0.655
467.18	0.652
467.38	0.651
467.59	0.652
467.79	0.654
467.99	0.652
468.19	0.654
468.39	0.657
468.60	0.657
468.80	0.654
469.00	0.656
469.20	0.657
469.41	0.658
469.61	0.658
469.81	0.658
470.01	0.657
470.22	0.658
470.42	0.655
470.62	0.653
470.82	0.654
471.02	0.654
471.23	0.652
471.43	0.652
471.63	0.654
471.83	0.653
472.04	0.652
472.24	0.651
472.44	0.656
472.64	0.656
472.84	0.654
473.05	0.654
473.25	0.657
473.45	0.656
473.65	0.655
473.85	0.655
474.06	0.657
474.26	0.657
474.46	0.657
474.66	0.654
474.86	0.654
475.07	0.654
475.27	0.653
475.47	0.650
475.67	0.651
475.87	0.653
476.08	0.650
476.28	0.651
476.48	0.652
476.68	0.651
476.88	0.649
477.09	0.650
477.29	0.652
477.49	0.652
477.69	0.651
477.89	0.651
478.09	0.650
478.30	0.653
478.50	0.650
478.70	0.649
478.90	0.649
479.10	0.652
479.31	0.653
479.51	0.651
479.71	0.652
479.91	0.652
480.11	0.651
480.31	0.651
480.52	0.650
480.72	0.650
480.92	0.649
481.12	0.648
481.32	0.646
481.52	0.643
481.72	0.643
481.93	0.646
482.13	0.647
482.33	0.647
482.53	0.644
482.73	0.645
482.93	0.646
483.14	0.645
483.34	0.644
483.54	0.645
483.74	0.645
483.94	0.644
484.14	0.640
484.34	0.641
484.55	0.641
484.75	0.641
484.95	0.640
485.15	0.640
485.35	0.640
485.55	0.639
485.75	0.638
485.96	0.638
486.16	0.640
486.36	0.639
486.56	0.637
486.76	0.637
486.96	0.637
487.16	0.637
487.36	0.635
487.57	0.635
487.77	0.635
487.97	0.635
488.17	0.633
488.37	0.632
488.57	0.633
488.77	0.633
488.97	0.632
489.18	0.631
489.38	0.633
489.58	0.634
489.78	0.633
489.98	0.633
490.18	0.633
490.38	0.634
490.58	0.633
490.78	0.633
490.98	0.635
491.19	0.635
491.39	0.635
491.59	0.633
491.79	0.636
491.99	0.637
492.19	0.636
492.39	0.639
492.59	0.639
492.79	0.641
492.99	0.641
493.20	0.642
493.40	0.642
493.60	0.643
493.80	0.642
494.00	0.640
494.20	0.641
494.40	0.640
494.60	0.638
494.80	0.642
495.00	0.641
495.20	0.639
495.40	0.637
495.61	0.639
495.81	0.639
496.01	0.642
496.21	0.643
496.41	0.642
496.61	0.643
496.81	0.642
497.01	0.637
497.21	0.637
497.41	0.638
497.61	0.638
497.81	0.635
498.01	0.635
498.21	0.632
498.41	0.631
498.61	0.631
498.82	0.632
499.02	0.634
499.22	0.634
499.42	0.633
499.62	0.635
499.82	0.635
500.02	0.636
500.22	0.635
500.42	0.637
500.62	0.638
500.82	0.638
501.02	0.636
501.22	0.637
501.42	0.637
501.62	0.639
501.82	0.638
502.02	0.638
502.22	0.638
502.42	0.640
502.62	0.638
502.82	0.638
503.02	0.638
503.22	0.638
503.42	0.636
503.63	0.636
503.83	0.635
504.03	0.634
504.23	0.632
504.43	0.633
504.63	0.633
504.83	0.632
505.03	0.632
505.23	0.633
505.43	0.635
505.63	0.635
505.83	0.634
506.03	0.636
506.23	0.638
506.43	0.639
506.63	0.637
506.83	0.636
507.03	0.638
507.23	0.638
507.43	0.636
507.63	0.636
507.83	0.637
508.03	0.637
508.23	0.636
508.43	0.635
508.63	0.636
508.83	0.637
509.03	0.638
509.23	0.637
509.43	0.638
509.63	0.637
509.83	0.636
510.03	0.639
510.23	0.641
510.43	0.642
510.63	0.642
510.83	0.642
511.03	0.643
511.23	0.641
511.43	0.640
511.63	0.642
511.83	0.645
512.03	0.645
512.22	0.642
512.42	0.641
512.62	0.642
512.82	0.642
513.02	0.641
513.22	0.641
513.42	0.643
513.62	0.645
513.82	0.643
514.02	0.642
514.22	0.644
514.42	0.644
514.62	0.643
514.82	0.643
515.02	0.645
515.22	0.649
515.42	0.647
515.62	0.649
515.82	0.648
516.02	0.650
516.22	0.650
516.42	0.650
516.62	0.652
516.82	0.653
517.01	0.652
517.21	0.651
517.41	0.655
517.61	0.655
517.81	0.652
518.01	0.651
518.21	0.651
518.41	0.650
518.61	0.650
518.81	0.650
519.01	0.651
519.21	0.651
519.41	0.650
519.61	0.644
519.81	0.647
520.00	0.647
520.20	0.647
520.40	0.649
520.60	0.650
520.80	0.649
521.00	0.649
521.20	0.651
521.40	0.655
521.60	0.655
521.80	0.655
522.00	0.655
522.20	0.657
522.39	0.656
522.59	0.653
522.79	0.655
522.99	0.658
523.19	0.656
523.39	0.654
523.59	0.652
523.79	0.655
523.99	0.658
524.19	0.656
524.38	0.655
524.58	0.656
524.78	0.656
524.98	0.655
525.18	0.656
525.38	0.658
525.58	0.658
525.78	0.655
525.98	0.653
526.18	0.654
526.37	0.653
526.57	0.656
526.77	0.656
526.97	0.656
527.17	0.656
527.37	0.652
527.57	0.655
527.77	0.656
527.96	0.656
528.16	0.655
528.36	0.656
528.56	0.658
528.76	0.656
528.96	0.655
529.16	0.657
529.36	0.660
529.55	0.660
529.75	0.656
529.95	0.657
530.15	0.659
530.35	0.661
530.55	0.659
530.75	0.660
530.94	0.661
531.14	0.662
531.34	0.660
531.54	0.658
531.74	0.662
531.94	0.665
532.13	0.662
532.33	0.664
532.53	0.662
532.73	0.662
532.93	0.660
533.13	0.661
533.33	0.660
533.52	0.661
533.72	0.664
533.92	0.662
534.12	0.660
534.32	0.661
534.52	0.658
534.71	0.660
534.91	0.663
535.11	0.664
535.31	0.663
535.51	0.665
535.71	0.666
535.90	0.664
536.10	0.665
536.30	0.667
536.50	0.668
536.70	0.669
536.89	0.666
537.09	0.666
537.29	0.667
537.49	0.668
537.69	0.666
537.89	0.666
538.08	0.666
538.28	0.664
538.48	0.664
538.68	0.666
538.88	0.668
539.07	0.667
539.27	0.666
539.47	0.665
539.67	0.665
539.87	0.666
540.06	0.663
540.26	0.664
540.46	0.667
540.66	0.664
540.86	0.662
541.05	0.661
541.25	0.663
541.45	0.663
541.65	0.662
541.84	0.663
542.04	0.664
542.24	0.665
542.44	0.664
542.64	0.665
542.83	0.667
543.03	0.668
543.23	0.665
543.43	0.666
543.62	0.668
543.82	0.668
544.02	0.667
544.22	0.667
544.42	0.670
544.61	0.671
544.81	0.668
545.01	0.667
545.21	0.669
545.40	0.670
545.60	0.667
545.80	0.671
546.00	0.671
546.19	0.670
546.39	0.669
546.59	0.667
546.79	0.668
546.98	0.669
547.18	0.668
547.38	0.670
547.58	0.672
547.77	0.673
547.97	0.669
548.17	0.671
548.37	0.671
548.56	0.671
548.76	0.671
548.96	0.673
549.16	0.675
549.35	0.674
549.55	0.672
549.75	0.672
549.95	0.675
550.14	0.675
550.34	0.673
550.54	0.679
550.73	0.682
550.93	0.682
551.13	0.679
551.33	0.678
551.52	0.679
551.72	0.679
551.92	0.677
552.12	0.678
552.31	0.679
552.51	0.679
552.71	0.674
552.90	0.674
553.10	0.675
553.30	0.675
553.50	0.674
553.69	0.675
553.89	0.675
554.09	0.676
554.28	0.673
554.48	0.674
554.68	0.676
554.87	0.675
555.07	0.672
555.27	0.672
555.47	0.674
555.66	0.675
555.86	0.673
556.06	0.675
556.25	0.676
556.45	0.684
556.65	0.683
556.84	0.686
557.04	0.690
557.24	0.692
557.43	0.691
557.63	0.694
557.83	0.696
558.02	0.697
558.22	0.701
558.42	0.702
558.61	0.695
558.81	0.695
559.01	0.690
559.21	0.689
559.40	0.690
559.60	0.690
559.80	0.687
559.99	0.688
560.19	0.690
560.39	0.684
560.58	0.681
560.78	0.681
560.97	0.685
561.17	0.683
561.37	0.681
561.56	0.682
561.76	0.684
561.96	0.683
562.15	0.680
562.35	0.683
562.55	0.684
562.74	0.684
562.94	0.683
563.14	0.681
563.33	0.682
563.53	0.682
563.73	0.679
563.92	0.681
564.12	0.683
564.31	0.684
564.51	0.683
564.71	0.684
564.90	0.687
565.10	0.689
565.30	0.691
565.49	0.692
565.69	0.694
565.89	0.695
566.08	0.692
566.28	0.694
566.47	0.696
566.67	0.694
566.87	0.692
567.06	0.693
567.26	0.699
567.46	0.694
567.65	0.694
567.85	0.696
568.04	0.699
568.24	0.697
568.44	0.694
568.63	0.692
568.83	0.694
569.02	0.693
569.22	0.688
569.42	0.684
569.61	0.687
569.81	0.685
570.00	0.683
570.20	0.684
570.40	0.685
570.59	0.685
570.79	0.683
570.98	0.682
571.18	0.683
571.38	0.683
571.57	0.680
571.77	0.678
571.96	0.682
572.16	0.680
572.35	0.674
572.55	0.676
572.75	0.674
572.94	0.674
573.14	0.672
573.33	0.672
573.53	0.673
573.73	0.672
573.92	0.670
574.12	0.668
574.31	0.671
574.51	0.672
574.70	0.669
574.90	0.670
575.09	0.672
575.29	0.673
575.49	0.670
575.68	0.670
575.88	0.672
576.07	0.673
576.27	0.671
576.46	0.670
576.66	0.669
576.86	0.668
577.05	0.666
577.25	0.664
577.44	0.666
577.64	0.666
577.83	0.663
578.03	0.665
578.22	0.664
578.42	0.663
578.61	0.661
578.81	0.662
579.00	0.663
579.20	0.662
579.40	0.661
579.59	0.660
579.79	0.661
579.98	0.660
580.18	0.659
580.37	0.660
580.57	0.662
580.76	0.666
580.96	0.664
581.15	0.665
581.35	0.667
581.54	0.667
581.74	0.667
581.93	0.668
582.13	0.669
582.32	0.666
582.52	0.665
582.71	0.664
582.91	0.660
583.10	0.660
583.30	0.659
583.49	0.658
583.69	0.662
583.88	0.663
584.08	0.662
584.27	0.664
584.47	0.667
584.66	0.668
584.86	0.667
585.05	0.668
585.25	0.671
585.44	0.671
585.64	0.669
585.83	0.666
586.03	0.666
586.22	0.664
586.42	0.661
586.61	0.662
586.81	0.664
587.00	0.664
587.20	0.661
587.39	0.662
587.59	0.664
587.78	0.665
587.98	0.666
588.17	0.667
588.37	0.670
588.56	0.672
588.76	0.668
588.95	0.668
589.15	0.672
589.34	0.675
589.54	0.673
589.73	0.674
589.92	0.677
590.12	0.676
590.31	0.674
590.51	0.679
590.70	0.681
590.90	0.681
591.09	0.679
591.29	0.677
591.48	0.677
591.68	0.678
591.87	0.676
592.06	0.676
592.26	0.679
592.45	0.678
592.65	0.671
592.84	0.671
593.04	0.673
593.23	0.676
593.43	0.673
593.62	0.673
593.81	0.673
594.01	0.672
594.20	0.670
594.40	0.668
594.59	0.670
594.79	0.672
594.98	0.670
595.17	0.670
595.37	0.671
595.56	0.673
595.76	0.672
595.95	0.674
596.14	0.677
596.34	0.678
596.53	0.677
596.73	0.678
596.92	0.680
597.12	0.682
597.31	0.682
597.50	0.681
597.70	0.683
597.89	0.683
598.09	0.679
598.28	0.681
598.47	0.683
598.67	0.682
598.86	0.678
599.06	0.680
599.25	0.680
599.44	0.678
599.64	0.674
599.83	0.672
600.03	0.674
600.22	0.675
600.41	0.675
600.61	0.673
600.80	0.675
601.00	0.676
601.19	0.672
601.38	0.671
601.58	0.673
601.77	0.675
601.96	0.677
602.16	0.677
602.35	0.686
602.55	0.683
602.74	0.684
602.93	0.686
603.13	0.691
603.32	0.692
603.51	0.691
603.71	0.694
603.90	0.696
604.09	0.696
604.29	0.693
604.48	0.688
604.68	0.689
604.87	0.687
605.06	0.684
605.26	0.680
605.45	0.681
605.64	0.681
605.84	0.676
606.03	0.675
606.22	0.674
606.42	0.674
606.61	0.670
606.80	0.670
607.00	0.672
607.19	0.673
607.38	0.671
607.58	0.671
607.77	0.674
607.96	0.675
608.16	0.674
608.35	0.678
608.54	0.681
608.74	0.684
608.93	0.689
609.12	0.693
609.32	0.696
609.51	0.699
609.70	0.698
609.90	0.700
610.09	0.704
610.28	0.710
610.48	0.703
610.67	0.705
610.86	0.705
611.06	0.699
611.25	0.696
611.44	0.696
611.64	0.695
611.83	0.699
612.02	0.695
612.21	0.694
612.41	0.692
612.60	0.691
612.79	0.687
612.99	0.687
613.18	0.690
613.37	0.688
613.57	0.685
613.76	0.687
613.95	0.684
614.14	0.683
614.34	0.681
614.53	0.682
614.72	0.684
614.92	0.685
615.11	0.682
615.30	0.679
615.49	0.681
615.69	0.683
615.88	0.679
616.07	0.681
616.26	0.683
616.46	0.683
616.65	0.680
616.84	0.680
617.04	0.681
617.23	0.685
617.42	0.685
617.61	0.688
617.81	0.689
618.00	0.691
618.19	0.689
618.38	0.692
618.58	0.697
618.77	0.698
618.96	0.697
619.15	0.699
619.35	0.701
619.54	0.702
619.73	0.697
619.92	0.699
620.12	0.704
620.31	0.704
620.50	0.699
620.69	0.700
620.89	0.703
621.08	0.702
621.27	0.702
621.46	0.701
621.66	0.705
621.85	0.705
622.04	0.701
622.23	0.701
622.43	0.702
622.62	0.702
622.81	0.701
623.00	0.700
623.19	0.704
623.39	0.703
623.58	0.700
623.77	0.699
623.96	0.702
624.16	0.702
624.35	0.697
624.54	0.700
624.73	0.704
624.92	0.701
625.12	0.699
625.31	0.700
625.50	0.703
625.69	0.703
625.88	0.699
626.08	0.698
626.27	0.700
626.46	0.700
626.65	0.696
626.84	0.696
627.04	0.701
627.23	0.700
627.42	0.696
627.61	0.697
627.80	0.700
628.00	0.701
628.19	0.700
628.38	0.704
628.57	0.706
628.76	0.706
628.96	0.703
629.15	0.704
629.34	0.707
629.53	0.708
629.72	0.702
629.91	0.702
630.11	0.707
630.30	0.708
630.49	0.710
630.68	0.711
630.87	0.715
631.06	0.716
631.26	0.711
631.45	0.713
631.64	0.721
631.83	0.723
632.02	0.720
632.21	0.718
632.41	0.725
632.60	0.721
632.79	0.720
632.98	0.719
633.17	0.721
633.36	0.723
633.55	0.718
633.75	0.715
633.94	0.716
634.13	0.718
634.32	0.715
634.51	0.709
634.70	0.709
634.89	0.709
635.09	0.705
635.28	0.705
635.47	0.707
635.66	0.711
635.85	0.706
636.04	0.708
636.23	0.712
636.43	0.713
636.62	0.712
636.81	0.712
637.00	0.714
637.19	0.717
637.38	0.714
637.57	0.713
637.76	0.715
637.95	0.715
638.15	0.711
638.34	0.708
638.53	0.711
638.72	0.713
638.91	0.710
639.10	0.707
639.29	0.707
639.48	0.709
639.67	0.709
639.87	0.707
640.06	0.713
640.25	0.712
640.44	0.713
640.63	0.713
640.82	0.715
641.01	0.714
641.20	0.714
641.39	0.715
641.58	0.717
641.78	0.716
641.97	0.712
642.16	0.726
642.35	0.728
642.54	0.727
642.73	0.721
642.92	0.721
643.11	0.725
643.30	0.725
643.49	0.720
643.68	0.722
643.87	0.723
644.06	0.724
644.25	0.703
644.45	0.706
644.64	0.706
644.83	0.708
645.02	0.705
645.21	0.704
645.40	0.705
645.59	0.704
645.78	0.699
645.97	0.702
646.16	0.703
646.35	0.704
646.54	0.701
646.73	0.703
646.92	0.705
647.11	0.703
647.30	0.700
647.49	0.701
647.68	0.701
647.88	0.700
648.07	0.692
648.26	0.695
648.45	0.697
648.64	0.693
648.83	0.690
649.02	0.692
649.21	0.703
649.40	0.701
649.59	0.696
649.78	0.696
649.97	0.711
650.16	0.711
650.35	0.705
650.54	0.707
650.73	0.716
650.92	0.713
651.11	0.707
651.30	0.705
651.49	0.710
651.68	0.710
651.87	0.708
652.06	0.698
652.25	0.701
652.44	0.705
652.63	0.701
652.82	0.701
653.01	0.702
653.20	0.699
653.39	0.687
653.58	0.685
653.77	0.685
653.96	0.680
654.15	0.672
654.34	0.670
654.53	0.665
654.72	0.660
654.91	0.650
655.10	0.646
655.29	0.645
655.48	0.643
655.67	0.637
655.86	0.635
656.05	0.633
656.24	0.633
656.43	0.628
656.62	0.627
656.81	0.627
657.00	0.625
657.19	0.622
657.38	0.622
657.57	0.621
657.76	0.623
657.95	0.621
658.14	0.624
658.33	0.626
658.51	0.631
658.70	0.631
658.89	0.632
659.08	0.641
659.27	0.648
659.46	0.648
659.65	0.654
659.84	0.658
660.03	0.662
660.22	0.662
660.41	0.666
660.60	0.666
660.79	0.668
660.98	0.674
661.17	0.672
661.36	0.671
661.55	0.672
661.74	0.670
661.92	0.673
662.11	0.675
662.30	0.674
662.49	0.668
662.68	0.668
662.87	0.670
663.06	0.664
663.25	0.666
663.44	0.666
663.63	0.668
663.82	0.666
664.01	0.660
664.20	0.659
664.38	0.660
664.57	0.660
664.76	0.659
664.95	0.660
665.14	0.665
665.33	0.660
665.52	0.667
665.71	0.671
665.90	0.671
666.09	0.672
666.28	0.669
666.46	0.668
666.65	0.670
666.84	0.668
667.03	0.663
667.22	0.661
667.41	0.664
667.60	0.653
667.79	0.646
667.98	0.648
668.16	0.649
668.35	0.648
668.54	0.644
668.73	0.644
668.92	0.646
669.11	0.644
669.30	0.638
669.49	0.634
669.67	0.636
669.86	0.639
670.05	0.637
670.24	0.635
670.43	0.633
670.62	0.633
670.81	0.627
671.00	0.628
671.18	0.628
671.37	0.627
671.56	0.625
671.75	0.625
671.94	0.621
672.13	0.620
672.32	0.615
672.50	0.614
672.69	0.614
672.88	0.616
673.07	0.611
673.26	0.613
673.45	0.615
673.63	0.614
673.82	0.611
674.01	0.613
674.20	0.612
674.39	0.611
674.58	0.610
674.76	0.610
674.95	0.608
675.14	0.608
675.33	0.603
675.52	0.602
675.71	0.602
675.89	0.601
676.08	0.597
676.27	0.598
676.46	0.598
676.65	0.597
676.84	0.597
677.02	0.599
677.21	0.601
677.40	0.600
677.59	0.598
677.78	0.599
677.96	0.601
678.15	0.601
678.34	0.597
678.53	0.598
678.72	0.598
678.90	0.594
679.09	0.590
679.28	0.587
679.47	0.587
679.66	0.586
679.84	0.582
680.03	0.579
680.22	0.578
680.41	0.581
680.60	0.577
680.78	0.577
680.97	0.579
681.16	0.580
681.35	0.578
681.53	0.578
681.72	0.579
681.91	0.581
682.10	0.579
682.29	0.581
682.47	0.578
682.66	0.578
682.85	0.577
683.04	0.575
683.22	0.575
683.41	0.577
683.60	0.576
683.79	0.577
683.97	0.576
684.16	0.576
684.35	0.572
684.54	0.574
684.72	0.575
684.91	0.576
685.10	0.574
685.29	0.575
685.47	0.572
685.66	0.571
685.85	0.567
686.04	0.567
686.22	0.569
686.41	0.572
686.60	0.569
686.79	0.571
686.97	0.571
687.16	0.572
687.35	0.570
687.54	0.574
687.72	0.578
687.91	0.577
688.10	0.579
688.29	0.578
688.47	0.576
688.66	0.576
688.85	0.573
689.03	0.571
689.22	0.576
689.41	0.576
689.60	0.572
689.78	0.569
689.97	0.570
690.16	0.567
690.34	0.563
690.53	0.563
690.72	0.563
690.91	0.561
691.09	0.559
691.28	0.552
691.47	0.550
691.65	0.549
691.84	0.546
692.03	0.545
692.21	0.544
692.40	0.543
692.59	0.540
692.77	0.539
692.96	0.541
693.15	0.542
693.34	0.540
693.52	0.539
693.71	0.539
693.90	0.541
694.08	0.542
694.27	0.543
694.46	0.552
694.64	0.553
694.83	0.553
695.02	0.552
695.20	0.552
695.39	0.551
695.58	0.550
695.76	0.551
695.95	0.549
696.14	0.548
696.32	0.546
696.51	0.537
696.70	0.536
696.88	0.537
697.07	0.536
697.26	0.537
697.44	0.539
697.63	0.538
697.81	0.536
698.00	0.536
698.19	0.535
698.37	0.535
698.56	0.535
698.75	0.535
698.93	0.535
699.12	0.534
699.31	0.533
699.49	0.532
699.68	0.534
699.87	0.536
700.05	0.536
700.24	0.535
700.42	0.537
700.61	0.536
700.80	0.534
700.98	0.534
701.17	0.535
701.36	0.534
701.54	0.533
701.73	0.534
701.91	0.532
702.10	0.532
702.29	0.530
702.47	0.529
702.66	0.531
702.84	0.532
703.03	0.530
703.22	0.532
703.40	0.532
703.59	0.534
703.77	0.533
703.96	0.534
704.15	0.535
704.33	0.534
704.52	0.533
704.70	0.533
704.89	0.532
705.08	0.532
705.26	0.527
705.45	0.527
705.63	0.527
705.82	0.524
706.00	0.522
706.19	0.521
706.38	0.521
706.56	0.521
706.75	0.519
706.93	0.518
707.12	0.519
707.30	0.519
707.49	0.517
707.68	0.515
707.86	0.515
708.05	0.515
708.23	0.511
708.42	0.512
708.60	0.514
708.79	0.514
708.98	0.513
709.16	0.512
709.35	0.514
709.53	0.517
709.72	0.516
709.90	0.518
710.09	0.520
710.27	0.522
710.46	0.525
710.64	0.524
710.83	0.526
711.02	0.527
711.20	0.526
711.39	0.524
711.57	0.522
711.76	0.522
711.94	0.520
712.13	0.521
712.31	0.521
712.50	0.516
712.68	0.514
712.87	0.515
713.05	0.516
713.24	0.516
713.42	0.515
713.61	0.516
713.79	0.518
713.98	0.517
714.16	0.518
714.35	0.518
714.54	0.520
714.72	0.520
714.91	0.517
715.09	0.523
715.28	0.526
715.46	0.526
715.65	0.523
715.83	0.523
716.02	0.525
716.20	0.522
716.39	0.521
716.57	0.522
716.76	0.525
716.94	0.525
717.12	0.517
717.31	0.519
717.49	0.521
717.68	0.523
717.86	0.523
718.05	0.524
718.23	0.527
718.42	0.529
718.60	0.528
718.79	0.535
718.97	0.538
719.16	0.538
719.34	0.536
719.53	0.535
719.71	0.534
719.90	0.536
720.08	0.532
720.27	0.532
720.45	0.532
720.63	0.531
720.82	0.526
721.00	0.529
721.19	0.532
721.37	0.531
721.56	0.531
721.74	0.535
721.93	0.543
722.11	0.550
722.30	0.550
722.48	0.554
722.66	0.556
722.85	0.556
723.03	0.555
723.22	0.554
723.40	0.557
723.59	0.557
723.77	0.561
723.95	0.554
724.14	0.556
724.32	0.557
724.51	0.556
724.69	0.557
724.88	0.559
725.06	0.558
725.24	0.559
725.43	0.561
725.61	0.564
725.80	0.559
725.98	0.557
726.16	0.554
726.35	0.560
726.53	0.559
726.72	0.557
726.90	0.567
727.09	0.567
727.27	0.572
727.45	0.568
727.64	0.576
727.82	0.584
728.01	0.588
728.19	0.585
728.37	0.589
728.56	0.593
728.74	0.600
728.92	0.588
729.11	0.590
729.29	0.590
729.48	0.592
729.66	0.582
729.84	0.581
730.03	0.584
730.21	0.587
730.40	0.577
730.58	0.578
730.76	0.578
730.95	0.580
731.13	0.579
731.31	0.592
731.50	0.601
731.68	0.603
731.86	0.599
732.05	0.615
732.23	0.618
732.42	0.622
732.60	0.625
732.78	0.631
732.97	0.649
733.15	0.656
733.33	0.643
733.52	0.650
733.70	0.661
733.88	0.669
734.07	0.654
734.25	0.679
734.43	0.686
734.62	0.689
734.80	0.682
734.98	0.672
735.17	0.678
735.35	0.687
735.53	0.675
735.72	0.678
735.90	0.699
736.08	0.717
736.27	0.693
736.45	0.704
736.63	0.714
736.82	0.725
737.00	0.725
737.18	0.737
737.37	0.765
737.55	0.787
737.73	0.782
737.92	0.784
738.10	0.782
738.28	0.801
738.46	0.786
738.65	0.799
738.83	0.821
739.01	0.874
739.20	0.864
739.38	0.848
739.56	0.839
739.75	0.843
739.93	0.810
740.11	0.832
740.29	0.832
740.48	0.840
740.66	0.818
740.84	0.808
741.03	0.774
741.21	0.783
741.39	0.763
741.57	0.779
741.76	0.795
741.94	0.804
742.12	0.770
742.31	0.778
742.49	0.796
742.67	0.817
742.85	0.830
743.04	0.838
743.22	0.845
743.40	0.895
743.58	0.874
743.77	0.888
743.95	0.916
744.13	0.962
744.31	0.943
744.50	0.941
744.68	0.939
744.86	0.913
745.04	0.919
745.23	0.981
745.41	0.963
745.59	0.965
745.77	0.932
745.96	0.924
746.14	0.936
746.32	0.934
746.50	0.925
746.69	0.909
746.87	0.923
747.05	0.909
747.23	0.838
747.42	0.827
747.60	0.861
747.78	0.864
747.96	0.891
748.14	0.850
748.33	0.875
748.51	0.869
748.69	0.861
748.87	0.884
749.06	0.880
749.24	0.876
749.42	0.864
749.60	0.842
749.78	0.850
749.97	0.807
750.15	0.800
750.33	0.799
750.51	0.820
750.69	0.825
750.88	0.829
751.06	0.838
751.24	0.862
751.42	0.855
751.60	0.848
751.79	0.912
751.97	0.958
752.15	0.957
752.33	0.929
752.51	0.994
752.69	1.015
752.88	0.987
753.06	1.028
753.24	1.012
753.42	1.043
753.60	1.204
753.78	1.067
753.97	1.085
754.15	1.106
754.33	1.145
754.51	1.018
754.69	0.998
754.87	1.027
755.06	0.961
755.24	0.956
755.42	0.966
755.60	0.872
755.78	0.882
755.96	0.827
756.15	0.825
756.33	0.827
756.51	0.843
756.69	0.831
756.87	0.797
757.05	0.814
757.23	0.800
757.42	0.767
757.60	0.762
757.78	0.750
757.96	0.750
758.14	0.736
758.32	0.723
758.50	0.736
758.69	0.733
758.87	0.727
759.05	0.731
759.23	0.741
759.41	0.742
759.59	0.737
759.77	0.757
759.95	0.782
760.13	0.825
760.32	0.822
760.50	0.814
760.68	0.841
760.86	0.842
761.04	0.814
761.22	0.821
761.40	0.869
761.58	0.870
761.76	0.847
761.95	0.827
762.13	0.787
762.31	0.790
762.49	0.761
762.67	0.775
762.85	0.789
763.03	0.786
763.21	0.767
763.39	0.749
763.57	0.752
763.75	0.747
763.94	0.735
764.12	0.737
764.30	0.758
764.48	0.763
764.66	0.730
764.84	0.726
765.02	0.760
765.20	0.767
765.38	0.744
765.56	0.750
765.74	0.788
765.92	0.790
766.10	0.795
766.28	0.788
766.46	0.817
766.65	0.816
766.83	0.805
767.01	0.792
767.19	0.800
767.37	0.803
767.55	0.794
767.73	0.772
767.91	0.771
768.09	0.763
768.27	0.751
768.45	0.738
768.63	0.744
768.81	0.745
768.99	0.719
769.17	0.741
769.35	0.754
769.53	0.749
769.71	0.734
769.89	0.744
770.07	0.748
770.25	0.731
770.43	0.712
770.61	0.732
770.79	0.738
770.97	0.750
771.15	0.720
771.33	0.723
771.51	0.725
771.69	0.735
771.87	0.744
772.05	0.750
772.24	0.756
772.42	0.766
772.60	0.747
772.78	0.806
772.96	0.828
773.14	0.825
773.32	0.802
773.49	0.808
773.67	0.808
773.85	0.785
774.03	0.773
774.21	0.807
774.39	0.816
774.57	0.839
774.75	0.771
774.93	0.768
775.11	0.791
775.29	0.800
775.47	0.799
775.65	0.810
775.83	0.829
776.01	0.850
776.19	0.803
776.37	0.806
776.55	0.803
776.73	0.798
776.91	0.793
777.09	0.773
777.27	0.771
777.45	0.761
777.63	0.736
777.81	0.732
777.99	0.721
778.17	0.721
778.35	0.702
778.53	0.692
778.71	0.701
778.89	0.687
779.07	0.679
779.24	0.682
779.42	0.685
779.60	0.702
779.78	0.696
779.96	0.699
780.14	0.708
780.32	0.725
780.50	0.712
780.68	0.709
780.86	0.703
781.04	0.719
781.22	0.720
781.40	0.729
781.58	0.722
781.75	0.717
781.93	0.701
782.11	0.700
782.29	0.687
782.47	0.685
782.65	0.673
782.83	0.700
783.01	0.693
783.19	0.690
783.37	0.676
783.55	0.679
783.72	0.697
783.90	0.705
784.08	0.698
784.26	0.710
784.44	0.729
784.62	0.731
784.80	0.701
784.98	0.707
785.16	0.713
785.33	0.728
785.51	0.715
785.69	0.700
785.87	0.699
786.05	0.708
786.23	0.704
786.41	0.701
786.59	0.708
786.77	0.706
786.94	0.693
787.12	0.695
787.30	0.695
787.48	0.692
787.66	0.681
787.84	0.685
788.02	0.677
788.19	0.675
788.37	0.661
788.55	0.663
788.73	0.663
788.91	0.659
789.09	0.642
789.27	0.632
789.44	0.645
789.62	0.650
789.80	0.658
789.98	0.682
790.16	0.668
790.34	0.667
790.51	0.653
790.69	0.673
790.87	0.677
791.05	0.676
791.23	0.668
791.41	0.668
791.58	0.677
791.76	0.657
791.94	0.626
792.12	0.635
792.30	0.637
792.48	0.637
792.65	0.631
792.83	0.641
793.01	0.647
793.19	0.646
793.37	0.631
793.54	0.627
793.72	0.639
793.90	0.640
794.08	0.629
794.26	0.629
794.43	0.638
794.61	0.621
794.79	0.610
794.97	0.608
795.15	0.615
795.32	0.619
795.50	0.609
795.68	0.601
795.86	0.604
796.04	0.604
796.21	0.599
796.39	0.596
796.57	0.611
796.75	0.618
796.92	0.619
797.10	0.622
797.28	0.624
797.46	0.626
797.64	0.629
797.81	0.636
797.99	0.641
798.17	0.645
798.35	0.639
798.52	0.640
798.70	0.636
798.88	0.644
799.06	0.644
799.23	0.647
799.41	0.658
799.59	0.652
799.77	0.642
799.94	0.651
800.12	0.660
800.30	0.677
800.48	0.675
800.65	0.674
800.83	0.665
801.01	0.658
801.19	0.659
801.36	0.653
801.54	0.655
801.72	0.664
801.90	0.650
802.07	0.645
802.25	0.631
802.43	0.616
802.60	0.613
802.78	0.619
802.96	0.623
803.14	0.617
803.31	0.615
803.49	0.614
803.67	0.611
803.84	0.615
804.02	0.609
804.20	0.612
804.38	0.618
804.55	0.618
804.73	0.604
804.91	0.606
805.08	0.617
805.26	0.614
805.44	0.678
805.61	0.681
805.79	0.682
805.97	0.682
806.15	0.673
806.32	0.668
806.50	0.673
806.68	0.674
806.85	0.663
807.03	0.655
807.21	0.670
807.38	0.604
807.56	0.593
807.74	0.602
807.91	0.608
808.09	0.610
808.27	0.626
808.44	0.651
808.62	0.660
808.80	0.662
808.97	0.658
809.15	0.652
809.33	0.669
809.50	0.678
809.68	0.665
809.86	0.673
810.03	0.703
810.21	0.684
810.39	0.665
810.56	0.672
810.74	0.692
810.91	0.760
811.09	0.749
811.27	0.770
811.44	0.773
811.62	0.775
811.80	0.759
811.97	0.733
812.15	0.733
812.33	0.729
812.50	0.715
812.68	0.706
812.85	0.651
813.03	0.654
813.21	0.624
813.38	0.618
813.56	0.622
813.74	0.631
813.91	0.636
814.09	0.664
814.26	0.658
814.44	0.662
814.62	0.652
814.79	0.659
814.97	0.665
815.14	0.669
815.32	0.676
815.50	0.691
815.67	0.692
815.85	0.682
816.02	0.672
816.20	0.679
816.38	0.694
816.55	0.699
816.73	0.695
816.90	0.702
817.08	0.729
817.26	0.730
817.43	0.711
817.61	0.734
817.78	0.755
817.96	0.737
818.13	0.724
818.31	0.723
818.49	0.735
818.66	0.728
818.84	0.714
819.01	0.694
819.19	0.702
819.36	0.703
819.54	0.675
819.71	0.713
819.89	0.722
820.07	0.737
820.24	0.732
820.42	0.733
820.59	0.751
820.77	0.774
820.94	0.767
821.12	0.784
821.29	0.803
821.47	0.807
821.64	0.747
821.82	0.763
822.00	0.759
822.17	0.757
822.35	0.750
822.52	0.753
822.70	0.740
822.87	0.747
823.05	0.724
823.22	0.731
823.40	0.753
823.57	0.773
823.75	0.751
823.92	0.777
824.10	0.794
824.27	0.834
824.45	0.823
824.62	0.879
824.80	0.894
824.97	0.907
825.15	0.899
825.32	0.909
825.50	0.904
825.67	0.920
825.85	0.894
826.02	0.910
826.20	0.929
826.37	1.036
826.55	0.970
826.72	1.148
826.90	1.215
827.07	1.267
827.25	1.215
827.42	1.374
827.60	1.517
827.77	1.699
827.95	1.661
828.12	1.753
828.30	1.434
828.47	1.566
828.65	1.206
828.82	1.274
829.00	1.348
829.17	1.479
829.34	1.493
829.52	1.547
829.69	-0.000
829.87	-0.000
830.04	-0.000
830.22	-0.000
830.39	-0.000
830.57	-0.000
830.74	-0.000
830.92	-0.000
831.09	-0.000
831.26	-0.000
831.44	-0.000
831.61	-0.000
831.79	-0.000
831.96	-0.000
832.14	-0.000
832.31	-0.000
832.49	-0.000
832.66	-0.000
832.83	-0.000
833.01	-0.000
833.18	-0.000
833.36	-0.000
833.53	-0.000
833.70	-0.000
833.88	-0.000
834.05	-0.000
834.23	-0.000
834.40	-0.000
834.58	-0.000
834.75	-0.000
834.92	-0.000
835.10	-0.000
835.27	-0.000
835.45	-0.000
835.62	-0.000
835.79	-0.000
835.97	-0.000
836.14	-0.000
836.32	-0.000
836.49	-0.000
836.66	-0.000
836.84	-0.000
837.01	-0.000
837.18	-0.000
837.36	-0.000
837.53	-0.000
837.71	-0.000
837.88	-0.000
838.05	-0.000
838.23	-0.000
838.40	-0.000
838.58	-0.000
838.75	-0.000
838.92	-0.000
839.10	-0.000
839.27	-0.000
839.44	-0.000
839.62	-0.000
839.79	-0.000
839.96	-0.000
840.14	-0.000
840.31	-0.000
840.48	-0.000
840.66	-0.000
840.83	-0.000
841.01	-0.000
841.18	-0.000
841.35	-0.000
841.53	-0.000
841.70	-0.000
841.87	-0.000
842.05	-0.000
842.22	-0.000
842.39	-0.000
842.57	-0.000
842.74	-0.000
842.91	-0.000
843.09	-0.000
843.26	-0.000
843.43	-0.000
843.60	-0.000
843.78	-0.000
843.95	-0.000
844.12	-0.000
844.30	-0.000
844.47	-0.000
844.64	-0.000
844.82	-0.000
844.99	-0.000
845.16	-0.000
845.34	-0.000
845.51	-0.000
845.68	-0.000
845.85	-0.000
846.03	-0.000
846.20	-0.000
846.37	-0.000
846.55	-0.000
846.72	-0.000
846.89	-0.000
847.06	-0.000
847.24	-0.000
847.41	-0.000
847.58	-0.000
847.76	-0.000
847.93	-0.000
848.10	-0.000
848.27	-0.000
848.45	-0.000
848.62	-0.000
848.79	-0.000
848.97	-0.000
849.14	-0.000
849.31	-0.000
849.48	-0.000
849.66	-0.000
849.83	-0.000
850.00	-0.000
850.17	-0.000
850.35	-0.000
850.52	-0.000
850.69	-0.000
850.86	-0.000
851.04	-0.000
851.21	-0.000
851.38	-0.000
851.55	-0.000
851.72	-0.000
851.90	-0.000
852.07	-0.000
852.24	-0.000
852.41	-0.000
852.59	-0.000
852.76	-0.000
852.93	-0.000
853.10	-0.000
853.28	-0.000
853.45	-0.000
853.62	-0.000
853.79	-0.000
853.96	-0.000
854.14	-0.000
854.31	-0.000
854.48	-0.000
854.65	-0.000
854.82	-0.000
855.00	-0.000
855.17	-0.000
855.34	-0.000
855.51	-0.000
855.68	-0.000
855.86	-0.000
856.03	-0.000
856.20	-0.000
856.37	-0.000
856.54	-0.000
856.72	-0.000
856.89	-0.000
857.06	-0.000
857.23	-0.000
857.40	-0.000
857.57	-0.000
857.75	-0.000
857.92	-0.000
858.09	-0.000
858.26	-0.000
858.43	-0.000
858.60	-0.000
858.78	-0.000
858.95	-0.000
859.12	-0.000
859.29	-0.000
859.46	-0.000
859.63	-0.000
859.81	-0.000
859.98	-0.000
860.15	-0.000
860.32	-0.000
860.49	-0.000
860.66	-0.000
860.83	-0.000
861.01	-0.000
861.18	-0.000
861.35	-0.000
861.52	-0.000
861.69	-0.000
861.86	-0.000
862.03	-0.000
862.21	-0.000
862.38	-0.000
862.55	-0.000
862.72	-0.000
862.89	-0.000
863.06	-0.000
863.23	-0.000
863.40	-0.000
863.58	-0.000
863.75	-0.000
863.92	-0.000
864.09	-0.000
864.26	-0.000
864.43	-0.000
864.60	-0.000
864.77	-0.000
864.94	-0.000
865.11	-0.000
865.29	-0.000
865.46	-0.000
865.63	-0.000
865.80	-0.000
865.97	-0.000
866.14	-0.000
866.31	-0.000
866.48	-0.000
866.65	-0.000
866.82	-0.000
866.99	-0.000
867.16	-0.000
867.34	-0.000
867.51	-0.000
867.68	-0.000
867.85	-0.000
868.02	-0.000
868.19	-0.000
868.36	-0.000
868.53	-0.000
868.70	-0.000
868.87	-0.000
869.04	-0.000
869.21	-0.000
869.38	-0.000
869.55	-0.000
869.72	-0.000
869.89	-0.000
870.06	-0.000
870.24	-0.000
870.41	-0.000
870.58	-0.000
870.75	-0.000
870.92	-0.000
871.09	-0.000
871.26	-0.000
871.43	-0.000
871.60	-0.000
871.77	-0.000
871.94	-0.000
872.11	-0.000
872.28	-0.000
872.45	-0.000
872.62	-0.000
872.79	-0.000
872.96	-0.000
873.13	-0.000
873.30	-0.000
873.47	-0.000
873.64	-0.000
873.81	-0.000
873.98	-0.000
874.15	-0.000
874.32	-0.000
874.49	-0.000
874.66	-0.000
874.83	-0.000
875.00	-0.000
875.17	-0.000
875.34	-0.000
875.51	-0.000
875.68	-0.000
875.85	-0.000
876.02	-0.000
876.19	-0.000
876.36	-0.000
876.53	-0.000
876.70	-0.000
876.87	-0.000
877.04	-0.000
877.21	-0.000
877.38	-0.000
877.55	-0.000
877.72	-0.000
877.89	-0.000
878.06	-0.000
878.23	-0.000
878.39	-0.000
878.56	-0.000
878.73	-0.000
878.90	-0.000
879.07	-0.000
879.24	-0.000
879.41	-0.000
879.58	-0.000
879.75	-0.000
879.92	-0.000
880.09	-0.000
880.26	-0.000
880.43	-0.000
880.60	-0.000
880.77	-0.000
880.94	-0.000
881.11	-0.000
881.27	-0.000
881.44	-0.000
881.61	-0.000
881.78	-0.000
881.95	-0.000
882.12	-0.000
882.29	-0.000
882.46	-0.000
882.63	-0.000
882.80	-0.000
882.97	-0.000
883.14	-0.000
883.30	-0.000
883.47	-0.000
883.64	-0.000
883.81	-0.000
883.98	-0.000
884.15	-0.000
884.32	-0.000
884.49	-0.000
884.66	-0.000
884.82	-0.000
884.99	-0.000
885.16	-0.000
885.33	-0.000
885.50	-0.000
885.67	-0.000
885.84	-0.000
886.01	-0.000
886.17	-0.000
886.34	-0.000
886.51	-0.000
886.68	-0.000
886.85	-0.000
887.02	-0.000
887.19	-0.000
887.36	-0.000
887.52	-0.000
887.69	-0.000
887.86	-0.000
888.03	-0.000
888.20	-0.000
888.37	-0.000
888.54	-0.000
888.70	-0.000
888.87	-0.000
889.04	-0.000
889.21	-0.000
889.38	-0.000
889.55	-0.000
889.71	-0.000
889.88	-0.000
890.05	-0.000
890.22	-0.000
890.39	-0.000
>>>>>End Processed Spectral Data<<<<<
