SpectraSuite Data File
++++++++++++++++++++++++++++++++++++
Date: Fri Jun 19 15:11:12 CEST 2015
User: introlabs
Dark Spectrum Present: Yes
Reference Spectrum Present: Yes
Number of Sampled Component Spectra: 1
Spectrometers: USB4H08886
Integration Time (usec): 745692 (USB4H08886)
Spectra Averaged: 5 (USB4H08886)
Boxcar Smoothing: 5 (USB4H08886)
Correct for Electrical Dark: Yes (USB4H08886)
Strobe/Lamp Enabled: No (USB4H08886)
Correct for Detector Non-linearity: Yes (USB4H08886)
Correct for Stray Light: Yes (USB4H08886)
Number of Pixels in Processed Spectrum: 3648
>>>>>Begin Processed Spectral Data<<<<<
178.14	-0.000
178.36	-0.000
178.57	-0.000
178.79	-0.000
179.01	-0.000
179.22	-0.000
179.44	-0.000
179.65	-0.000
179.87	-0.000
180.08	-0.000
180.30	-0.000
180.52	-0.000
180.73	-0.000
180.95	-0.000
181.16	-0.000
181.38	-0.000
181.59	-0.000
181.81	-0.000
182.03	-0.000
182.24	-0.000
182.46	-0.000
182.67	-0.000
182.89	-0.000
183.10	-0.000
183.32	-0.000
183.54	-0.000
183.75	-0.000
183.97	-0.000
184.18	-0.000
184.40	-0.000
184.61	-0.000
184.83	-0.000
185.04	-0.000
185.26	-0.000
185.48	-0.000
185.69	-0.000
185.91	-0.000
186.12	-0.000
186.34	-0.000
186.55	-0.000
186.77	-0.000
186.98	-0.000
187.20	-0.000
187.42	-0.000
187.63	-0.000
187.85	-0.000
188.06	-0.000
188.28	-0.000
188.49	-0.000
188.71	-0.000
188.92	-0.000
189.14	-0.000
189.36	-0.000
189.57	-0.000
189.79	-0.000
190.00	-0.000
190.22	-0.000
190.43	-0.000
190.65	-0.000
190.86	-0.000
191.08	-0.000
191.29	-0.000
191.51	-0.000
191.72	-0.000
191.94	-0.000
192.16	-0.000
192.37	-0.000
192.59	-0.000
192.80	-0.000
193.02	-0.000
193.23	-0.000
193.45	-0.000
193.66	-0.000
193.88	-0.000
194.09	-0.000
194.31	-0.000
194.52	-0.000
194.74	-0.000
194.95	-0.000
195.17	-0.000
195.38	-0.000
195.60	-0.000
195.81	-0.000
196.03	-0.000
196.25	-0.000
196.46	-0.000
196.68	-0.000
196.89	-0.000
197.11	-0.000
197.32	-0.000
197.54	-0.000
197.75	-0.000
197.97	-0.000
198.18	-0.000
198.40	-0.000
198.61	-0.000
198.83	-0.000
199.04	-0.000
199.26	-0.000
199.47	-0.000
199.69	-0.000
199.90	-0.000
200.12	-0.000
200.33	-0.000
200.55	-0.000
200.76	-0.000
200.98	-0.000
201.19	-0.000
201.41	-0.000
201.62	-0.000
201.84	-0.000
202.05	-0.000
202.27	-0.000
202.48	-0.000
202.70	-0.000
202.91	-0.000
203.13	-0.000
203.34	-0.000
203.56	-0.000
203.77	-0.000
203.99	-0.000
204.20	-0.000
204.42	-0.000
204.63	-0.000
204.85	-0.000
205.06	-0.000
205.28	-0.000
205.49	-0.000
205.71	-0.000
205.92	-0.000
206.14	-0.000
206.35	-0.000
206.56	-0.000
206.78	-0.000
206.99	-0.000
207.21	-0.000
207.42	-0.000
207.64	-0.000
207.85	-0.000
208.07	-0.000
208.28	-0.000
208.50	-0.000
208.71	-0.000
208.93	-0.000
209.14	-0.000
209.36	-0.000
209.57	-0.000
209.79	-0.000
210.00	-0.000
210.22	-0.000
210.43	-0.000
210.64	-0.000
210.86	-0.000
211.07	-0.000
211.29	-0.000
211.50	-0.000
211.72	-0.000
211.93	-0.000
212.15	-0.000
212.36	-0.000
212.58	-0.000
212.79	-0.000
213.01	-0.000
213.22	-0.000
213.43	-0.000
213.65	-0.000
213.86	-0.000
214.08	-0.000
214.29	-0.000
214.51	-0.000
214.72	-0.000
214.94	-0.000
215.15	-0.000
215.36	-0.000
215.58	-0.000
215.79	-0.000
216.01	-0.000
216.22	-0.000
216.44	-0.000
216.65	-0.000
216.87	-0.000
217.08	-0.000
217.29	-0.000
217.51	-0.000
217.72	-0.000
217.94	-0.000
218.15	-0.000
218.37	-0.000
218.58	-0.000
218.80	-0.000
219.01	-0.000
219.22	-0.000
219.44	-0.000
219.65	-0.000
219.87	-0.000
220.08	-0.000
220.30	-0.000
220.51	-0.000
220.72	-0.000
220.94	-0.000
221.15	-0.000
221.37	-0.000
221.58	-0.000
221.79	-0.000
222.01	-0.000
222.22	-0.000
222.44	-0.000
222.65	-0.000
222.87	-0.000
223.08	-0.000
223.29	-0.000
223.51	-0.000
223.72	-0.000
223.94	-0.000
224.15	-0.000
224.36	-0.000
224.58	-0.000
224.79	-0.000
225.01	-0.000
225.22	-0.000
225.44	-0.000
225.65	-0.000
225.86	-0.000
226.08	-0.000
226.29	-0.000
226.51	-0.000
226.72	-0.000
226.93	-0.000
227.15	-0.000
227.36	-0.000
227.58	-0.000
227.79	-0.000
228.00	-0.000
228.22	-0.000
228.43	-0.000
228.65	-0.000
228.86	-0.000
229.07	-0.000
229.29	-0.000
229.50	-0.000
229.72	-0.000
229.93	-0.000
230.14	-0.000
230.36	-0.000
230.57	-0.000
230.78	-0.000
231.00	-0.000
231.21	-0.000
231.43	-0.000
231.64	-0.000
231.85	-0.000
232.07	-0.000
232.28	-0.000
232.50	-0.000
232.71	-0.000
232.92	-0.000
233.14	-0.000
233.35	-0.000
233.56	-0.000
233.78	-0.000
233.99	-0.000
234.21	-0.000
234.42	-0.000
234.63	-0.000
234.85	-0.000
235.06	-0.000
235.27	-0.000
235.49	-0.000
235.70	-0.000
235.91	-0.000
236.13	-0.000
236.34	-0.000
236.56	-0.000
236.77	-0.000
236.98	-0.000
237.20	-0.000
237.41	-0.000
237.62	-0.000
237.84	-0.000
238.05	-0.000
238.26	-0.000
238.48	-0.000
238.69	-0.000
238.91	-0.000
239.12	-0.000
239.33	-0.000
239.55	-0.000
239.76	-0.000
239.97	-0.000
240.19	-0.000
240.40	-0.000
240.61	-0.000
240.83	-0.000
241.04	-0.000
241.25	-0.000
241.47	-0.000
241.68	-0.000
241.89	-0.000
242.11	-0.000
242.32	-0.000
242.53	-0.000
242.75	-0.000
242.96	-0.000
243.17	-0.000
243.39	-0.000
243.60	-0.000
243.81	-0.000
244.03	-0.000
244.24	-0.000
244.45	-0.000
244.67	-0.000
244.88	-0.000
245.09	-0.000
245.31	-0.000
245.52	-0.000
245.73	-0.000
245.95	-0.000
246.16	-0.000
246.37	-0.000
246.59	-0.000
246.80	-0.000
247.01	-0.000
247.23	-0.000
247.44	-0.000
247.65	-0.000
247.87	-0.000
248.08	-0.000
248.29	-0.000
248.51	-0.000
248.72	-0.000
248.93	-0.000
249.15	-0.000
249.36	-0.000
249.57	-0.000
249.78	-0.000
250.00	-0.000
250.21	-0.000
250.42	-0.000
250.64	-0.000
250.85	-0.000
251.06	-0.000
251.28	-0.000
251.49	-0.000
251.70	-0.000
251.92	-0.000
252.13	-0.000
252.34	-0.000
252.55	-0.000
252.77	-0.000
252.98	-0.000
253.19	-0.000
253.41	-0.000
253.62	-0.000
253.83	-0.000
254.05	-0.000
254.26	-0.000
254.47	-0.000
254.68	-0.000
254.90	-0.000
255.11	-0.000
255.32	-0.000
255.54	-0.000
255.75	-0.000
255.96	-0.000
256.17	-0.000
256.39	-0.000
256.60	-0.000
256.81	-0.000
257.03	-0.000
257.24	-0.000
257.45	-0.000
257.66	-0.000
257.88	-0.000
258.09	-0.000
258.30	-0.000
258.51	-0.000
258.73	-0.000
258.94	-0.000
259.15	-0.000
259.37	-0.000
259.58	-0.000
259.79	-0.000
260.00	-0.000
260.22	-0.000
260.43	-0.000
260.64	-0.000
260.85	-0.000
261.07	-0.000
261.28	-0.000
261.49	-0.000
261.71	-0.000
261.92	-0.000
262.13	-0.000
262.34	-0.000
262.56	-0.000
262.77	-0.000
262.98	-0.000
263.19	-0.000
263.41	-0.000
263.62	-0.000
263.83	-0.000
264.04	-0.000
264.26	-0.000
264.47	-0.000
264.68	-0.000
264.89	-0.000
265.11	-0.000
265.32	-0.000
265.53	-0.000
265.74	-0.000
265.96	-0.000
266.17	-0.000
266.38	-0.000
266.59	-0.000
266.81	-0.000
267.02	-0.000
267.23	-0.000
267.44	-0.000
267.65	-0.000
267.87	-0.000
268.08	-0.000
268.29	-0.000
268.50	-0.000
268.72	-0.000
268.93	-0.000
269.14	-0.000
269.35	-0.000
269.57	-0.000
269.78	-0.000
269.99	-0.000
270.20	-0.000
270.41	-0.000
270.63	-0.000
270.84	-0.000
271.05	-0.000
271.26	-0.000
271.48	-0.000
271.69	-0.000
271.90	-0.000
272.11	-0.000
272.32	-0.000
272.54	-0.000
272.75	-0.000
272.96	-0.000
273.17	-0.000
273.39	-0.000
273.60	-0.000
273.81	-0.000
274.02	-0.000
274.23	-0.000
274.45	-0.000
274.66	-0.000
274.87	-0.000
275.08	-0.000
275.29	-0.000
275.51	-0.000
275.72	-0.000
275.93	-0.000
276.14	-0.000
276.35	-0.000
276.57	-0.000
276.78	-0.000
276.99	-0.000
277.20	-0.000
277.41	-0.000
277.63	-0.000
277.84	-0.000
278.05	-0.000
278.26	-0.000
278.47	-0.000
278.69	-0.000
278.90	-0.000
279.11	-0.000
279.32	-0.000
279.53	-0.000
279.74	-0.000
279.96	-0.000
280.17	-0.000
280.38	-0.000
280.59	-0.000
280.80	-0.000
281.02	-0.000
281.23	-0.000
281.44	-0.000
281.65	-0.000
281.86	-0.000
282.07	-0.000
282.29	-0.000
282.50	-0.000
282.71	-0.000
282.92	-0.000
283.13	-0.000
283.35	-0.000
283.56	-0.000
283.77	-0.000
283.98	-0.000
284.19	-0.000
284.40	-0.000
284.62	-0.000
284.83	-0.000
285.04	-0.000
285.25	-0.000
285.46	-0.000
285.67	-0.000
285.88	-0.000
286.10	-0.000
286.31	-0.000
286.52	-0.000
286.73	-0.000
286.94	-0.000
287.15	-0.000
287.37	-0.000
287.58	-0.000
287.79	-0.000
288.00	-0.000
288.21	-0.000
288.42	-0.000
288.63	-0.000
288.85	-0.000
289.06	-0.000
289.27	-0.000
289.48	-0.000
289.69	-0.000
289.90	-0.000
290.11	-0.000
290.33	-0.000
290.54	-0.000
290.75	-0.000
290.96	-0.000
291.17	-0.000
291.38	-0.000
291.59	-0.000
291.81	-0.000
292.02	-0.000
292.23	-0.000
292.44	-0.000
292.65	-0.000
292.86	-0.000
293.07	-0.000
293.28	-0.000
293.50	-0.000
293.71	-0.000
293.92	-0.000
294.13	-0.000
294.34	-0.000
294.55	-0.000
294.76	-0.000
294.97	-0.000
295.19	-0.000
295.40	-0.000
295.61	-0.000
295.82	-0.000
296.03	-0.000
296.24	-0.000
296.45	2.201
296.66	1.818
296.87	1.841
297.09	1.910
297.30	2.148
297.51	1.738
297.72	1.684
297.93	1.773
298.14	1.739
298.35	1.708
298.56	1.692
298.77	1.801
298.99	1.765
299.20	1.740
299.41	1.716
299.62	1.666
299.83	1.655
300.04	1.597
300.25	1.590
300.46	1.621
300.67	1.593
300.88	1.545
301.10	1.556
301.31	1.625
301.52	1.564
301.73	1.517
301.94	1.516
302.15	1.532
302.36	1.490
302.57	1.431
302.78	1.441
302.99	1.481
303.20	1.503
303.41	1.413
303.63	1.400
303.84	1.407
304.05	1.401
304.26	1.345
304.47	1.349
304.68	1.350
304.89	1.336
305.10	1.300
305.31	1.290
305.52	1.329
305.73	1.323
305.94	1.281
306.15	1.274
306.37	1.295
306.58	1.302
306.79	1.273
307.00	1.295
307.21	1.338
307.42	1.327
307.63	1.290
307.84	1.260
308.05	1.293
308.26	1.291
308.47	1.269
308.68	1.265
308.89	1.261
309.10	1.258
309.31	1.216
309.52	1.206
309.73	1.221
309.95	1.217
310.16	1.187
310.37	1.178
310.58	1.195
310.79	1.191
311.00	1.188
311.21	1.189
311.42	1.189
311.63	1.186
311.84	1.168
312.05	1.164
312.26	1.184
312.47	1.196
312.68	1.173
312.89	1.156
313.10	1.162
313.31	1.137
313.52	1.141
313.73	1.142
313.94	1.144
314.15	1.129
314.36	1.110
314.57	1.102
314.78	1.089
314.99	1.083
315.21	1.073
315.42	1.078
315.63	1.089
315.84	1.067
316.05	1.055
316.26	1.062
316.47	1.077
316.68	1.073
316.89	1.054
317.10	1.072
317.31	1.076
317.52	1.077
317.73	1.057
317.94	1.056
318.15	1.094
318.36	1.094
318.57	1.078
318.78	1.070
318.99	1.104
319.20	1.105
319.41	1.073
319.62	1.078
319.83	1.090
320.04	1.087
320.25	1.075
320.46	1.044
320.67	1.046
320.88	1.042
321.09	1.028
321.30	1.011
321.51	1.023
321.72	1.022
321.93	1.005
322.14	0.998
322.35	1.023
322.56	1.025
322.77	1.013
322.98	1.024
323.19	1.031
323.40	1.038
323.61	1.018
323.82	1.013
324.03	1.016
324.24	1.015
324.45	1.002
324.66	0.982
324.87	0.977
325.08	0.976
325.29	0.958
325.50	0.951
325.71	0.954
325.92	0.962
326.13	0.951
326.34	0.952
326.55	0.957
326.76	0.957
326.97	0.948
327.18	0.943
327.39	0.968
327.60	0.968
327.80	0.970
328.01	0.967
328.22	0.967
328.43	0.969
328.64	0.958
328.85	0.964
329.06	0.964
329.27	0.964
329.48	0.960
329.69	0.941
329.90	0.949
330.11	0.942
330.32	0.936
330.53	0.930
330.74	0.929
330.95	0.928
331.16	0.914
331.37	0.924
331.58	0.923
331.79	0.922
332.00	0.915
332.21	0.910
332.42	0.913
332.63	0.905
332.83	0.901
333.04	0.904
333.25	0.914
333.46	0.913
333.67	0.899
333.88	0.902
334.09	0.912
334.30	0.909
334.51	0.901
334.72	0.897
334.93	0.899
335.14	0.898
335.35	0.890
335.56	0.886
335.77	0.893
335.98	0.894
336.18	0.886
336.39	0.878
336.60	0.883
336.81	0.882
337.02	0.882
337.23	0.886
337.44	0.889
337.65	0.891
337.86	0.881
338.07	0.876
338.28	0.879
338.49	0.878
338.70	0.872
338.91	0.879
339.11	0.885
339.32	0.881
339.53	0.870
339.74	0.867
339.95	0.864
340.16	0.863
340.37	0.856
340.58	0.854
340.79	0.857
341.00	0.856
341.21	0.846
341.41	0.847
341.62	0.847
341.83	0.848
342.04	0.843
342.25	0.854
342.46	0.857
342.67	0.856
342.88	0.849
343.09	0.848
343.30	0.855
343.50	0.858
343.71	0.848
343.92	0.848
344.13	0.851
344.34	0.851
344.55	0.834
344.76	0.832
344.97	0.836
345.18	0.835
345.38	0.833
345.59	0.827
345.80	0.826
346.01	0.825
346.22	0.820
346.43	0.815
346.64	0.822
346.85	0.822
347.06	0.816
347.26	0.816
347.47	0.820
347.68	0.816
347.89	0.812
348.10	0.807
348.31	0.812
348.52	0.812
348.73	0.810
348.93	0.808
349.14	0.811
349.35	0.809
349.56	0.805
349.77	0.799
349.98	0.804
350.19	0.801
350.39	0.798
350.60	0.794
350.81	0.810
351.02	0.808
351.23	0.802
351.44	0.804
351.65	0.807
351.86	0.803
352.06	0.803
352.27	0.801
352.48	0.803
352.69	0.801
352.90	0.796
353.11	0.783
353.31	0.790
353.52	0.787
353.73	0.779
353.94	0.781
354.15	0.787
354.36	0.786
354.57	0.778
354.77	0.780
354.98	0.779
355.19	0.779
355.40	0.779
355.61	0.784
355.82	0.787
356.02	0.787
356.23	0.780
356.44	0.780
356.65	0.783
356.86	0.784
357.07	0.778
357.27	0.782
357.48	0.784
357.69	0.779
357.90	0.763
358.11	0.760
358.32	0.764
358.52	0.767
358.73	0.758
358.94	0.761
359.15	0.766
359.36	0.766
359.56	0.761
359.77	0.759
359.98	0.766
360.19	0.766
360.40	0.762
360.61	0.762
360.81	0.760
361.02	0.761
361.23	0.754
361.44	0.752
361.65	0.752
361.85	0.751
362.06	0.750
362.27	0.752
362.48	0.751
362.69	0.754
362.89	0.749
363.10	0.751
363.31	0.755
363.52	0.758
363.73	0.753
363.93	0.754
364.14	0.756
364.35	0.757
364.56	0.747
364.77	0.749
364.97	0.751
365.18	0.751
365.39	0.746
365.60	0.743
365.81	0.744
366.01	0.743
366.22	0.740
366.43	0.739
366.64	0.741
366.84	0.747
367.05	0.744
367.26	0.744
367.47	0.746
367.68	0.746
367.88	0.744
368.09	0.741
368.30	0.743
368.51	0.742
368.71	0.741
368.92	0.745
369.13	0.743
369.34	0.742
369.55	0.741
369.75	0.741
369.96	0.747
370.17	0.747
370.38	0.744
370.58	0.744
370.79	0.748
371.00	0.748
371.21	0.739
371.41	0.744
371.62	0.748
371.83	0.743
372.04	0.741
372.24	0.734
372.45	0.735
372.66	0.735
372.87	0.732
373.07	0.729
373.28	0.730
373.49	0.734
373.70	0.724
373.90	0.723
374.11	0.733
374.32	0.732
374.53	0.731
374.73	0.733
374.94	0.735
375.15	0.735
375.36	0.733
375.56	0.742
375.77	0.742
375.98	0.742
376.19	0.739
376.39	0.733
376.60	0.736
376.81	0.737
377.02	0.734
377.22	0.733
377.43	0.733
377.64	0.733
377.84	0.723
378.05	0.728
378.26	0.734
378.47	0.734
378.67	0.731
378.88	0.728
379.09	0.729
379.30	0.728
379.50	0.727
379.71	0.729
379.92	0.732
380.12	0.732
380.33	0.723
380.54	0.719
380.75	0.726
380.95	0.726
381.16	0.724
381.37	0.724
381.57	0.726
381.78	0.726
381.99	0.726
382.20	0.725
382.40	0.728
382.61	0.728
382.82	0.726
383.02	0.719
383.23	0.722
383.44	0.722
383.64	0.721
383.85	0.724
384.06	0.727
384.27	0.725
384.47	0.723
384.68	0.724
384.89	0.729
385.09	0.729
385.30	0.729
385.51	0.728
385.71	0.730
385.92	0.731
386.13	0.730
386.33	0.732
386.54	0.733
386.75	0.732
386.95	0.728
387.16	0.724
387.37	0.726
387.58	0.726
387.78	0.725
387.99	0.723
388.20	0.724
388.40	0.721
388.61	0.716
388.82	0.719
389.02	0.721
389.23	0.721
389.44	0.719
389.64	0.719
389.85	0.731
390.06	0.731
390.26	0.732
390.47	0.731
390.68	0.734
390.88	0.732
391.09	0.728
391.30	0.728
391.50	0.729
391.71	0.729
391.92	0.726
392.12	0.718
392.33	0.718
392.53	0.718
392.74	0.719
392.95	0.718
393.15	0.721
393.36	0.722
393.57	0.720
393.77	0.723
393.98	0.724
394.19	0.724
394.39	0.724
394.60	0.725
394.81	0.727
395.01	0.724
395.22	0.723
395.43	0.724
395.63	0.729
395.84	0.730
396.04	0.727
396.25	0.729
396.46	0.731
396.66	0.729
396.87	0.726
397.08	0.722
397.28	0.725
397.49	0.725
397.69	0.722
397.90	0.718
398.11	0.719
398.31	0.720
398.52	0.716
398.73	0.717
398.93	0.716
399.14	0.716
399.34	0.715
399.55	0.716
399.76	0.717
399.96	0.717
400.17	0.716
400.37	0.715
400.58	0.721
400.79	0.722
400.99	0.720
401.20	0.726
401.41	0.728
401.61	0.729
401.82	0.734
402.02	0.734
402.23	0.735
402.44	0.734
402.64	0.734
402.85	0.729
403.05	0.729
403.26	0.728
403.47	0.722
403.67	0.720
403.88	0.721
404.08	0.715
404.29	0.713
404.50	0.713
404.70	0.714
404.91	0.713
405.11	0.710
405.32	0.711
405.52	0.711
405.73	0.711
405.94	0.709
406.14	0.712
406.35	0.714
406.55	0.714
406.76	0.711
406.97	0.712
407.17	0.714
407.38	0.714
407.58	0.712
407.79	0.715
407.99	0.717
408.20	0.719
408.41	0.714
408.61	0.713
408.82	0.715
409.02	0.715
409.23	0.713
409.43	0.711
409.64	0.713
409.84	0.713
410.05	0.710
410.26	0.708
410.46	0.707
410.67	0.706
410.87	0.707
411.08	0.709
411.28	0.711
411.49	0.712
411.69	0.710
411.90	0.711
412.11	0.712
412.31	0.713
412.52	0.712
412.72	0.713
412.93	0.714
413.13	0.713
413.34	0.709
413.54	0.711
413.75	0.712
413.95	0.712
414.16	0.709
414.37	0.712
414.57	0.712
414.78	0.714
414.98	0.712
415.19	0.713
415.39	0.710
415.60	0.712
415.80	0.711
416.01	0.710
416.21	0.712
416.42	0.711
416.62	0.706
416.83	0.707
417.03	0.706
417.24	0.706
417.44	0.704
417.65	0.704
417.86	0.704
418.06	0.702
418.27	0.701
418.47	0.702
418.68	0.703
418.88	0.704
419.09	0.703
419.29	0.703
419.50	0.704
419.70	0.703
419.91	0.702
420.11	0.700
420.32	0.702
420.52	0.702
420.73	0.700
420.93	0.701
421.14	0.702
421.34	0.700
421.55	0.697
421.75	0.697
421.96	0.698
422.16	0.698
422.37	0.698
422.57	0.694
422.78	0.696
422.98	0.692
423.19	0.690
423.39	0.688
423.60	0.692
423.80	0.693
424.01	0.692
424.21	0.694
424.42	0.694
424.62	0.693
424.83	0.693
425.03	0.693
425.23	0.695
425.44	0.696
425.64	0.697
425.85	0.695
426.05	0.696
426.26	0.697
426.46	0.693
426.67	0.693
426.87	0.698
427.08	0.698
427.28	0.696
427.49	0.697
427.69	0.698
427.90	0.697
428.10	0.693
428.31	0.693
428.51	0.694
428.71	0.694
428.92	0.694
429.12	0.692
429.33	0.692
429.53	0.696
429.74	0.701
429.94	0.700
430.15	0.700
430.35	0.700
430.56	0.697
430.76	0.697
430.96	0.697
431.17	0.695
431.37	0.692
431.58	0.690
431.78	0.686
431.99	0.679
432.19	0.682
432.40	0.684
432.60	0.684
432.80	0.687
433.01	0.685
433.21	0.685
433.42	0.687
433.62	0.687
433.83	0.686
434.03	0.688
434.23	0.691
434.44	0.690
434.64	0.688
434.85	0.693
435.05	0.694
435.26	0.695
435.46	0.694
435.66	0.693
435.87	0.693
436.07	0.693
436.28	0.689
436.48	0.687
436.69	0.686
436.89	0.686
437.09	0.679
437.30	0.678
437.50	0.678
437.71	0.690
437.91	0.689
438.11	0.690
438.32	0.694
438.52	0.694
438.73	0.693
438.93	0.691
439.13	0.691
439.34	0.694
439.54	0.691
439.75	0.691
439.95	0.681
440.15	0.685
440.36	0.684
440.56	0.681
440.77	0.682
440.97	0.681
441.17	0.681
441.38	0.682
441.58	0.679
441.79	0.679
441.99	0.677
442.19	0.676
442.40	0.674
442.60	0.674
442.81	0.672
443.01	0.672
443.21	0.672
443.42	0.672
443.62	0.670
443.82	0.671
444.03	0.672
444.23	0.672
444.44	0.672
444.64	0.671
444.84	0.672
445.05	0.672
445.25	0.670
445.45	0.671
445.66	0.673
445.86	0.672
446.06	0.673
446.27	0.672
446.47	0.675
446.68	0.673
446.88	0.672
447.08	0.671
447.29	0.673
447.49	0.672
447.69	0.672
447.90	0.671
448.10	0.674
448.30	0.671
448.51	0.672
448.71	0.669
448.91	0.671
449.12	0.670
449.32	0.672
449.52	0.670
449.73	0.674
449.93	0.673
450.14	0.673
450.34	0.672
450.54	0.675
450.75	0.672
450.95	0.672
451.15	0.671
451.36	0.674
451.56	0.671
451.76	0.670
451.97	0.667
452.17	0.668
452.37	0.667
452.58	0.664
452.78	0.664
452.98	0.666
453.19	0.665
453.39	0.666
453.59	0.664
453.79	0.664
454.00	0.665
454.20	0.663
454.40	0.663
454.61	0.666
454.81	0.667
455.01	0.665
455.22	0.665
455.42	0.667
455.62	0.665
455.83	0.665
456.03	0.668
456.23	0.669
456.44	0.670
456.64	0.669
456.84	0.668
457.04	0.668
457.25	0.667
457.45	0.664
457.65	0.663
457.86	0.663
458.06	0.663
458.26	0.658
458.47	0.658
458.67	0.658
458.87	0.658
459.07	0.656
459.28	0.658
459.48	0.660
459.68	0.661
459.89	0.660
460.09	0.659
460.29	0.660
460.49	0.662
460.70	0.661
460.90	0.661
461.10	0.662
461.31	0.661
461.51	0.658
461.71	0.660
461.91	0.661
462.12	0.661
462.32	0.660
462.52	0.660
462.72	0.663
462.93	0.663
463.13	0.661
463.33	0.663
463.53	0.665
463.74	0.664
463.94	0.660
464.14	0.660
464.35	0.661
464.55	0.661
464.75	0.660
464.95	0.657
465.16	0.659
465.36	0.658
465.56	0.657
465.76	0.656
465.97	0.656
466.17	0.657
466.37	0.655
466.57	0.656
466.78	0.657
466.98	0.657
467.18	0.656
467.38	0.654
467.59	0.656
467.79	0.657
467.99	0.656
468.19	0.657
468.39	0.660
468.60	0.659
468.80	0.658
469.00	0.659
469.20	0.659
469.41	0.659
469.61	0.660
469.81	0.660
470.01	0.659
470.22	0.659
470.42	0.657
470.62	0.656
470.82	0.657
471.02	0.656
471.23	0.654
471.43	0.654
471.63	0.657
471.83	0.656
472.04	0.654
472.24	0.653
472.44	0.658
472.64	0.658
472.84	0.657
473.05	0.656
473.25	0.659
473.45	0.659
473.65	0.657
473.85	0.658
474.06	0.659
474.26	0.659
474.46	0.660
474.66	0.657
474.86	0.657
475.07	0.656
475.27	0.655
475.47	0.653
475.67	0.653
475.87	0.655
476.08	0.651
476.28	0.652
476.48	0.653
476.68	0.651
476.88	0.649
477.09	0.651
477.29	0.653
477.49	0.653
477.69	0.652
477.89	0.652
478.09	0.652
478.30	0.654
478.50	0.652
478.70	0.652
478.90	0.652
479.10	0.655
479.31	0.655
479.51	0.653
479.71	0.654
479.91	0.654
480.11	0.653
480.31	0.654
480.52	0.652
480.72	0.652
480.92	0.650
481.12	0.649
481.32	0.647
481.52	0.645
481.72	0.646
481.93	0.649
482.13	0.650
482.33	0.650
482.53	0.648
482.73	0.649
482.93	0.650
483.14	0.650
483.34	0.649
483.54	0.650
483.74	0.649
483.94	0.649
484.14	0.644
484.34	0.644
484.55	0.644
484.75	0.644
484.95	0.642
485.15	0.641
485.35	0.641
485.55	0.641
485.75	0.639
485.96	0.639
486.16	0.640
486.36	0.640
486.56	0.638
486.76	0.638
486.96	0.638
487.16	0.638
487.36	0.636
487.57	0.635
487.77	0.636
487.97	0.637
488.17	0.635
488.37	0.634
488.57	0.634
488.77	0.635
488.97	0.633
489.18	0.633
489.38	0.635
489.58	0.636
489.78	0.635
489.98	0.635
490.18	0.635
490.38	0.636
490.58	0.635
490.78	0.635
490.98	0.637
491.19	0.637
491.39	0.637
491.59	0.636
491.79	0.639
491.99	0.639
492.19	0.639
492.39	0.642
492.59	0.642
492.79	0.644
492.99	0.644
493.20	0.644
493.40	0.644
493.60	0.645
493.80	0.644
494.00	0.641
494.20	0.641
494.40	0.641
494.60	0.638
494.80	0.642
495.00	0.641
495.20	0.640
495.40	0.639
495.61	0.640
495.81	0.640
496.01	0.644
496.21	0.645
496.41	0.644
496.61	0.645
496.81	0.644
497.01	0.638
497.21	0.638
497.41	0.638
497.61	0.638
497.81	0.636
498.01	0.636
498.21	0.634
498.41	0.632
498.61	0.632
498.82	0.633
499.02	0.635
499.22	0.635
499.42	0.635
499.62	0.636
499.82	0.637
500.02	0.638
500.22	0.637
500.42	0.639
500.62	0.640
500.82	0.640
501.02	0.638
501.22	0.638
501.42	0.638
501.62	0.641
501.82	0.640
502.02	0.640
502.22	0.639
502.42	0.641
502.62	0.638
502.82	0.638
503.02	0.639
503.22	0.639
503.42	0.637
503.63	0.637
503.83	0.634
504.03	0.633
504.23	0.632
504.43	0.633
504.63	0.634
504.83	0.634
505.03	0.633
505.23	0.634
505.43	0.635
505.63	0.636
505.83	0.636
506.03	0.638
506.23	0.640
506.43	0.640
506.63	0.639
506.83	0.637
507.03	0.640
507.23	0.640
507.43	0.637
507.63	0.638
507.83	0.638
508.03	0.639
508.23	0.638
508.43	0.636
508.63	0.638
508.83	0.639
509.03	0.639
509.23	0.638
509.43	0.639
509.63	0.639
509.83	0.638
510.03	0.640
510.23	0.642
510.43	0.642
510.63	0.643
510.83	0.643
511.03	0.644
511.23	0.642
511.43	0.642
511.63	0.643
511.83	0.645
512.03	0.645
512.22	0.642
512.42	0.642
512.62	0.643
512.82	0.642
513.02	0.642
513.22	0.641
513.42	0.643
513.62	0.646
513.82	0.644
514.02	0.643
514.22	0.645
514.42	0.645
514.62	0.645
514.82	0.645
515.02	0.647
515.22	0.650
515.42	0.649
515.62	0.652
515.82	0.650
516.02	0.651
516.22	0.651
516.42	0.652
516.62	0.655
516.82	0.656
517.01	0.654
517.21	0.654
517.41	0.657
517.61	0.658
517.81	0.654
518.01	0.653
518.21	0.653
518.41	0.651
518.61	0.651
518.81	0.651
519.01	0.651
519.21	0.651
519.41	0.651
519.61	0.645
519.81	0.647
520.00	0.648
520.20	0.649
520.40	0.652
520.60	0.653
520.80	0.652
521.00	0.652
521.20	0.653
521.40	0.657
521.60	0.657
521.80	0.657
522.00	0.657
522.20	0.659
522.39	0.658
522.59	0.655
522.79	0.657
522.99	0.658
523.19	0.656
523.39	0.654
523.59	0.653
523.79	0.656
523.99	0.658
524.19	0.657
524.38	0.656
524.58	0.657
524.78	0.657
524.98	0.656
525.18	0.658
525.38	0.659
525.58	0.659
525.78	0.657
525.98	0.655
526.18	0.655
526.37	0.655
526.57	0.657
526.77	0.656
526.97	0.657
527.17	0.657
527.37	0.654
527.57	0.656
527.77	0.658
527.96	0.658
528.16	0.657
528.36	0.659
528.56	0.660
528.76	0.658
528.96	0.658
529.16	0.659
529.36	0.661
529.55	0.661
529.75	0.659
529.95	0.659
530.15	0.660
530.35	0.662
530.55	0.660
530.75	0.661
530.94	0.663
531.14	0.662
531.34	0.661
531.54	0.659
531.74	0.661
531.94	0.664
532.13	0.662
532.33	0.664
532.53	0.662
532.73	0.661
532.93	0.659
533.13	0.660
533.33	0.660
533.52	0.661
533.72	0.664
533.92	0.662
534.12	0.660
534.32	0.661
534.52	0.660
534.71	0.662
534.91	0.664
535.11	0.666
535.31	0.664
535.51	0.666
535.71	0.668
535.90	0.664
536.10	0.666
536.30	0.668
536.50	0.668
536.70	0.668
536.89	0.665
537.09	0.665
537.29	0.667
537.49	0.668
537.69	0.666
537.89	0.667
538.08	0.666
538.28	0.665
538.48	0.664
538.68	0.666
538.88	0.668
539.07	0.668
539.27	0.667
539.47	0.665
539.67	0.665
539.87	0.666
540.06	0.664
540.26	0.664
540.46	0.666
540.66	0.664
540.86	0.661
541.05	0.662
541.25	0.663
541.45	0.663
541.65	0.662
541.84	0.664
542.04	0.665
542.24	0.666
542.44	0.665
542.64	0.666
542.83	0.669
543.03	0.670
543.23	0.667
543.43	0.668
543.62	0.670
543.82	0.670
544.02	0.669
544.22	0.669
544.42	0.672
544.61	0.673
544.81	0.670
545.01	0.669
545.21	0.671
545.40	0.672
545.60	0.670
545.80	0.673
546.00	0.673
546.19	0.672
546.39	0.670
546.59	0.668
546.79	0.669
546.98	0.669
547.18	0.668
547.38	0.669
547.58	0.671
547.77	0.671
547.97	0.667
548.17	0.669
548.37	0.669
548.56	0.670
548.76	0.669
548.96	0.671
549.16	0.673
549.35	0.674
549.55	0.672
549.75	0.673
549.95	0.676
550.14	0.676
550.34	0.675
550.54	0.680
550.73	0.683
550.93	0.684
551.13	0.681
551.33	0.679
551.52	0.680
551.72	0.679
551.92	0.677
552.12	0.678
552.31	0.679
552.51	0.678
552.71	0.674
552.90	0.674
553.10	0.676
553.30	0.676
553.50	0.675
553.69	0.676
553.89	0.676
554.09	0.677
554.28	0.674
554.48	0.675
554.68	0.676
554.87	0.676
555.07	0.673
555.27	0.673
555.47	0.673
555.66	0.674
555.86	0.673
556.06	0.675
556.25	0.676
556.45	0.683
556.65	0.682
556.84	0.685
557.04	0.688
557.24	0.689
557.43	0.690
557.63	0.693
557.83	0.695
558.02	0.697
558.22	0.701
558.42	0.703
558.61	0.696
558.81	0.696
559.01	0.693
559.21	0.692
559.40	0.693
559.60	0.692
559.80	0.689
559.99	0.689
560.19	0.690
560.39	0.685
560.58	0.683
560.78	0.683
560.97	0.686
561.17	0.685
561.37	0.683
561.56	0.683
561.76	0.685
561.96	0.684
562.15	0.681
562.35	0.684
562.55	0.684
562.74	0.684
562.94	0.683
563.14	0.681
563.33	0.683
563.53	0.683
563.73	0.681
563.92	0.682
564.12	0.684
564.31	0.686
564.51	0.684
564.71	0.686
564.90	0.689
565.10	0.689
565.30	0.692
565.49	0.692
565.69	0.695
565.89	0.695
566.08	0.693
566.28	0.695
566.47	0.697
566.67	0.695
566.87	0.693
567.06	0.695
567.26	0.701
567.46	0.697
567.65	0.697
567.85	0.698
568.04	0.701
568.24	0.700
568.44	0.697
568.63	0.695
568.83	0.696
569.02	0.696
569.22	0.691
569.42	0.687
569.61	0.689
569.81	0.687
570.00	0.686
570.20	0.686
570.40	0.688
570.59	0.688
570.79	0.686
570.98	0.684
571.18	0.685
571.38	0.685
571.57	0.682
571.77	0.680
571.96	0.684
572.16	0.681
572.35	0.676
572.55	0.676
572.75	0.674
572.94	0.674
573.14	0.672
573.33	0.672
573.53	0.673
573.73	0.672
573.92	0.670
574.12	0.669
574.31	0.672
574.51	0.673
574.70	0.670
574.90	0.672
575.09	0.674
575.29	0.675
575.49	0.673
575.68	0.673
575.88	0.674
576.07	0.676
576.27	0.674
576.46	0.672
576.66	0.671
576.86	0.670
577.05	0.667
577.25	0.665
577.44	0.667
577.64	0.666
577.83	0.665
578.03	0.665
578.22	0.665
578.42	0.664
578.61	0.663
578.81	0.663
579.00	0.664
579.20	0.663
579.40	0.662
579.59	0.661
579.79	0.662
579.98	0.661
580.18	0.660
580.37	0.660
580.57	0.661
580.76	0.666
580.96	0.665
581.15	0.666
581.35	0.667
581.54	0.667
581.74	0.667
581.93	0.669
582.13	0.670
582.32	0.667
582.52	0.665
582.71	0.665
582.91	0.660
583.10	0.660
583.30	0.658
583.49	0.657
583.69	0.661
583.88	0.662
584.08	0.661
584.27	0.663
584.47	0.666
584.66	0.667
584.86	0.667
585.05	0.669
585.25	0.672
585.44	0.672
585.64	0.670
585.83	0.667
586.03	0.666
586.22	0.665
586.42	0.661
586.61	0.662
586.81	0.664
587.00	0.664
587.20	0.661
587.39	0.662
587.59	0.663
587.78	0.664
587.98	0.665
588.17	0.666
588.37	0.668
588.56	0.670
588.76	0.667
588.95	0.667
589.15	0.671
589.34	0.673
589.54	0.672
589.73	0.673
589.92	0.677
590.12	0.677
590.31	0.676
590.51	0.681
590.70	0.682
590.90	0.683
591.09	0.682
591.29	0.680
591.48	0.680
591.68	0.682
591.87	0.680
592.06	0.679
592.26	0.681
592.45	0.680
592.65	0.674
592.84	0.673
593.04	0.675
593.23	0.677
593.43	0.674
593.62	0.674
593.81	0.674
594.01	0.673
594.20	0.670
594.40	0.669
594.59	0.671
594.79	0.672
594.98	0.670
595.17	0.670
595.37	0.670
595.56	0.673
595.76	0.672
595.95	0.674
596.14	0.678
596.34	0.679
596.53	0.678
596.73	0.679
596.92	0.681
597.12	0.684
597.31	0.684
597.50	0.684
597.70	0.686
597.89	0.685
598.09	0.681
598.28	0.682
598.47	0.684
598.67	0.683
598.86	0.679
599.06	0.681
599.25	0.682
599.44	0.680
599.64	0.677
599.83	0.674
600.03	0.677
600.22	0.677
600.41	0.677
600.61	0.674
600.80	0.676
601.00	0.676
601.19	0.672
601.38	0.670
601.58	0.673
601.77	0.674
601.96	0.676
602.16	0.676
602.35	0.684
602.55	0.682
602.74	0.684
602.93	0.686
603.13	0.691
603.32	0.693
603.51	0.692
603.71	0.695
603.90	0.697
604.09	0.698
604.29	0.695
604.48	0.689
604.68	0.691
604.87	0.689
605.06	0.685
605.26	0.682
605.45	0.682
605.64	0.681
605.84	0.677
606.03	0.675
606.22	0.674
606.42	0.674
606.61	0.670
606.80	0.670
607.00	0.672
607.19	0.672
607.38	0.671
607.58	0.672
607.77	0.674
607.96	0.674
608.16	0.673
608.35	0.677
608.54	0.680
608.74	0.683
608.93	0.687
609.12	0.690
609.32	0.692
609.51	0.695
609.70	0.694
609.90	0.697
610.09	0.701
610.28	0.706
610.48	0.701
610.67	0.703
610.86	0.703
611.06	0.698
611.25	0.697
611.44	0.698
611.64	0.698
611.83	0.700
612.02	0.696
612.21	0.695
612.41	0.693
612.60	0.692
612.79	0.688
612.99	0.689
613.18	0.691
613.37	0.688
613.57	0.685
613.76	0.686
613.95	0.683
614.14	0.683
614.34	0.680
614.53	0.681
614.72	0.683
614.92	0.683
615.11	0.680
615.30	0.677
615.49	0.678
615.69	0.681
615.88	0.678
616.07	0.680
616.26	0.682
616.46	0.684
616.65	0.682
616.84	0.681
617.04	0.682
617.23	0.685
617.42	0.686
617.61	0.690
617.81	0.690
618.00	0.692
618.19	0.690
618.38	0.694
618.58	0.697
618.77	0.697
618.96	0.696
619.15	0.698
619.35	0.700
619.54	0.701
619.73	0.697
619.92	0.699
620.12	0.703
620.31	0.704
620.50	0.699
620.69	0.699
620.89	0.702
621.08	0.703
621.27	0.704
621.46	0.702
621.66	0.706
621.85	0.706
622.04	0.702
622.23	0.703
622.43	0.703
622.62	0.703
622.81	0.702
623.00	0.702
623.19	0.705
623.39	0.704
623.58	0.701
623.77	0.699
623.96	0.701
624.16	0.702
624.35	0.697
624.54	0.700
624.73	0.703
624.92	0.701
625.12	0.698
625.31	0.699
625.50	0.701
625.69	0.702
625.88	0.697
626.08	0.697
626.27	0.698
626.46	0.698
626.65	0.694
626.84	0.694
627.04	0.699
627.23	0.699
627.42	0.696
627.61	0.698
627.80	0.700
628.00	0.702
628.19	0.701
628.38	0.704
628.57	0.706
628.76	0.706
628.96	0.703
629.15	0.703
629.34	0.706
629.53	0.705
629.72	0.700
629.91	0.701
630.11	0.704
630.30	0.705
630.49	0.708
630.68	0.709
630.87	0.712
631.06	0.714
631.26	0.709
631.45	0.711
631.64	0.718
631.83	0.721
632.02	0.719
632.21	0.718
632.41	0.724
632.60	0.719
632.79	0.717
632.98	0.718
633.17	0.719
633.36	0.721
633.55	0.718
633.75	0.714
633.94	0.715
634.13	0.715
634.32	0.713
634.51	0.708
634.70	0.709
634.89	0.709
635.09	0.705
635.28	0.706
635.47	0.706
635.66	0.709
635.85	0.706
636.04	0.707
636.23	0.711
636.43	0.712
636.62	0.712
636.81	0.711
637.00	0.713
637.19	0.716
637.38	0.713
637.57	0.712
637.76	0.713
637.95	0.714
638.15	0.711
638.34	0.708
638.53	0.711
638.72	0.712
638.91	0.709
639.10	0.707
639.29	0.707
639.48	0.708
639.67	0.709
639.87	0.708
640.06	0.713
640.25	0.712
640.44	0.713
640.63	0.714
640.82	0.715
641.01	0.715
641.20	0.715
641.39	0.717
641.58	0.718
641.78	0.717
641.97	0.714
642.16	0.727
642.35	0.728
642.54	0.726
642.73	0.720
642.92	0.719
643.11	0.722
643.30	0.722
643.49	0.717
643.68	0.720
643.87	0.720
644.06	0.721
644.25	0.702
644.45	0.704
644.64	0.705
644.83	0.706
645.02	0.704
645.21	0.704
645.40	0.705
645.59	0.705
645.78	0.700
645.97	0.701
646.16	0.702
646.35	0.702
646.54	0.701
646.73	0.702
646.92	0.703
647.11	0.702
647.30	0.699
647.49	0.701
647.68	0.701
647.88	0.700
648.07	0.694
648.26	0.698
648.45	0.699
648.64	0.695
648.83	0.694
649.02	0.697
649.21	0.706
649.40	0.704
649.59	0.700
649.78	0.701
649.97	0.714
650.16	0.713
650.35	0.707
650.54	0.709
650.73	0.717
650.92	0.713
651.11	0.706
651.30	0.704
651.49	0.708
651.68	0.708
651.87	0.705
652.06	0.695
652.25	0.699
652.44	0.703
652.63	0.702
652.82	0.703
653.01	0.704
653.20	0.703
653.39	0.692
653.58	0.690
653.77	0.690
653.96	0.685
654.15	0.677
654.34	0.675
654.53	0.669
654.72	0.663
654.91	0.653
655.10	0.649
655.29	0.647
655.48	0.645
655.67	0.639
655.86	0.636
656.05	0.635
656.24	0.634
656.43	0.629
656.62	0.628
656.81	0.627
657.00	0.624
657.19	0.620
657.38	0.619
657.57	0.618
657.76	0.619
657.95	0.616
658.14	0.619
658.33	0.620
658.51	0.625
658.70	0.625
658.89	0.627
659.08	0.636
659.27	0.644
659.46	0.645
659.65	0.651
659.84	0.654
660.03	0.659
660.22	0.660
660.41	0.665
660.60	0.663
660.79	0.665
660.98	0.672
661.17	0.672
661.36	0.671
661.55	0.672
661.74	0.671
661.92	0.674
662.11	0.676
662.30	0.675
662.49	0.668
662.68	0.667
662.87	0.670
663.06	0.664
663.25	0.665
663.44	0.664
663.63	0.665
663.82	0.663
664.01	0.658
664.20	0.656
664.38	0.658
664.57	0.658
664.76	0.659
664.95	0.659
665.14	0.663
665.33	0.658
665.52	0.666
665.71	0.670
665.90	0.671
666.09	0.673
666.28	0.670
666.46	0.670
666.65	0.670
666.84	0.668
667.03	0.663
667.22	0.661
667.41	0.663
667.60	0.653
667.79	0.646
667.98	0.647
668.16	0.648
668.35	0.647
668.54	0.644
668.73	0.644
668.92	0.647
669.11	0.645
669.30	0.640
669.49	0.636
669.67	0.639
669.86	0.641
670.05	0.638
670.24	0.635
670.43	0.633
670.62	0.633
670.81	0.628
671.00	0.628
671.18	0.628
671.37	0.627
671.56	0.625
671.75	0.624
671.94	0.621
672.13	0.619
672.32	0.615
672.50	0.614
672.69	0.613
672.88	0.614
673.07	0.609
673.26	0.611
673.45	0.612
673.63	0.612
673.82	0.608
674.01	0.610
674.20	0.610
674.39	0.610
674.58	0.610
674.76	0.610
674.95	0.609
675.14	0.610
675.33	0.606
675.52	0.604
675.71	0.604
675.89	0.603
676.08	0.599
676.27	0.599
676.46	0.599
676.65	0.598
676.84	0.598
677.02	0.599
677.21	0.601
677.40	0.600
677.59	0.598
677.78	0.598
677.96	0.600
678.15	0.599
678.34	0.597
678.53	0.598
678.72	0.597
678.90	0.594
679.09	0.590
679.28	0.587
679.47	0.586
679.66	0.585
679.84	0.583
680.03	0.581
680.22	0.580
680.41	0.582
680.60	0.578
680.78	0.578
680.97	0.580
681.16	0.580
681.35	0.579
681.53	0.578
681.72	0.579
681.91	0.581
682.10	0.579
682.29	0.582
682.47	0.579
682.66	0.577
682.85	0.576
683.04	0.573
683.22	0.574
683.41	0.575
683.60	0.574
683.79	0.574
683.97	0.573
684.16	0.572
684.35	0.569
684.54	0.571
684.72	0.572
684.91	0.572
685.10	0.571
685.29	0.572
685.47	0.569
685.66	0.569
685.85	0.566
686.04	0.566
686.22	0.568
686.41	0.570
686.60	0.567
686.79	0.569
686.97	0.570
687.16	0.571
687.35	0.569
687.54	0.573
687.72	0.577
687.91	0.576
688.10	0.578
688.29	0.578
688.47	0.576
688.66	0.576
688.85	0.572
689.03	0.570
689.22	0.575
689.41	0.575
689.60	0.571
689.78	0.568
689.97	0.568
690.16	0.566
690.34	0.562
690.53	0.562
690.72	0.562
690.91	0.561
691.09	0.558
691.28	0.552
691.47	0.550
691.65	0.549
691.84	0.547
692.03	0.546
692.21	0.544
692.40	0.544
692.59	0.541
692.77	0.540
692.96	0.541
693.15	0.542
693.34	0.539
693.52	0.539
693.71	0.539
693.90	0.540
694.08	0.541
694.27	0.542
694.46	0.550
694.64	0.551
694.83	0.551
695.02	0.549
695.20	0.549
695.39	0.549
695.58	0.549
695.76	0.550
695.95	0.549
696.14	0.548
696.32	0.546
696.51	0.537
696.70	0.537
696.88	0.539
697.07	0.538
697.26	0.540
697.44	0.541
697.63	0.540
697.81	0.537
698.00	0.537
698.19	0.536
698.37	0.535
698.56	0.535
698.75	0.534
698.93	0.533
699.12	0.533
699.31	0.532
699.49	0.531
699.68	0.531
699.87	0.534
700.05	0.534
700.24	0.534
700.42	0.537
700.61	0.536
700.80	0.534
700.98	0.535
701.17	0.536
701.36	0.535
701.54	0.534
701.73	0.536
701.91	0.534
702.10	0.533
702.29	0.531
702.47	0.530
702.66	0.531
702.84	0.533
703.03	0.531
703.22	0.532
703.40	0.532
703.59	0.533
703.77	0.532
703.96	0.532
704.15	0.532
704.33	0.532
704.52	0.532
704.70	0.530
704.89	0.530
705.08	0.529
705.26	0.525
705.45	0.525
705.63	0.525
705.82	0.522
706.00	0.520
706.19	0.520
706.38	0.520
706.56	0.519
706.75	0.518
706.93	0.516
707.12	0.517
707.30	0.517
707.49	0.515
707.68	0.513
707.86	0.512
708.05	0.513
708.23	0.510
708.42	0.510
708.60	0.513
708.79	0.512
708.98	0.510
709.16	0.510
709.35	0.512
709.53	0.516
709.72	0.515
709.90	0.517
710.09	0.519
710.27	0.521
710.46	0.525
710.64	0.523
710.83	0.526
711.02	0.528
711.20	0.527
711.39	0.526
711.57	0.523
711.76	0.524
711.94	0.522
712.13	0.522
712.31	0.521
712.50	0.517
712.68	0.515
712.87	0.515
713.05	0.515
713.24	0.515
713.42	0.514
713.61	0.515
713.79	0.516
713.98	0.516
714.16	0.517
714.35	0.518
714.54	0.518
714.72	0.519
714.91	0.517
715.09	0.523
715.28	0.526
715.46	0.525
715.65	0.523
715.83	0.522
716.02	0.525
716.20	0.521
716.39	0.521
716.57	0.522
716.76	0.524
716.94	0.524
717.12	0.517
717.31	0.518
717.49	0.521
717.68	0.523
717.86	0.523
718.05	0.524
718.23	0.527
718.42	0.528
718.60	0.529
718.79	0.537
718.97	0.538
719.16	0.538
719.34	0.535
719.53	0.535
719.71	0.535
719.90	0.536
720.08	0.534
720.27	0.534
720.45	0.534
720.63	0.533
720.82	0.527
721.00	0.531
721.19	0.534
721.37	0.533
721.56	0.534
721.74	0.537
721.93	0.545
722.11	0.550
722.30	0.550
722.48	0.554
722.66	0.556
722.85	0.555
723.03	0.555
723.22	0.553
723.40	0.556
723.59	0.556
723.77	0.561
723.95	0.554
724.14	0.557
724.32	0.559
724.51	0.558
724.69	0.560
724.88	0.560
725.06	0.559
725.24	0.560
725.43	0.563
725.61	0.565
725.80	0.558
725.98	0.557
726.16	0.554
726.35	0.559
726.53	0.558
726.72	0.557
726.90	0.567
727.09	0.568
727.27	0.574
727.45	0.571
727.64	0.579
727.82	0.586
728.01	0.589
728.19	0.587
728.37	0.592
728.56	0.597
728.74	0.602
728.92	0.592
729.11	0.593
729.29	0.590
729.48	0.592
729.66	0.583
729.84	0.583
730.03	0.587
730.21	0.588
730.40	0.579
730.58	0.579
730.76	0.580
730.95	0.581
731.13	0.581
731.31	0.594
731.50	0.604
731.68	0.606
731.86	0.604
732.05	0.617
732.23	0.621
732.42	0.623
732.60	0.626
732.78	0.631
732.97	0.649
733.15	0.655
733.33	0.646
733.52	0.651
733.70	0.661
733.88	0.670
734.07	0.660
734.25	0.683
734.43	0.693
734.62	0.694
734.80	0.690
734.98	0.681
735.17	0.689
735.35	0.694
735.53	0.686
735.72	0.690
735.90	0.708
736.08	0.723
736.27	0.704
736.45	0.711
736.63	0.724
736.82	0.732
737.00	0.730
737.18	0.740
737.37	0.768
737.55	0.788
737.73	0.780
737.92	0.784
738.10	0.779
738.28	0.796
738.46	0.787
738.65	0.801
738.83	0.820
739.01	0.872
739.20	0.863
739.38	0.845
739.56	0.835
739.75	0.844
739.93	0.812
740.11	0.838
740.29	0.837
740.48	0.843
740.66	0.824
740.84	0.820
741.03	0.784
741.21	0.796
741.39	0.780
741.57	0.793
741.76	0.807
741.94	0.812
742.12	0.780
742.31	0.784
742.49	0.803
742.67	0.824
742.85	0.839
743.04	0.845
743.22	0.850
743.40	0.902
743.58	0.883
743.77	0.899
743.95	0.930
744.13	0.976
744.31	0.958
744.50	0.951
744.68	0.947
744.86	0.926
745.04	0.933
745.23	0.994
745.41	0.970
745.59	0.976
745.77	0.944
745.96	0.936
746.14	0.944
746.32	0.947
746.50	0.933
746.69	0.923
746.87	0.925
747.05	0.914
747.23	0.844
747.42	0.832
747.60	0.852
747.78	0.857
747.96	0.884
748.14	0.844
748.33	0.865
748.51	0.862
748.69	0.853
748.87	0.879
749.06	0.878
749.24	0.877
749.42	0.866
749.60	0.850
749.78	0.856
749.97	0.812
750.15	0.805
750.33	0.808
750.51	0.829
750.69	0.834
750.88	0.837
751.06	0.844
751.24	0.864
751.42	0.856
751.60	0.853
751.79	0.916
751.97	0.959
752.15	0.961
752.33	0.933
752.51	0.995
752.69	1.004
752.88	0.981
753.06	1.024
753.24	1.001
753.42	1.032
753.60	1.188
753.78	1.059
753.97	1.070
754.15	1.076
754.33	1.099
754.51	0.986
754.69	0.974
754.87	0.997
755.06	0.934
755.24	0.941
755.42	0.950
755.60	0.855
755.78	0.865
755.96	0.816
756.15	0.820
756.33	0.827
756.51	0.847
756.69	0.833
756.87	0.802
757.05	0.821
757.23	0.806
757.42	0.778
757.60	0.776
757.78	0.764
757.96	0.765
758.14	0.750
758.32	0.735
758.50	0.745
758.69	0.746
758.87	0.737
759.05	0.738
759.23	0.744
759.41	0.742
759.59	0.738
759.77	0.756
759.95	0.780
760.13	0.825
760.32	0.824
760.50	0.819
760.68	0.841
760.86	0.846
761.04	0.823
761.22	0.828
761.40	0.873
761.58	0.873
761.76	0.851
761.95	0.835
762.13	0.795
762.31	0.796
762.49	0.766
762.67	0.781
762.85	0.791
763.03	0.787
763.21	0.771
763.39	0.750
763.57	0.752
763.75	0.748
763.94	0.734
764.12	0.734
764.30	0.754
764.48	0.758
764.66	0.726
764.84	0.724
765.02	0.757
765.20	0.762
765.38	0.747
765.56	0.750
765.74	0.785
765.92	0.787
766.10	0.793
766.28	0.787
766.46	0.815
766.65	0.816
766.83	0.806
767.01	0.792
767.19	0.797
767.37	0.798
767.55	0.788
767.73	0.767
767.91	0.770
768.09	0.760
768.27	0.748
768.45	0.735
768.63	0.740
768.81	0.742
768.99	0.717
769.17	0.741
769.35	0.752
769.53	0.751
769.71	0.735
769.89	0.741
770.07	0.745
770.25	0.730
770.43	0.712
770.61	0.733
770.79	0.738
770.97	0.747
771.15	0.717
771.33	0.719
771.51	0.720
771.69	0.731
771.87	0.737
772.05	0.741
772.24	0.749
772.42	0.756
772.60	0.738
772.78	0.791
772.96	0.816
773.14	0.814
773.32	0.795
773.49	0.802
773.67	0.798
773.85	0.780
774.03	0.770
774.21	0.798
774.39	0.807
774.57	0.827
774.75	0.765
774.93	0.759
775.11	0.777
775.29	0.785
775.47	0.784
775.65	0.795
775.83	0.810
776.01	0.832
776.19	0.792
776.37	0.795
776.55	0.793
776.73	0.790
776.91	0.787
777.09	0.775
777.27	0.772
777.45	0.764
777.63	0.741
777.81	0.735
777.99	0.722
778.17	0.720
778.35	0.701
778.53	0.690
778.71	0.694
778.89	0.682
779.07	0.675
779.24	0.679
779.42	0.680
779.60	0.698
779.78	0.697
779.96	0.702
780.14	0.707
780.32	0.728
780.50	0.712
780.68	0.710
780.86	0.702
781.04	0.716
781.22	0.720
781.40	0.728
781.58	0.718
781.75	0.713
781.93	0.696
782.11	0.698
782.29	0.682
782.47	0.681
782.65	0.670
782.83	0.695
783.01	0.688
783.19	0.681
783.37	0.670
783.55	0.671
783.72	0.685
783.90	0.697
784.08	0.690
784.26	0.699
784.44	0.720
784.62	0.720
784.80	0.690
784.98	0.696
785.16	0.701
785.33	0.714
785.51	0.703
785.69	0.691
785.87	0.690
786.05	0.702
786.23	0.701
786.41	0.695
786.59	0.704
786.77	0.706
786.94	0.695
787.12	0.698
787.30	0.699
787.48	0.699
787.66	0.687
787.84	0.688
788.02	0.678
788.19	0.675
788.37	0.665
788.55	0.666
788.73	0.666
788.91	0.660
789.09	0.646
789.27	0.635
789.44	0.645
789.62	0.650
789.80	0.660
789.98	0.682
790.16	0.670
790.34	0.665
790.51	0.654
790.69	0.672
790.87	0.676
791.05	0.674
791.23	0.670
791.41	0.672
791.58	0.679
791.76	0.659
791.94	0.632
792.12	0.640
792.30	0.643
792.48	0.641
792.65	0.634
792.83	0.642
793.01	0.646
793.19	0.645
793.37	0.628
793.54	0.624
793.72	0.635
793.90	0.632
794.08	0.623
794.26	0.623
794.43	0.631
794.61	0.615
794.79	0.603
794.97	0.604
795.15	0.607
795.32	0.612
795.50	0.603
795.68	0.596
795.86	0.599
796.04	0.600
796.21	0.594
796.39	0.591
796.57	0.605
796.75	0.613
796.92	0.613
797.10	0.616
797.28	0.617
797.46	0.620
797.64	0.623
797.81	0.632
797.99	0.637
798.17	0.642
798.35	0.639
798.52	0.642
798.70	0.638
798.88	0.647
799.06	0.648
799.23	0.652
799.41	0.657
799.59	0.652
799.77	0.642
799.94	0.647
800.12	0.655
800.30	0.670
800.48	0.670
800.65	0.669
800.83	0.657
801.01	0.650
801.19	0.651
801.36	0.649
801.54	0.650
801.72	0.659
801.90	0.647
802.07	0.642
802.25	0.628
802.43	0.614
802.60	0.612
802.78	0.620
802.96	0.624
803.14	0.617
803.31	0.617
803.49	0.616
803.67	0.610
803.84	0.614
804.02	0.608
804.20	0.611
804.38	0.615
804.55	0.614
804.73	0.602
804.91	0.601
805.08	0.613
805.26	0.609
805.44	0.673
805.61	0.677
805.79	0.675
805.97	0.675
806.15	0.667
806.32	0.663
806.50	0.667
806.68	0.666
806.85	0.661
807.03	0.650
807.21	0.667
807.38	0.602
807.56	0.593
807.74	0.602
807.91	0.607
808.09	0.612
808.27	0.629
808.44	0.654
808.62	0.661
808.80	0.665
808.97	0.662
809.15	0.655
809.33	0.671
809.50	0.677
809.68	0.665
809.86	0.672
810.03	0.698
810.21	0.679
810.39	0.663
810.56	0.669
810.74	0.690
810.91	0.756
811.09	0.747
811.27	0.767
811.44	0.774
811.62	0.776
811.80	0.760
811.97	0.733
812.15	0.734
812.33	0.728
812.50	0.714
812.68	0.702
812.85	0.647
813.03	0.648
813.21	0.617
813.38	0.613
813.56	0.615
813.74	0.625
813.91	0.632
814.09	0.659
814.26	0.652
814.44	0.655
814.62	0.647
814.79	0.651
814.97	0.656
815.14	0.661
815.32	0.664
815.50	0.679
815.67	0.683
815.85	0.675
816.02	0.666
816.20	0.673
816.38	0.686
816.55	0.690
816.73	0.691
816.90	0.698
817.08	0.724
817.26	0.726
817.43	0.709
817.61	0.730
817.78	0.746
817.96	0.728
818.13	0.719
818.31	0.719
818.49	0.731
818.66	0.722
818.84	0.711
819.01	0.692
819.19	0.701
819.36	0.702
819.54	0.675
819.71	0.715
819.89	0.724
820.07	0.735
820.24	0.731
820.42	0.730
820.59	0.747
820.77	0.770
820.94	0.763
821.12	0.778
821.29	0.789
821.47	0.789
821.64	0.730
821.82	0.744
822.00	0.742
822.17	0.740
822.35	0.736
822.52	0.739
822.70	0.727
822.87	0.735
823.05	0.716
823.22	0.727
823.40	0.752
823.57	0.775
823.75	0.758
823.92	0.781
824.10	0.797
824.27	0.830
824.45	0.822
824.62	0.877
824.80	0.899
824.97	0.914
825.15	0.905
825.32	0.919
825.50	0.917
825.67	0.929
825.85	0.907
826.02	0.924
826.20	0.942
826.37	1.056
826.55	0.986
826.72	1.161
826.90	1.223
827.07	1.274
827.25	1.209
827.42	1.345
827.60	1.462
827.77	1.618
827.95	1.593
828.12	1.722
828.30	1.386
828.47	1.485
828.65	1.149
828.82	1.192
829.00	1.229
829.17	1.307
829.34	1.319
829.52	1.338
829.69	-0.000
829.87	-0.000
830.04	-0.000
830.22	-0.000
830.39	-0.000
830.57	-0.000
830.74	-0.000
830.92	-0.000
831.09	-0.000
831.26	-0.000
831.44	-0.000
831.61	-0.000
831.79	-0.000
831.96	-0.000
832.14	-0.000
832.31	-0.000
832.49	-0.000
832.66	-0.000
832.83	-0.000
833.01	-0.000
833.18	-0.000
833.36	-0.000
833.53	-0.000
833.70	-0.000
833.88	-0.000
834.05	-0.000
834.23	-0.000
834.40	-0.000
834.58	-0.000
834.75	-0.000
834.92	-0.000
835.10	-0.000
835.27	-0.000
835.45	-0.000
835.62	-0.000
835.79	-0.000
835.97	-0.000
836.14	-0.000
836.32	-0.000
836.49	-0.000
836.66	-0.000
836.84	-0.000
837.01	-0.000
837.18	-0.000
837.36	-0.000
837.53	-0.000
837.71	-0.000
837.88	-0.000
838.05	-0.000
838.23	-0.000
838.40	-0.000
838.58	-0.000
838.75	-0.000
838.92	-0.000
839.10	-0.000
839.27	-0.000
839.44	-0.000
839.62	-0.000
839.79	-0.000
839.96	-0.000
840.14	-0.000
840.31	-0.000
840.48	-0.000
840.66	-0.000
840.83	-0.000
841.01	-0.000
841.18	-0.000
841.35	-0.000
841.53	-0.000
841.70	-0.000
841.87	-0.000
842.05	-0.000
842.22	-0.000
842.39	-0.000
842.57	-0.000
842.74	-0.000
842.91	-0.000
843.09	-0.000
843.26	-0.000
843.43	-0.000
843.60	-0.000
843.78	-0.000
843.95	-0.000
844.12	-0.000
844.30	-0.000
844.47	-0.000
844.64	-0.000
844.82	-0.000
844.99	-0.000
845.16	-0.000
845.34	-0.000
845.51	-0.000
845.68	-0.000
845.85	-0.000
846.03	-0.000
846.20	-0.000
846.37	-0.000
846.55	-0.000
846.72	-0.000
846.89	-0.000
847.06	-0.000
847.24	-0.000
847.41	-0.000
847.58	-0.000
847.76	-0.000
847.93	-0.000
848.10	-0.000
848.27	-0.000
848.45	-0.000
848.62	-0.000
848.79	-0.000
848.97	-0.000
849.14	-0.000
849.31	-0.000
849.48	-0.000
849.66	-0.000
849.83	-0.000
850.00	-0.000
850.17	-0.000
850.35	-0.000
850.52	-0.000
850.69	-0.000
850.86	-0.000
851.04	-0.000
851.21	-0.000
851.38	-0.000
851.55	-0.000
851.72	-0.000
851.90	-0.000
852.07	-0.000
852.24	-0.000
852.41	-0.000
852.59	-0.000
852.76	-0.000
852.93	-0.000
853.10	-0.000
853.28	-0.000
853.45	-0.000
853.62	-0.000
853.79	-0.000
853.96	-0.000
854.14	-0.000
854.31	-0.000
854.48	-0.000
854.65	-0.000
854.82	-0.000
855.00	-0.000
855.17	-0.000
855.34	-0.000
855.51	-0.000
855.68	-0.000
855.86	-0.000
856.03	-0.000
856.20	-0.000
856.37	-0.000
856.54	-0.000
856.72	-0.000
856.89	-0.000
857.06	-0.000
857.23	-0.000
857.40	-0.000
857.57	-0.000
857.75	-0.000
857.92	-0.000
858.09	-0.000
858.26	-0.000
858.43	-0.000
858.60	-0.000
858.78	-0.000
858.95	-0.000
859.12	-0.000
859.29	-0.000
859.46	-0.000
859.63	-0.000
859.81	-0.000
859.98	-0.000
860.15	-0.000
860.32	-0.000
860.49	-0.000
860.66	-0.000
860.83	-0.000
861.01	-0.000
861.18	-0.000
861.35	-0.000
861.52	-0.000
861.69	-0.000
861.86	-0.000
862.03	-0.000
862.21	-0.000
862.38	-0.000
862.55	-0.000
862.72	-0.000
862.89	-0.000
863.06	-0.000
863.23	-0.000
863.40	-0.000
863.58	-0.000
863.75	-0.000
863.92	-0.000
864.09	-0.000
864.26	-0.000
864.43	-0.000
864.60	-0.000
864.77	-0.000
864.94	-0.000
865.11	-0.000
865.29	-0.000
865.46	-0.000
865.63	-0.000
865.80	-0.000
865.97	-0.000
866.14	-0.000
866.31	-0.000
866.48	-0.000
866.65	-0.000
866.82	-0.000
866.99	-0.000
867.16	-0.000
867.34	-0.000
867.51	-0.000
867.68	-0.000
867.85	-0.000
868.02	-0.000
868.19	-0.000
868.36	-0.000
868.53	-0.000
868.70	-0.000
868.87	-0.000
869.04	-0.000
869.21	-0.000
869.38	-0.000
869.55	-0.000
869.72	-0.000
869.89	-0.000
870.06	-0.000
870.24	-0.000
870.41	-0.000
870.58	-0.000
870.75	-0.000
870.92	-0.000
871.09	-0.000
871.26	-0.000
871.43	-0.000
871.60	-0.000
871.77	-0.000
871.94	-0.000
872.11	-0.000
872.28	-0.000
872.45	-0.000
872.62	-0.000
872.79	-0.000
872.96	-0.000
873.13	-0.000
873.30	-0.000
873.47	-0.000
873.64	-0.000
873.81	-0.000
873.98	-0.000
874.15	-0.000
874.32	-0.000
874.49	-0.000
874.66	-0.000
874.83	-0.000
875.00	-0.000
875.17	-0.000
875.34	-0.000
875.51	-0.000
875.68	-0.000
875.85	-0.000
876.02	-0.000
876.19	-0.000
876.36	-0.000
876.53	-0.000
876.70	-0.000
876.87	-0.000
877.04	-0.000
877.21	-0.000
877.38	-0.000
877.55	-0.000
877.72	-0.000
877.89	-0.000
878.06	-0.000
878.23	-0.000
878.39	-0.000
878.56	-0.000
878.73	-0.000
878.90	-0.000
879.07	-0.000
879.24	-0.000
879.41	-0.000
879.58	-0.000
879.75	-0.000
879.92	-0.000
880.09	-0.000
880.26	-0.000
880.43	-0.000
880.60	-0.000
880.77	-0.000
880.94	-0.000
881.11	-0.000
881.27	-0.000
881.44	-0.000
881.61	-0.000
881.78	-0.000
881.95	-0.000
882.12	-0.000
882.29	-0.000
882.46	-0.000
882.63	-0.000
882.80	-0.000
882.97	-0.000
883.14	-0.000
883.30	-0.000
883.47	-0.000
883.64	-0.000
883.81	-0.000
883.98	-0.000
884.15	-0.000
884.32	-0.000
884.49	-0.000
884.66	-0.000
884.82	-0.000
884.99	-0.000
885.16	-0.000
885.33	-0.000
885.50	-0.000
885.67	-0.000
885.84	-0.000
886.01	-0.000
886.17	-0.000
886.34	-0.000
886.51	-0.000
886.68	-0.000
886.85	-0.000
887.02	-0.000
887.19	-0.000
887.36	-0.000
887.52	-0.000
887.69	-0.000
887.86	-0.000
888.03	-0.000
888.20	-0.000
888.37	-0.000
888.54	-0.000
888.70	-0.000
888.87	-0.000
889.04	-0.000
889.21	-0.000
889.38	-0.000
889.55	-0.000
889.71	-0.000
889.88	-0.000
890.05	-0.000
890.22	-0.000
890.39	-0.000
>>>>>End Processed Spectral Data<<<<<
