SpectraSuite Data File
++++++++++++++++++++++++++++++++++++
Date: Fri Jun 19 14:13:00 CEST 2015
User: introlabs
Dark Spectrum Present: Yes
Reference Spectrum Present: Yes
Number of Sampled Component Spectra: 1
Spectrometers: USB4H08886
Integration Time (usec): 745692 (USB4H08886)
Spectra Averaged: 5 (USB4H08886)
Boxcar Smoothing: 5 (USB4H08886)
Correct for Electrical Dark: Yes (USB4H08886)
Strobe/Lamp Enabled: No (USB4H08886)
Correct for Detector Non-linearity: Yes (USB4H08886)
Correct for Stray Light: Yes (USB4H08886)
Number of Pixels in Processed Spectrum: 3648
>>>>>Begin Processed Spectral Data<<<<<
178.14	-0.000
178.36	-0.000
178.57	-0.000
178.79	-0.000
179.01	-0.000
179.22	-0.000
179.44	-0.000
179.65	-0.000
179.87	-0.000
180.08	-0.000
180.30	-0.000
180.52	-0.000
180.73	-0.000
180.95	-0.000
181.16	-0.000
181.38	-0.000
181.59	-0.000
181.81	-0.000
182.03	-0.000
182.24	-0.000
182.46	-0.000
182.67	-0.000
182.89	-0.000
183.10	-0.000
183.32	-0.000
183.54	-0.000
183.75	-0.000
183.97	-0.000
184.18	-0.000
184.40	-0.000
184.61	-0.000
184.83	-0.000
185.04	-0.000
185.26	-0.000
185.48	-0.000
185.69	-0.000
185.91	-0.000
186.12	-0.000
186.34	-0.000
186.55	-0.000
186.77	-0.000
186.98	-0.000
187.20	-0.000
187.42	-0.000
187.63	-0.000
187.85	-0.000
188.06	-0.000
188.28	-0.000
188.49	-0.000
188.71	-0.000
188.92	-0.000
189.14	-0.000
189.36	-0.000
189.57	-0.000
189.79	-0.000
190.00	-0.000
190.22	-0.000
190.43	-0.000
190.65	-0.000
190.86	-0.000
191.08	-0.000
191.29	-0.000
191.51	-0.000
191.72	-0.000
191.94	-0.000
192.16	-0.000
192.37	-0.000
192.59	-0.000
192.80	-0.000
193.02	-0.000
193.23	-0.000
193.45	-0.000
193.66	-0.000
193.88	-0.000
194.09	-0.000
194.31	-0.000
194.52	-0.000
194.74	-0.000
194.95	-0.000
195.17	-0.000
195.38	-0.000
195.60	-0.000
195.81	-0.000
196.03	-0.000
196.25	-0.000
196.46	-0.000
196.68	-0.000
196.89	-0.000
197.11	-0.000
197.32	-0.000
197.54	-0.000
197.75	-0.000
197.97	-0.000
198.18	-0.000
198.40	-0.000
198.61	-0.000
198.83	-0.000
199.04	-0.000
199.26	-0.000
199.47	-0.000
199.69	-0.000
199.90	-0.000
200.12	-0.000
200.33	-0.000
200.55	-0.000
200.76	-0.000
200.98	-0.000
201.19	-0.000
201.41	-0.000
201.62	-0.000
201.84	-0.000
202.05	-0.000
202.27	-0.000
202.48	-0.000
202.70	-0.000
202.91	-0.000
203.13	-0.000
203.34	-0.000
203.56	-0.000
203.77	-0.000
203.99	-0.000
204.20	-0.000
204.42	-0.000
204.63	-0.000
204.85	-0.000
205.06	-0.000
205.28	-0.000
205.49	-0.000
205.71	-0.000
205.92	-0.000
206.14	-0.000
206.35	-0.000
206.56	-0.000
206.78	-0.000
206.99	-0.000
207.21	-0.000
207.42	-0.000
207.64	-0.000
207.85	-0.000
208.07	-0.000
208.28	-0.000
208.50	-0.000
208.71	-0.000
208.93	-0.000
209.14	-0.000
209.36	-0.000
209.57	-0.000
209.79	-0.000
210.00	-0.000
210.22	-0.000
210.43	-0.000
210.64	-0.000
210.86	-0.000
211.07	-0.000
211.29	-0.000
211.50	-0.000
211.72	-0.000
211.93	-0.000
212.15	-0.000
212.36	-0.000
212.58	-0.000
212.79	-0.000
213.01	-0.000
213.22	-0.000
213.43	-0.000
213.65	-0.000
213.86	-0.000
214.08	-0.000
214.29	-0.000
214.51	-0.000
214.72	-0.000
214.94	-0.000
215.15	-0.000
215.36	-0.000
215.58	-0.000
215.79	-0.000
216.01	-0.000
216.22	-0.000
216.44	-0.000
216.65	-0.000
216.87	-0.000
217.08	-0.000
217.29	-0.000
217.51	-0.000
217.72	-0.000
217.94	-0.000
218.15	-0.000
218.37	-0.000
218.58	-0.000
218.80	-0.000
219.01	-0.000
219.22	-0.000
219.44	-0.000
219.65	-0.000
219.87	-0.000
220.08	-0.000
220.30	-0.000
220.51	-0.000
220.72	-0.000
220.94	-0.000
221.15	-0.000
221.37	-0.000
221.58	-0.000
221.79	-0.000
222.01	-0.000
222.22	-0.000
222.44	-0.000
222.65	-0.000
222.87	-0.000
223.08	-0.000
223.29	-0.000
223.51	-0.000
223.72	-0.000
223.94	-0.000
224.15	-0.000
224.36	-0.000
224.58	-0.000
224.79	-0.000
225.01	-0.000
225.22	-0.000
225.44	-0.000
225.65	-0.000
225.86	-0.000
226.08	-0.000
226.29	-0.000
226.51	-0.000
226.72	-0.000
226.93	-0.000
227.15	-0.000
227.36	-0.000
227.58	-0.000
227.79	-0.000
228.00	-0.000
228.22	-0.000
228.43	-0.000
228.65	-0.000
228.86	-0.000
229.07	-0.000
229.29	-0.000
229.50	-0.000
229.72	-0.000
229.93	-0.000
230.14	-0.000
230.36	-0.000
230.57	-0.000
230.78	-0.000
231.00	-0.000
231.21	-0.000
231.43	-0.000
231.64	-0.000
231.85	-0.000
232.07	-0.000
232.28	-0.000
232.50	-0.000
232.71	-0.000
232.92	-0.000
233.14	-0.000
233.35	-0.000
233.56	-0.000
233.78	-0.000
233.99	-0.000
234.21	-0.000
234.42	-0.000
234.63	-0.000
234.85	-0.000
235.06	-0.000
235.27	-0.000
235.49	-0.000
235.70	-0.000
235.91	-0.000
236.13	-0.000
236.34	-0.000
236.56	-0.000
236.77	-0.000
236.98	-0.000
237.20	-0.000
237.41	-0.000
237.62	-0.000
237.84	-0.000
238.05	-0.000
238.26	-0.000
238.48	-0.000
238.69	-0.000
238.91	-0.000
239.12	-0.000
239.33	-0.000
239.55	-0.000
239.76	-0.000
239.97	-0.000
240.19	-0.000
240.40	-0.000
240.61	-0.000
240.83	-0.000
241.04	-0.000
241.25	-0.000
241.47	-0.000
241.68	-0.000
241.89	-0.000
242.11	-0.000
242.32	-0.000
242.53	-0.000
242.75	-0.000
242.96	-0.000
243.17	-0.000
243.39	-0.000
243.60	-0.000
243.81	-0.000
244.03	-0.000
244.24	-0.000
244.45	-0.000
244.67	-0.000
244.88	-0.000
245.09	-0.000
245.31	-0.000
245.52	-0.000
245.73	-0.000
245.95	-0.000
246.16	-0.000
246.37	-0.000
246.59	-0.000
246.80	-0.000
247.01	-0.000
247.23	-0.000
247.44	-0.000
247.65	-0.000
247.87	-0.000
248.08	-0.000
248.29	-0.000
248.51	-0.000
248.72	-0.000
248.93	-0.000
249.15	-0.000
249.36	-0.000
249.57	-0.000
249.78	-0.000
250.00	-0.000
250.21	-0.000
250.42	-0.000
250.64	-0.000
250.85	-0.000
251.06	-0.000
251.28	-0.000
251.49	-0.000
251.70	-0.000
251.92	-0.000
252.13	-0.000
252.34	-0.000
252.55	-0.000
252.77	-0.000
252.98	-0.000
253.19	-0.000
253.41	-0.000
253.62	-0.000
253.83	-0.000
254.05	-0.000
254.26	-0.000
254.47	-0.000
254.68	-0.000
254.90	-0.000
255.11	-0.000
255.32	-0.000
255.54	-0.000
255.75	-0.000
255.96	-0.000
256.17	-0.000
256.39	-0.000
256.60	-0.000
256.81	-0.000
257.03	-0.000
257.24	-0.000
257.45	-0.000
257.66	-0.000
257.88	-0.000
258.09	-0.000
258.30	-0.000
258.51	-0.000
258.73	-0.000
258.94	-0.000
259.15	-0.000
259.37	-0.000
259.58	-0.000
259.79	-0.000
260.00	-0.000
260.22	-0.000
260.43	-0.000
260.64	-0.000
260.85	-0.000
261.07	-0.000
261.28	-0.000
261.49	-0.000
261.71	-0.000
261.92	-0.000
262.13	-0.000
262.34	-0.000
262.56	-0.000
262.77	-0.000
262.98	-0.000
263.19	-0.000
263.41	-0.000
263.62	-0.000
263.83	-0.000
264.04	-0.000
264.26	-0.000
264.47	-0.000
264.68	-0.000
264.89	-0.000
265.11	-0.000
265.32	-0.000
265.53	-0.000
265.74	-0.000
265.96	-0.000
266.17	-0.000
266.38	-0.000
266.59	-0.000
266.81	-0.000
267.02	-0.000
267.23	-0.000
267.44	-0.000
267.65	-0.000
267.87	-0.000
268.08	-0.000
268.29	-0.000
268.50	-0.000
268.72	-0.000
268.93	-0.000
269.14	-0.000
269.35	-0.000
269.57	-0.000
269.78	-0.000
269.99	-0.000
270.20	-0.000
270.41	-0.000
270.63	-0.000
270.84	-0.000
271.05	-0.000
271.26	-0.000
271.48	-0.000
271.69	-0.000
271.90	-0.000
272.11	-0.000
272.32	-0.000
272.54	-0.000
272.75	-0.000
272.96	-0.000
273.17	-0.000
273.39	-0.000
273.60	-0.000
273.81	-0.000
274.02	-0.000
274.23	-0.000
274.45	-0.000
274.66	-0.000
274.87	-0.000
275.08	-0.000
275.29	-0.000
275.51	-0.000
275.72	-0.000
275.93	-0.000
276.14	-0.000
276.35	-0.000
276.57	-0.000
276.78	-0.000
276.99	-0.000
277.20	-0.000
277.41	-0.000
277.63	-0.000
277.84	-0.000
278.05	-0.000
278.26	-0.000
278.47	-0.000
278.69	-0.000
278.90	-0.000
279.11	-0.000
279.32	-0.000
279.53	-0.000
279.74	-0.000
279.96	-0.000
280.17	-0.000
280.38	-0.000
280.59	-0.000
280.80	-0.000
281.02	-0.000
281.23	-0.000
281.44	-0.000
281.65	-0.000
281.86	-0.000
282.07	-0.000
282.29	-0.000
282.50	-0.000
282.71	-0.000
282.92	-0.000
283.13	-0.000
283.35	-0.000
283.56	-0.000
283.77	-0.000
283.98	-0.000
284.19	-0.000
284.40	-0.000
284.62	-0.000
284.83	-0.000
285.04	-0.000
285.25	-0.000
285.46	-0.000
285.67	-0.000
285.88	-0.000
286.10	-0.000
286.31	-0.000
286.52	-0.000
286.73	-0.000
286.94	-0.000
287.15	-0.000
287.37	-0.000
287.58	-0.000
287.79	-0.000
288.00	-0.000
288.21	-0.000
288.42	-0.000
288.63	-0.000
288.85	-0.000
289.06	-0.000
289.27	-0.000
289.48	-0.000
289.69	-0.000
289.90	-0.000
290.11	-0.000
290.33	-0.000
290.54	-0.000
290.75	-0.000
290.96	-0.000
291.17	-0.000
291.38	-0.000
291.59	-0.000
291.81	-0.000
292.02	-0.000
292.23	-0.000
292.44	-0.000
292.65	-0.000
292.86	-0.000
293.07	-0.000
293.28	2.645
293.50	-0.000
293.71	-0.000
293.92	-0.000
294.13	-0.000
294.34	-0.000
294.55	-0.000
294.76	-0.000
294.97	-0.000
295.19	-0.000
295.40	-0.000
295.61	-0.000
295.82	-0.000
296.03	2.426
296.24	2.776
296.45	1.911
296.66	1.650
296.87	1.665
297.09	1.726
297.30	1.868
297.51	1.603
297.72	1.576
297.93	1.646
298.14	1.631
298.35	1.601
298.56	1.577
298.77	1.685
298.99	1.664
299.20	1.643
299.41	1.626
299.62	1.583
299.83	1.572
300.04	1.514
300.25	1.502
300.46	1.541
300.67	1.515
300.88	1.465
301.10	1.470
301.31	1.539
301.52	1.483
301.73	1.431
301.94	1.436
302.15	1.451
302.36	1.414
302.57	1.362
302.78	1.366
302.99	1.406
303.20	1.424
303.41	1.342
303.63	1.321
303.84	1.329
304.05	1.323
304.26	1.271
304.47	1.278
304.68	1.279
304.89	1.270
305.10	1.235
305.31	1.223
305.52	1.264
305.73	1.257
305.94	1.221
306.15	1.214
306.37	1.236
306.58	1.244
306.79	1.214
307.00	1.235
307.21	1.272
307.42	1.266
307.63	1.232
307.84	1.203
308.05	1.237
308.26	1.239
308.47	1.218
308.68	1.215
308.89	1.217
309.10	1.215
309.31	1.177
309.52	1.168
309.73	1.180
309.95	1.174
310.16	1.145
310.37	1.135
310.58	1.153
310.79	1.151
311.00	1.147
311.21	1.147
311.42	1.149
311.63	1.147
311.84	1.130
312.05	1.128
312.26	1.148
312.47	1.157
312.68	1.136
312.89	1.120
313.10	1.126
313.31	1.100
313.52	1.103
313.73	1.106
313.94	1.107
314.15	1.091
314.36	1.070
314.57	1.064
314.78	1.053
314.99	1.047
315.21	1.035
315.42	1.041
315.63	1.055
315.84	1.032
316.05	1.018
316.26	1.026
316.47	1.041
316.68	1.039
316.89	1.021
317.10	1.041
317.31	1.046
317.52	1.048
317.73	1.026
317.94	1.025
318.15	1.066
318.36	1.065
318.57	1.047
318.78	1.038
318.99	1.070
319.20	1.067
319.41	1.034
319.62	1.037
319.83	1.049
320.04	1.046
320.25	1.032
320.46	1.001
320.67	1.003
320.88	0.997
321.09	0.983
321.30	0.969
321.51	0.984
321.72	0.983
321.93	0.966
322.14	0.958
322.35	0.984
322.56	0.987
322.77	0.974
322.98	0.985
323.19	0.996
323.40	1.004
323.61	0.986
323.82	0.983
324.03	0.990
324.24	0.988
324.45	0.976
324.66	0.958
324.87	0.955
325.08	0.954
325.29	0.935
325.50	0.927
325.71	0.932
325.92	0.937
326.13	0.923
326.34	0.921
326.55	0.929
326.76	0.928
326.97	0.918
327.18	0.912
327.39	0.937
327.60	0.939
327.80	0.939
328.01	0.936
328.22	0.938
328.43	0.940
328.64	0.930
328.85	0.934
329.06	0.936
329.27	0.935
329.48	0.931
329.69	0.914
329.90	0.924
330.11	0.918
330.32	0.911
330.53	0.904
330.74	0.904
330.95	0.903
331.16	0.889
331.37	0.896
331.58	0.896
331.79	0.896
332.00	0.886
332.21	0.878
332.42	0.881
332.63	0.872
332.83	0.868
333.04	0.871
333.25	0.883
333.46	0.882
333.67	0.869
333.88	0.870
334.09	0.881
334.30	0.879
334.51	0.872
334.72	0.869
334.93	0.872
335.14	0.873
335.35	0.865
335.56	0.859
335.77	0.867
335.98	0.866
336.18	0.860
336.39	0.853
336.60	0.857
336.81	0.855
337.02	0.853
337.23	0.857
337.44	0.860
337.65	0.862
337.86	0.853
338.07	0.848
338.28	0.852
338.49	0.850
338.70	0.843
338.91	0.849
339.11	0.855
339.32	0.851
339.53	0.840
339.74	0.836
339.95	0.833
340.16	0.831
340.37	0.823
340.58	0.821
340.79	0.825
341.00	0.824
341.21	0.815
341.41	0.816
341.62	0.818
341.83	0.818
342.04	0.814
342.25	0.824
342.46	0.830
342.67	0.828
342.88	0.822
343.09	0.821
343.30	0.829
343.50	0.832
343.71	0.823
343.92	0.822
344.13	0.827
344.34	0.826
344.55	0.810
344.76	0.808
344.97	0.813
345.18	0.813
345.38	0.811
345.59	0.805
345.80	0.805
346.01	0.802
346.22	0.798
346.43	0.792
346.64	0.801
346.85	0.801
347.06	0.794
347.26	0.794
347.47	0.797
347.68	0.792
347.89	0.789
348.10	0.784
348.31	0.791
348.52	0.791
348.73	0.788
348.93	0.784
349.14	0.788
349.35	0.787
349.56	0.781
349.77	0.777
349.98	0.783
350.19	0.780
350.39	0.776
350.60	0.772
350.81	0.788
351.02	0.787
351.23	0.783
351.44	0.785
351.65	0.788
351.86	0.785
352.06	0.784
352.27	0.784
352.48	0.786
352.69	0.785
352.90	0.779
353.11	0.765
353.31	0.772
353.52	0.768
353.73	0.760
353.94	0.761
354.15	0.766
354.36	0.766
354.57	0.758
354.77	0.761
354.98	0.761
355.19	0.759
355.40	0.758
355.61	0.764
355.82	0.768
356.02	0.768
356.23	0.761
356.44	0.763
356.65	0.767
356.86	0.768
357.07	0.761
357.27	0.764
357.48	0.767
357.69	0.765
357.90	0.751
358.11	0.747
358.32	0.750
358.52	0.753
358.73	0.743
358.94	0.745
359.15	0.749
359.36	0.749
359.56	0.745
359.77	0.742
359.98	0.749
360.19	0.748
360.40	0.744
360.61	0.745
360.81	0.744
361.02	0.746
361.23	0.737
361.44	0.736
361.65	0.736
361.85	0.736
362.06	0.733
362.27	0.735
362.48	0.735
362.69	0.737
362.89	0.732
363.10	0.734
363.31	0.739
363.52	0.742
363.73	0.737
363.93	0.737
364.14	0.739
364.35	0.741
364.56	0.731
364.77	0.733
364.97	0.736
365.18	0.736
365.39	0.730
365.60	0.726
365.81	0.727
366.01	0.727
366.22	0.724
366.43	0.723
366.64	0.725
366.84	0.732
367.05	0.728
367.26	0.728
367.47	0.730
367.68	0.731
367.88	0.728
368.09	0.725
368.30	0.728
368.51	0.729
368.71	0.728
368.92	0.731
369.13	0.729
369.34	0.729
369.55	0.728
369.75	0.727
369.96	0.733
370.17	0.733
370.38	0.729
370.58	0.727
370.79	0.732
371.00	0.731
371.21	0.723
371.41	0.728
371.62	0.732
371.83	0.728
372.04	0.727
372.24	0.720
372.45	0.722
372.66	0.722
372.87	0.720
373.07	0.716
373.28	0.717
373.49	0.721
373.70	0.712
373.90	0.710
374.11	0.720
374.32	0.718
374.53	0.718
374.73	0.719
374.94	0.721
375.15	0.721
375.36	0.719
375.56	0.727
375.77	0.726
375.98	0.726
376.19	0.723
376.39	0.716
376.60	0.720
376.81	0.720
377.02	0.717
377.22	0.715
377.43	0.715
377.64	0.715
377.84	0.707
378.05	0.712
378.26	0.718
378.47	0.718
378.67	0.716
378.88	0.713
379.09	0.714
379.30	0.715
379.50	0.712
379.71	0.714
379.92	0.717
380.12	0.717
380.33	0.708
380.54	0.705
380.75	0.711
380.95	0.711
381.16	0.709
381.37	0.709
381.57	0.711
381.78	0.712
381.99	0.712
382.20	0.711
382.40	0.715
382.61	0.716
382.82	0.712
383.02	0.706
383.23	0.710
383.44	0.710
383.64	0.708
383.85	0.710
384.06	0.713
384.27	0.710
384.47	0.708
384.68	0.708
384.89	0.713
385.09	0.713
385.30	0.712
385.51	0.711
385.71	0.715
385.92	0.715
386.13	0.714
386.33	0.716
386.54	0.717
386.75	0.715
386.95	0.711
387.16	0.706
387.37	0.709
387.58	0.708
387.78	0.706
387.99	0.703
388.20	0.706
388.40	0.702
388.61	0.698
388.82	0.701
389.02	0.704
389.23	0.704
389.44	0.702
389.64	0.702
389.85	0.714
390.06	0.714
390.26	0.714
390.47	0.714
390.68	0.717
390.88	0.715
391.09	0.710
391.30	0.709
391.50	0.710
391.71	0.710
391.92	0.707
392.12	0.700
392.33	0.701
392.53	0.700
392.74	0.700
392.95	0.700
393.15	0.703
393.36	0.706
393.57	0.704
393.77	0.706
393.98	0.708
394.19	0.708
394.39	0.706
394.60	0.708
394.81	0.710
395.01	0.708
395.22	0.706
395.43	0.706
395.63	0.711
395.84	0.711
396.04	0.707
396.25	0.709
396.46	0.711
396.66	0.710
396.87	0.708
397.08	0.705
397.28	0.707
397.49	0.708
397.69	0.704
397.90	0.699
398.11	0.700
398.31	0.701
398.52	0.698
398.73	0.699
398.93	0.698
399.14	0.697
399.34	0.696
399.55	0.697
399.76	0.697
399.96	0.698
400.17	0.696
400.37	0.696
400.58	0.703
400.79	0.704
400.99	0.702
401.20	0.708
401.41	0.710
401.61	0.711
401.82	0.717
402.02	0.716
402.23	0.717
402.44	0.717
402.64	0.717
402.85	0.711
403.05	0.710
403.26	0.709
403.47	0.702
403.67	0.701
403.88	0.701
404.08	0.695
404.29	0.694
404.50	0.693
404.70	0.693
404.91	0.692
405.11	0.689
405.32	0.690
405.52	0.690
405.73	0.690
405.94	0.688
406.14	0.690
406.35	0.693
406.55	0.692
406.76	0.690
406.97	0.691
407.17	0.693
407.38	0.694
407.58	0.692
407.79	0.694
407.99	0.697
408.20	0.698
408.41	0.693
408.61	0.692
408.82	0.693
409.02	0.693
409.23	0.690
409.43	0.690
409.64	0.691
409.84	0.691
410.05	0.688
410.26	0.686
410.46	0.685
410.67	0.685
410.87	0.687
411.08	0.689
411.28	0.690
411.49	0.692
411.69	0.690
411.90	0.691
412.11	0.692
412.31	0.693
412.52	0.692
412.72	0.693
412.93	0.693
413.13	0.692
413.34	0.688
413.54	0.690
413.75	0.692
413.95	0.691
414.16	0.687
414.37	0.690
414.57	0.691
414.78	0.693
414.98	0.691
415.19	0.693
415.39	0.691
415.60	0.692
415.80	0.692
416.01	0.690
416.21	0.692
416.42	0.692
416.62	0.687
416.83	0.687
417.03	0.687
417.24	0.687
417.44	0.684
417.65	0.683
417.86	0.684
418.06	0.682
418.27	0.679
418.47	0.681
418.68	0.682
418.88	0.682
419.09	0.681
419.29	0.681
419.50	0.682
419.70	0.682
419.91	0.680
420.11	0.678
420.32	0.680
420.52	0.680
420.73	0.679
420.93	0.680
421.14	0.681
421.34	0.680
421.55	0.676
421.75	0.676
421.96	0.678
422.16	0.678
422.37	0.677
422.57	0.674
422.78	0.676
422.98	0.673
423.19	0.671
423.39	0.669
423.60	0.673
423.80	0.674
424.01	0.673
424.21	0.675
424.42	0.676
424.62	0.676
424.83	0.675
425.03	0.675
425.23	0.677
425.44	0.678
425.64	0.678
425.85	0.677
426.05	0.678
426.26	0.679
426.46	0.675
426.67	0.674
426.87	0.679
427.08	0.679
427.28	0.677
427.49	0.678
427.69	0.680
427.90	0.678
428.10	0.675
428.31	0.675
428.51	0.677
428.71	0.676
428.92	0.677
429.12	0.674
429.33	0.675
429.53	0.679
429.74	0.682
429.94	0.682
430.15	0.682
430.35	0.682
430.56	0.679
430.76	0.678
430.96	0.678
431.17	0.676
431.37	0.672
431.58	0.671
431.78	0.668
431.99	0.660
432.19	0.662
432.40	0.663
432.60	0.664
432.80	0.666
433.01	0.665
433.21	0.665
433.42	0.668
433.62	0.669
433.83	0.669
434.03	0.671
434.23	0.674
434.44	0.673
434.64	0.671
434.85	0.676
435.05	0.677
435.26	0.678
435.46	0.676
435.66	0.676
435.87	0.675
436.07	0.675
436.28	0.671
436.48	0.668
436.69	0.667
436.89	0.667
437.09	0.660
437.30	0.659
437.50	0.659
437.71	0.671
437.91	0.670
438.11	0.671
438.32	0.675
438.52	0.675
438.73	0.674
438.93	0.673
439.13	0.673
439.34	0.677
439.54	0.675
439.75	0.675
439.95	0.665
440.15	0.669
440.36	0.668
440.56	0.665
440.77	0.667
440.97	0.666
441.17	0.666
441.38	0.667
441.58	0.664
441.79	0.664
441.99	0.663
442.19	0.662
442.40	0.659
442.60	0.659
442.81	0.657
443.01	0.656
443.21	0.658
443.42	0.657
443.62	0.655
443.82	0.655
444.03	0.657
444.23	0.656
444.44	0.657
444.64	0.656
444.84	0.658
445.05	0.657
445.25	0.655
445.45	0.655
445.66	0.658
445.86	0.657
446.06	0.657
446.27	0.657
446.47	0.660
446.68	0.658
446.88	0.657
447.08	0.656
447.29	0.659
447.49	0.659
447.69	0.659
447.90	0.657
448.10	0.661
448.30	0.659
448.51	0.660
448.71	0.658
448.91	0.659
449.12	0.658
449.32	0.659
449.52	0.657
449.73	0.662
449.93	0.660
450.14	0.661
450.34	0.660
450.54	0.663
450.75	0.659
450.95	0.659
451.15	0.658
451.36	0.661
451.56	0.658
451.76	0.657
451.97	0.654
452.17	0.655
452.37	0.653
452.58	0.650
452.78	0.649
452.98	0.651
453.19	0.650
453.39	0.651
453.59	0.650
453.79	0.651
454.00	0.652
454.20	0.651
454.40	0.651
454.61	0.653
454.81	0.654
455.01	0.652
455.22	0.653
455.42	0.655
455.62	0.653
455.83	0.652
456.03	0.655
456.23	0.657
456.44	0.657
456.64	0.656
456.84	0.656
457.04	0.657
457.25	0.656
457.45	0.653
457.65	0.652
457.86	0.653
458.06	0.651
458.26	0.647
458.47	0.646
458.67	0.647
458.87	0.647
459.07	0.645
459.28	0.647
459.48	0.649
459.68	0.649
459.89	0.649
460.09	0.647
460.29	0.649
460.49	0.650
460.70	0.650
460.90	0.649
461.10	0.650
461.31	0.650
461.51	0.647
461.71	0.648
461.91	0.650
462.12	0.649
462.32	0.648
462.52	0.649
462.72	0.651
462.93	0.651
463.13	0.650
463.33	0.650
463.53	0.652
463.74	0.652
463.94	0.647
464.14	0.648
464.35	0.649
464.55	0.650
464.75	0.648
464.95	0.646
465.16	0.648
465.36	0.647
465.56	0.646
465.76	0.645
465.97	0.646
466.17	0.647
466.37	0.644
466.57	0.646
466.78	0.646
466.98	0.646
467.18	0.643
467.38	0.642
467.59	0.644
467.79	0.645
467.99	0.644
468.19	0.646
468.39	0.649
468.60	0.649
468.80	0.647
469.00	0.649
469.20	0.649
469.41	0.650
469.61	0.649
469.81	0.649
470.01	0.648
470.22	0.649
470.42	0.646
470.62	0.644
470.82	0.645
471.02	0.645
471.23	0.642
471.43	0.643
471.63	0.645
471.83	0.645
472.04	0.644
472.24	0.642
472.44	0.647
472.64	0.648
472.84	0.646
473.05	0.645
473.25	0.648
473.45	0.648
473.65	0.646
473.85	0.647
474.06	0.648
474.26	0.648
474.46	0.649
474.66	0.646
474.86	0.646
475.07	0.646
475.27	0.645
475.47	0.642
475.67	0.643
475.87	0.645
476.08	0.641
476.28	0.643
476.48	0.644
476.68	0.643
476.88	0.641
477.09	0.642
477.29	0.643
477.49	0.643
477.69	0.642
477.89	0.643
478.09	0.642
478.30	0.644
478.50	0.641
478.70	0.641
478.90	0.642
479.10	0.645
479.31	0.646
479.51	0.644
479.71	0.645
479.91	0.645
480.11	0.644
480.31	0.645
480.52	0.643
480.72	0.643
480.92	0.642
481.12	0.641
481.32	0.638
481.52	0.636
481.72	0.636
481.93	0.640
482.13	0.640
482.33	0.639
482.53	0.637
482.73	0.638
482.93	0.639
483.14	0.639
483.34	0.638
483.54	0.639
483.74	0.638
483.94	0.637
484.14	0.633
484.34	0.633
484.55	0.634
484.75	0.634
484.95	0.632
485.15	0.631
485.35	0.632
485.55	0.631
485.75	0.629
485.96	0.630
486.16	0.632
486.36	0.631
486.56	0.629
486.76	0.629
486.96	0.630
487.16	0.630
487.36	0.628
487.57	0.628
487.77	0.629
487.97	0.629
488.17	0.627
488.37	0.626
488.57	0.626
488.77	0.627
488.97	0.625
489.18	0.624
489.38	0.627
489.58	0.627
489.78	0.627
489.98	0.626
490.18	0.626
490.38	0.627
490.58	0.626
490.78	0.627
490.98	0.628
491.19	0.628
491.39	0.627
491.59	0.626
491.79	0.628
491.99	0.629
492.19	0.628
492.39	0.631
492.59	0.631
492.79	0.634
492.99	0.634
493.20	0.634
493.40	0.634
493.60	0.635
493.80	0.634
494.00	0.632
494.20	0.633
494.40	0.632
494.60	0.629
494.80	0.634
495.00	0.633
495.20	0.632
495.40	0.631
495.61	0.633
495.81	0.633
496.01	0.636
496.21	0.637
496.41	0.636
496.61	0.637
496.81	0.636
497.01	0.631
497.21	0.630
497.41	0.630
497.61	0.630
497.81	0.628
498.01	0.628
498.21	0.626
498.41	0.624
498.61	0.624
498.82	0.626
499.02	0.628
499.22	0.629
499.42	0.628
499.62	0.629
499.82	0.630
500.02	0.631
500.22	0.630
500.42	0.632
500.62	0.633
500.82	0.633
501.02	0.630
501.22	0.630
501.42	0.631
501.62	0.633
501.82	0.632
502.02	0.633
502.22	0.632
502.42	0.634
502.62	0.631
502.82	0.632
503.02	0.632
503.22	0.632
503.42	0.630
503.63	0.630
503.83	0.627
504.03	0.626
504.23	0.624
504.43	0.625
504.63	0.626
504.83	0.625
505.03	0.625
505.23	0.626
505.43	0.628
505.63	0.628
505.83	0.628
506.03	0.630
506.23	0.633
506.43	0.633
506.63	0.632
506.83	0.631
507.03	0.633
507.23	0.632
507.43	0.630
507.63	0.630
507.83	0.630
508.03	0.630
508.23	0.629
508.43	0.628
508.63	0.630
508.83	0.630
509.03	0.631
509.23	0.630
509.43	0.630
509.63	0.631
509.83	0.629
510.03	0.632
510.23	0.634
510.43	0.635
510.63	0.635
510.83	0.636
511.03	0.637
511.23	0.635
511.43	0.634
511.63	0.636
511.83	0.639
512.03	0.639
512.22	0.635
512.42	0.634
512.62	0.635
512.82	0.635
513.02	0.633
513.22	0.633
513.42	0.636
513.62	0.639
513.82	0.636
514.02	0.636
514.22	0.637
514.42	0.638
514.62	0.637
514.82	0.637
515.02	0.639
515.22	0.642
515.42	0.641
515.62	0.643
515.82	0.642
516.02	0.643
516.22	0.643
516.42	0.645
516.62	0.647
516.82	0.648
517.01	0.647
517.21	0.646
517.41	0.650
517.61	0.651
517.81	0.648
518.01	0.646
518.21	0.646
518.41	0.645
518.61	0.644
518.81	0.645
519.01	0.645
519.21	0.645
519.41	0.643
519.61	0.638
519.81	0.640
520.00	0.640
520.20	0.641
520.40	0.644
520.60	0.645
520.80	0.644
521.00	0.644
521.20	0.646
521.40	0.651
521.60	0.651
521.80	0.650
522.00	0.650
522.20	0.652
522.39	0.651
522.59	0.648
522.79	0.649
522.99	0.651
523.19	0.649
523.39	0.647
523.59	0.645
523.79	0.648
523.99	0.650
524.19	0.649
524.38	0.648
524.58	0.649
524.78	0.650
524.98	0.648
525.18	0.650
525.38	0.652
525.58	0.652
525.78	0.650
525.98	0.648
526.18	0.649
526.37	0.648
526.57	0.650
526.77	0.650
526.97	0.651
527.17	0.651
527.37	0.647
527.57	0.649
527.77	0.650
527.96	0.651
528.16	0.650
528.36	0.651
528.56	0.653
528.76	0.650
528.96	0.648
529.16	0.650
529.36	0.653
529.55	0.653
529.75	0.650
529.95	0.651
530.15	0.653
530.35	0.655
530.55	0.652
530.75	0.654
530.94	0.656
531.14	0.656
531.34	0.654
531.54	0.652
531.74	0.656
531.94	0.659
532.13	0.656
532.33	0.657
532.53	0.656
532.73	0.655
532.93	0.653
533.13	0.654
533.33	0.654
533.52	0.653
533.72	0.656
533.92	0.654
534.12	0.652
534.32	0.653
534.52	0.651
534.71	0.653
534.91	0.656
535.11	0.658
535.31	0.655
535.51	0.658
535.71	0.660
535.90	0.658
536.10	0.659
536.30	0.661
536.50	0.662
536.70	0.662
536.89	0.659
537.09	0.659
537.29	0.660
537.49	0.661
537.69	0.659
537.89	0.660
538.08	0.659
538.28	0.657
538.48	0.658
538.68	0.659
538.88	0.661
539.07	0.661
539.27	0.660
539.47	0.659
539.67	0.658
539.87	0.660
540.06	0.658
540.26	0.659
540.46	0.662
540.66	0.659
540.86	0.657
541.05	0.656
541.25	0.658
541.45	0.658
541.65	0.657
541.84	0.659
542.04	0.659
542.24	0.660
542.44	0.659
542.64	0.660
542.83	0.663
543.03	0.664
543.23	0.661
543.43	0.662
543.62	0.663
543.82	0.664
544.02	0.663
544.22	0.663
544.42	0.666
544.61	0.666
544.81	0.663
545.01	0.661
545.21	0.663
545.40	0.664
545.60	0.662
545.80	0.665
546.00	0.665
546.19	0.664
546.39	0.663
546.59	0.660
546.79	0.661
546.98	0.662
547.18	0.661
547.38	0.662
547.58	0.665
547.77	0.665
547.97	0.661
548.17	0.663
548.37	0.664
548.56	0.664
548.76	0.663
548.96	0.666
549.16	0.668
549.35	0.668
549.55	0.666
549.75	0.666
549.95	0.670
550.14	0.670
550.34	0.669
550.54	0.674
550.73	0.677
550.93	0.677
551.13	0.674
551.33	0.673
551.52	0.673
551.72	0.674
551.92	0.672
552.12	0.673
552.31	0.673
552.51	0.673
552.71	0.667
552.90	0.668
553.10	0.669
553.30	0.670
553.50	0.669
553.69	0.671
553.89	0.671
554.09	0.671
554.28	0.668
554.48	0.669
554.68	0.671
554.87	0.672
555.07	0.668
555.27	0.667
555.47	0.669
555.66	0.670
555.86	0.668
556.06	0.670
556.25	0.671
556.45	0.679
556.65	0.677
556.84	0.679
557.04	0.682
557.24	0.684
557.43	0.684
557.63	0.686
557.83	0.688
558.02	0.689
558.22	0.693
558.42	0.693
558.61	0.687
558.81	0.687
559.01	0.684
559.21	0.684
559.40	0.685
559.60	0.684
559.80	0.681
559.99	0.682
560.19	0.684
560.39	0.678
560.58	0.675
560.78	0.675
560.97	0.679
561.17	0.677
561.37	0.675
561.56	0.675
561.76	0.677
561.96	0.677
562.15	0.674
562.35	0.677
562.55	0.678
562.74	0.679
562.94	0.677
563.14	0.676
563.33	0.677
563.53	0.676
563.73	0.675
563.92	0.676
564.12	0.679
564.31	0.681
564.51	0.679
564.71	0.681
564.90	0.684
565.10	0.685
565.30	0.686
565.49	0.687
565.69	0.689
565.89	0.689
566.08	0.686
566.28	0.687
566.47	0.689
566.67	0.687
566.87	0.684
567.06	0.686
567.26	0.692
567.46	0.687
567.65	0.687
567.85	0.688
568.04	0.690
568.24	0.690
568.44	0.687
568.63	0.685
568.83	0.687
569.02	0.686
569.22	0.681
569.42	0.677
569.61	0.681
569.81	0.679
570.00	0.678
570.20	0.680
570.40	0.681
570.59	0.681
570.79	0.679
570.98	0.677
571.18	0.678
571.38	0.678
571.57	0.675
571.77	0.673
571.96	0.677
572.16	0.675
572.35	0.669
572.55	0.670
572.75	0.668
572.94	0.668
573.14	0.666
573.33	0.666
573.53	0.667
573.73	0.667
573.92	0.664
574.12	0.662
574.31	0.664
574.51	0.665
574.70	0.662
574.90	0.664
575.09	0.666
575.29	0.666
575.49	0.664
575.68	0.664
575.88	0.665
576.07	0.667
576.27	0.665
576.46	0.663
576.66	0.663
576.86	0.663
577.05	0.661
577.25	0.659
577.44	0.661
577.64	0.660
577.83	0.658
578.03	0.659
578.22	0.659
578.42	0.658
578.61	0.656
578.81	0.657
579.00	0.657
579.20	0.657
579.40	0.656
579.59	0.655
579.79	0.655
579.98	0.655
580.18	0.654
580.37	0.655
580.57	0.658
580.76	0.662
580.96	0.660
581.15	0.661
581.35	0.663
581.54	0.662
581.74	0.661
581.93	0.663
582.13	0.664
582.32	0.662
582.52	0.660
582.71	0.659
582.91	0.655
583.10	0.655
583.30	0.654
583.49	0.653
583.69	0.657
583.88	0.658
584.08	0.657
584.27	0.660
584.47	0.663
584.66	0.663
584.86	0.662
585.05	0.664
585.25	0.666
585.44	0.666
585.64	0.664
585.83	0.661
586.03	0.661
586.22	0.660
586.42	0.656
586.61	0.657
586.81	0.660
587.00	0.660
587.20	0.657
587.39	0.658
587.59	0.661
587.78	0.662
587.98	0.663
588.17	0.664
588.37	0.666
588.56	0.668
588.76	0.663
588.95	0.663
589.15	0.668
589.34	0.670
589.54	0.668
589.73	0.669
589.92	0.672
590.12	0.671
590.31	0.669
590.51	0.674
590.70	0.676
590.90	0.677
591.09	0.674
591.29	0.672
591.48	0.672
591.68	0.673
591.87	0.671
592.06	0.671
592.26	0.674
592.45	0.673
592.65	0.667
592.84	0.667
593.04	0.670
593.23	0.672
593.43	0.670
593.62	0.669
593.81	0.669
594.01	0.669
594.20	0.667
594.40	0.665
594.59	0.667
594.79	0.668
594.98	0.666
595.17	0.666
595.37	0.666
595.56	0.668
595.76	0.667
595.95	0.669
596.14	0.672
596.34	0.673
596.53	0.671
596.73	0.672
596.92	0.674
597.12	0.677
597.31	0.676
597.50	0.675
597.70	0.677
597.89	0.676
598.09	0.673
598.28	0.675
598.47	0.677
598.67	0.676
598.86	0.672
599.06	0.674
599.25	0.674
599.44	0.673
599.64	0.669
599.83	0.667
600.03	0.670
600.22	0.671
600.41	0.670
600.61	0.668
600.80	0.670
601.00	0.671
601.19	0.666
601.38	0.665
601.58	0.667
601.77	0.669
601.96	0.670
602.16	0.670
602.35	0.679
602.55	0.677
602.74	0.677
602.93	0.679
603.13	0.684
603.32	0.685
603.51	0.685
603.71	0.689
603.90	0.691
604.09	0.691
604.29	0.689
604.48	0.683
604.68	0.684
604.87	0.683
605.06	0.679
605.26	0.676
605.45	0.677
605.64	0.676
605.84	0.671
606.03	0.670
606.22	0.669
606.42	0.668
606.61	0.665
606.80	0.665
607.00	0.667
607.19	0.667
607.38	0.666
607.58	0.667
607.77	0.670
607.96	0.670
608.16	0.668
608.35	0.673
608.54	0.675
608.74	0.679
608.93	0.684
609.12	0.687
609.32	0.690
609.51	0.693
609.70	0.692
609.90	0.694
610.09	0.698
610.28	0.703
610.48	0.697
610.67	0.699
610.86	0.699
611.06	0.693
611.25	0.691
611.44	0.692
611.64	0.692
611.83	0.695
612.02	0.690
612.21	0.689
612.41	0.688
612.60	0.687
612.79	0.683
612.99	0.683
613.18	0.685
613.37	0.683
613.57	0.680
613.76	0.682
613.95	0.679
614.14	0.679
614.34	0.676
614.53	0.677
614.72	0.681
614.92	0.681
615.11	0.678
615.30	0.674
615.49	0.676
615.69	0.678
615.88	0.675
616.07	0.676
616.26	0.678
616.46	0.679
616.65	0.676
616.84	0.675
617.04	0.676
617.23	0.680
617.42	0.681
617.61	0.684
617.81	0.685
618.00	0.687
618.19	0.685
618.38	0.690
618.58	0.693
618.77	0.694
618.96	0.693
619.15	0.695
619.35	0.697
619.54	0.697
619.73	0.693
619.92	0.695
620.12	0.700
620.31	0.701
620.50	0.695
620.69	0.696
620.89	0.699
621.08	0.699
621.27	0.698
621.46	0.697
621.66	0.702
621.85	0.701
622.04	0.697
622.23	0.697
622.43	0.698
622.62	0.698
622.81	0.697
623.00	0.696
623.19	0.700
623.39	0.699
623.58	0.696
623.77	0.694
623.96	0.697
624.16	0.697
624.35	0.692
624.54	0.695
624.73	0.699
624.92	0.696
625.12	0.693
625.31	0.694
625.50	0.697
625.69	0.697
625.88	0.694
626.08	0.694
626.27	0.695
626.46	0.696
626.65	0.693
626.84	0.693
627.04	0.698
627.23	0.698
627.42	0.693
627.61	0.696
627.80	0.699
628.00	0.699
628.19	0.697
628.38	0.701
628.57	0.704
628.76	0.703
628.96	0.700
629.15	0.701
629.34	0.704
629.53	0.705
629.72	0.698
629.91	0.699
630.11	0.704
630.30	0.704
630.49	0.706
630.68	0.706
630.87	0.710
631.06	0.713
631.26	0.707
631.45	0.709
631.64	0.717
631.83	0.719
632.02	0.717
632.21	0.716
632.41	0.723
632.60	0.716
632.79	0.714
632.98	0.715
633.17	0.715
633.36	0.718
633.55	0.713
633.75	0.709
633.94	0.711
634.13	0.711
634.32	0.708
634.51	0.703
634.70	0.706
634.89	0.705
635.09	0.701
635.28	0.702
635.47	0.704
635.66	0.707
635.85	0.703
636.04	0.706
636.23	0.711
636.43	0.713
636.62	0.711
636.81	0.710
637.00	0.713
637.19	0.716
637.38	0.713
637.57	0.712
637.76	0.713
637.95	0.715
638.15	0.710
638.34	0.706
638.53	0.708
638.72	0.710
638.91	0.707
639.10	0.704
639.29	0.705
639.48	0.705
639.67	0.706
639.87	0.704
640.06	0.709
640.25	0.710
640.44	0.710
640.63	0.711
640.82	0.713
641.01	0.714
641.20	0.714
641.39	0.715
641.58	0.718
641.78	0.716
641.97	0.712
642.16	0.724
642.35	0.725
642.54	0.724
642.73	0.718
642.92	0.716
643.11	0.720
643.30	0.720
643.49	0.715
643.68	0.718
643.87	0.719
644.06	0.720
644.25	0.701
644.45	0.704
644.64	0.706
644.83	0.706
645.02	0.704
645.21	0.702
645.40	0.704
645.59	0.704
645.78	0.698
645.97	0.700
646.16	0.702
646.35	0.702
646.54	0.699
646.73	0.700
646.92	0.703
647.11	0.703
647.30	0.699
647.49	0.700
647.68	0.699
647.88	0.697
648.07	0.691
648.26	0.694
648.45	0.696
648.64	0.692
648.83	0.689
649.02	0.690
649.21	0.700
649.40	0.699
649.59	0.695
649.78	0.695
649.97	0.710
650.16	0.709
650.35	0.703
650.54	0.706
650.73	0.715
650.92	0.712
651.11	0.705
651.30	0.702
651.49	0.707
651.68	0.707
651.87	0.704
652.06	0.693
652.25	0.697
652.44	0.699
652.63	0.696
652.82	0.695
653.01	0.695
653.20	0.693
653.39	0.682
653.58	0.680
653.77	0.679
653.96	0.674
654.15	0.667
654.34	0.665
654.53	0.661
654.72	0.656
654.91	0.647
655.10	0.642
655.29	0.641
655.48	0.638
655.67	0.633
655.86	0.630
656.05	0.629
656.24	0.628
656.43	0.623
656.62	0.622
656.81	0.623
657.00	0.621
657.19	0.619
657.38	0.619
657.57	0.619
657.76	0.621
657.95	0.619
658.14	0.622
658.33	0.626
658.51	0.631
658.70	0.632
658.89	0.633
659.08	0.642
659.27	0.650
659.46	0.649
659.65	0.656
659.84	0.660
660.03	0.663
660.22	0.664
660.41	0.668
660.60	0.667
660.79	0.668
660.98	0.673
661.17	0.672
661.36	0.671
661.55	0.671
661.74	0.668
661.92	0.671
662.11	0.674
662.30	0.672
662.49	0.666
662.68	0.666
662.87	0.669
663.06	0.663
663.25	0.664
663.44	0.664
663.63	0.665
663.82	0.664
664.01	0.659
664.20	0.658
664.38	0.660
664.57	0.660
664.76	0.659
664.95	0.660
665.14	0.665
665.33	0.659
665.52	0.666
665.71	0.669
665.90	0.669
666.09	0.671
666.28	0.668
666.46	0.666
666.65	0.667
666.84	0.665
667.03	0.658
667.22	0.656
667.41	0.658
667.60	0.649
667.79	0.642
667.98	0.643
668.16	0.645
668.35	0.645
668.54	0.642
668.73	0.643
668.92	0.644
669.11	0.643
669.30	0.638
669.49	0.635
669.67	0.637
669.86	0.641
670.05	0.638
670.24	0.635
670.43	0.632
670.62	0.631
670.81	0.626
671.00	0.627
671.18	0.626
671.37	0.626
671.56	0.623
671.75	0.622
671.94	0.619
672.13	0.617
672.32	0.613
672.50	0.613
672.69	0.614
672.88	0.614
673.07	0.610
673.26	0.613
673.45	0.615
673.63	0.614
673.82	0.610
674.01	0.612
674.20	0.611
674.39	0.610
674.58	0.609
674.76	0.608
674.95	0.607
675.14	0.606
675.33	0.602
675.52	0.600
675.71	0.601
675.89	0.601
676.08	0.596
676.27	0.597
676.46	0.597
676.65	0.596
676.84	0.596
677.02	0.597
677.21	0.599
677.40	0.598
677.59	0.595
677.78	0.596
677.96	0.598
678.15	0.598
678.34	0.596
678.53	0.597
678.72	0.596
678.90	0.593
679.09	0.589
679.28	0.586
679.47	0.586
679.66	0.586
679.84	0.582
680.03	0.580
680.22	0.579
680.41	0.581
680.60	0.578
680.78	0.577
680.97	0.579
681.16	0.580
681.35	0.579
681.53	0.577
681.72	0.579
681.91	0.580
682.10	0.578
682.29	0.581
682.47	0.578
682.66	0.578
682.85	0.577
683.04	0.575
683.22	0.575
683.41	0.577
683.60	0.576
683.79	0.577
683.97	0.576
684.16	0.575
684.35	0.570
684.54	0.572
684.72	0.572
684.91	0.573
685.10	0.570
685.29	0.572
685.47	0.570
685.66	0.568
685.85	0.565
686.04	0.564
686.22	0.567
686.41	0.570
686.60	0.567
686.79	0.570
686.97	0.570
687.16	0.572
687.35	0.569
687.54	0.573
687.72	0.577
687.91	0.577
688.10	0.578
688.29	0.578
688.47	0.576
688.66	0.575
688.85	0.572
689.03	0.569
689.22	0.574
689.41	0.575
689.60	0.570
689.78	0.567
689.97	0.568
690.16	0.566
690.34	0.562
690.53	0.562
690.72	0.562
690.91	0.560
691.09	0.558
691.28	0.551
691.47	0.549
691.65	0.548
691.84	0.545
692.03	0.544
692.21	0.542
692.40	0.542
692.59	0.539
692.77	0.538
692.96	0.540
693.15	0.540
693.34	0.538
693.52	0.538
693.71	0.539
693.90	0.540
694.08	0.541
694.27	0.541
694.46	0.550
694.64	0.551
694.83	0.551
695.02	0.550
695.20	0.550
695.39	0.550
695.58	0.550
695.76	0.551
695.95	0.550
696.14	0.550
696.32	0.548
696.51	0.539
696.70	0.539
696.88	0.540
697.07	0.539
697.26	0.540
697.44	0.541
697.63	0.540
697.81	0.538
698.00	0.538
698.19	0.537
698.37	0.537
698.56	0.536
698.75	0.536
698.93	0.536
699.12	0.536
699.31	0.535
699.49	0.534
699.68	0.535
699.87	0.537
700.05	0.537
700.24	0.536
700.42	0.538
700.61	0.537
700.80	0.535
700.98	0.535
701.17	0.537
701.36	0.536
701.54	0.535
701.73	0.537
701.91	0.534
702.10	0.534
702.29	0.532
702.47	0.531
702.66	0.533
702.84	0.533
703.03	0.531
703.22	0.533
703.40	0.532
703.59	0.533
703.77	0.532
703.96	0.532
704.15	0.533
704.33	0.533
704.52	0.532
704.70	0.531
704.89	0.531
705.08	0.530
705.26	0.525
705.45	0.525
705.63	0.525
705.82	0.522
706.00	0.521
706.19	0.521
706.38	0.521
706.56	0.520
706.75	0.518
706.93	0.517
707.12	0.518
707.30	0.519
707.49	0.517
707.68	0.515
707.86	0.515
708.05	0.515
708.23	0.512
708.42	0.512
708.60	0.515
708.79	0.516
708.98	0.514
709.16	0.513
709.35	0.515
709.53	0.519
709.72	0.517
709.90	0.519
710.09	0.521
710.27	0.524
710.46	0.527
710.64	0.526
710.83	0.528
711.02	0.530
711.20	0.528
711.39	0.526
711.57	0.525
711.76	0.526
711.94	0.524
712.13	0.524
712.31	0.523
712.50	0.518
712.68	0.515
712.87	0.516
713.05	0.517
713.24	0.518
713.42	0.517
713.61	0.517
713.79	0.518
713.98	0.519
714.16	0.520
714.35	0.519
714.54	0.521
714.72	0.522
714.91	0.519
715.09	0.524
715.28	0.528
715.46	0.527
715.65	0.525
715.83	0.525
716.02	0.527
716.20	0.524
716.39	0.524
716.57	0.524
716.76	0.526
716.94	0.526
717.12	0.519
717.31	0.521
717.49	0.524
717.68	0.526
717.86	0.524
718.05	0.526
718.23	0.528
718.42	0.529
718.60	0.530
718.79	0.538
718.97	0.540
719.16	0.541
719.34	0.538
719.53	0.538
719.71	0.538
719.90	0.540
720.08	0.537
720.27	0.538
720.45	0.538
720.63	0.537
720.82	0.531
721.00	0.534
721.19	0.537
721.37	0.537
721.56	0.536
721.74	0.539
721.93	0.547
722.11	0.554
722.30	0.552
722.48	0.557
722.66	0.558
722.85	0.556
723.03	0.556
723.22	0.555
723.40	0.559
723.59	0.559
723.77	0.563
723.95	0.558
724.14	0.559
724.32	0.561
724.51	0.559
724.69	0.562
724.88	0.564
725.06	0.562
725.24	0.561
725.43	0.562
725.61	0.565
725.80	0.558
725.98	0.555
726.16	0.551
726.35	0.558
726.53	0.557
726.72	0.555
726.90	0.564
727.09	0.565
727.27	0.571
727.45	0.567
727.64	0.575
727.82	0.585
728.01	0.589
728.19	0.587
728.37	0.592
728.56	0.597
728.74	0.603
728.92	0.591
729.11	0.594
729.29	0.592
729.48	0.595
729.66	0.584
729.84	0.584
730.03	0.588
730.21	0.589
730.40	0.578
730.58	0.580
730.76	0.579
730.95	0.580
731.13	0.580
731.31	0.594
731.50	0.603
731.68	0.606
731.86	0.601
732.05	0.614
732.23	0.617
732.42	0.622
732.60	0.624
732.78	0.630
732.97	0.650
733.15	0.657
733.33	0.644
733.52	0.651
733.70	0.663
733.88	0.672
734.07	0.658
734.25	0.684
734.43	0.693
734.62	0.696
734.80	0.690
734.98	0.678
735.17	0.686
735.35	0.693
735.53	0.680
735.72	0.682
735.90	0.704
736.08	0.722
736.27	0.698
736.45	0.706
736.63	0.717
736.82	0.728
737.00	0.726
737.18	0.736
737.37	0.765
737.55	0.787
737.73	0.781
737.92	0.783
738.10	0.783
738.28	0.803
738.46	0.791
738.65	0.805
738.83	0.823
739.01	0.876
739.20	0.864
739.38	0.846
739.56	0.840
739.75	0.842
739.93	0.808
740.11	0.831
740.29	0.832
740.48	0.836
740.66	0.814
740.84	0.805
741.03	0.773
741.21	0.782
741.39	0.764
741.57	0.779
741.76	0.794
741.94	0.801
742.12	0.764
742.31	0.769
742.49	0.789
742.67	0.811
742.85	0.825
743.04	0.828
743.22	0.842
743.40	0.891
743.58	0.867
743.77	0.885
743.95	0.919
744.13	0.970
744.31	0.952
744.50	0.945
744.68	0.942
744.86	0.917
745.04	0.929
745.23	0.987
745.41	0.973
745.59	0.982
745.77	0.951
745.96	0.943
746.14	0.954
746.32	0.952
746.50	0.948
746.69	0.937
746.87	0.946
747.05	0.935
747.23	0.860
747.42	0.849
747.60	0.877
747.78	0.878
747.96	0.901
748.14	0.855
748.33	0.885
748.51	0.877
748.69	0.868
748.87	0.903
749.06	0.901
749.24	0.903
749.42	0.882
749.60	0.864
749.78	0.872
749.97	0.828
750.15	0.821
750.33	0.818
750.51	0.839
750.69	0.845
750.88	0.843
751.06	0.848
751.24	0.872
751.42	0.866
751.60	0.857
751.79	0.925
751.97	0.969
752.15	0.973
752.33	0.942
752.51	1.005
752.69	1.022
752.88	0.995
753.06	1.035
753.24	1.008
753.42	1.046
753.60	1.201
753.78	1.064
753.97	1.084
754.15	1.097
754.33	1.127
754.51	1.009
754.69	0.991
754.87	1.016
755.06	0.951
755.24	0.953
755.42	0.964
755.60	0.872
755.78	0.879
755.96	0.828
756.15	0.830
756.33	0.836
756.51	0.855
756.69	0.840
756.87	0.811
757.05	0.833
757.23	0.818
757.42	0.784
757.60	0.787
757.78	0.778
757.96	0.773
758.14	0.756
758.32	0.741
758.50	0.752
758.69	0.754
758.87	0.745
759.05	0.746
759.23	0.757
759.41	0.756
759.59	0.744
759.77	0.765
759.95	0.792
760.13	0.840
760.32	0.841
760.50	0.837
760.68	0.864
760.86	0.864
761.04	0.838
761.22	0.839
761.40	0.888
761.58	0.891
761.76	0.865
761.95	0.849
762.13	0.807
762.31	0.804
762.49	0.772
762.67	0.787
762.85	0.797
763.03	0.791
763.21	0.772
763.39	0.755
763.57	0.760
763.75	0.751
763.94	0.736
764.12	0.735
764.30	0.759
764.48	0.764
764.66	0.729
764.84	0.728
765.02	0.765
765.20	0.774
765.38	0.754
765.56	0.758
765.74	0.800
765.92	0.800
766.10	0.807
766.28	0.802
766.46	0.832
766.65	0.830
766.83	0.817
767.01	0.801
767.19	0.808
767.37	0.808
767.55	0.792
767.73	0.773
767.91	0.776
768.09	0.764
768.27	0.752
768.45	0.740
768.63	0.745
768.81	0.747
768.99	0.721
769.17	0.746
769.35	0.757
769.53	0.756
769.71	0.737
769.89	0.747
770.07	0.755
770.25	0.740
770.43	0.718
770.61	0.743
770.79	0.751
770.97	0.759
771.15	0.728
771.33	0.734
771.51	0.740
771.69	0.751
771.87	0.757
772.05	0.760
772.24	0.768
772.42	0.777
772.60	0.753
772.78	0.809
772.96	0.837
773.14	0.834
773.32	0.810
773.49	0.815
773.67	0.812
773.85	0.791
774.03	0.782
774.21	0.814
774.39	0.825
774.57	0.849
774.75	0.777
774.93	0.775
775.11	0.799
775.29	0.804
775.47	0.804
775.65	0.813
775.83	0.830
776.01	0.850
776.19	0.802
776.37	0.804
776.55	0.803
776.73	0.801
776.91	0.791
777.09	0.771
777.27	0.773
777.45	0.762
777.63	0.743
777.81	0.741
777.99	0.728
778.17	0.726
778.35	0.706
778.53	0.695
778.71	0.701
778.89	0.691
779.07	0.680
779.24	0.685
779.42	0.686
779.60	0.704
779.78	0.697
779.96	0.701
780.14	0.712
780.32	0.732
780.50	0.716
780.68	0.716
780.86	0.709
781.04	0.726
781.22	0.728
781.40	0.738
781.58	0.730
781.75	0.724
781.93	0.708
782.11	0.709
782.29	0.695
782.47	0.694
782.65	0.682
782.83	0.711
783.01	0.707
783.19	0.701
783.37	0.689
783.55	0.692
783.72	0.711
783.90	0.721
784.08	0.710
784.26	0.721
784.44	0.742
784.62	0.744
784.80	0.711
784.98	0.716
785.16	0.721
785.33	0.732
785.51	0.719
785.69	0.707
785.87	0.707
786.05	0.719
786.23	0.716
786.41	0.713
786.59	0.723
786.77	0.721
786.94	0.708
787.12	0.711
787.30	0.713
787.48	0.710
787.66	0.697
787.84	0.698
788.02	0.690
788.19	0.684
788.37	0.671
788.55	0.671
788.73	0.672
788.91	0.668
789.09	0.653
789.27	0.644
789.44	0.655
789.62	0.661
789.80	0.668
789.98	0.691
790.16	0.681
790.34	0.678
790.51	0.664
790.69	0.685
790.87	0.689
791.05	0.685
791.23	0.678
791.41	0.678
791.58	0.687
791.76	0.667
791.94	0.638
792.12	0.646
792.30	0.648
792.48	0.647
792.65	0.640
792.83	0.648
793.01	0.657
793.19	0.656
793.37	0.640
793.54	0.636
793.72	0.649
793.90	0.648
794.08	0.637
794.26	0.638
794.43	0.648
794.61	0.633
794.79	0.621
794.97	0.619
795.15	0.624
795.32	0.629
795.50	0.619
795.68	0.615
795.86	0.620
796.04	0.621
796.21	0.613
796.39	0.611
796.57	0.622
796.75	0.631
796.92	0.632
797.10	0.635
797.28	0.638
797.46	0.643
797.64	0.642
797.81	0.650
797.99	0.654
798.17	0.659
798.35	0.653
798.52	0.657
798.70	0.653
798.88	0.662
799.06	0.663
799.23	0.666
799.41	0.673
799.59	0.665
799.77	0.652
799.94	0.660
800.12	0.670
800.30	0.687
800.48	0.686
800.65	0.685
800.83	0.676
801.01	0.666
801.19	0.665
801.36	0.660
801.54	0.664
801.72	0.676
801.90	0.662
802.07	0.656
802.25	0.642
802.43	0.626
802.60	0.622
802.78	0.629
802.96	0.633
803.14	0.626
803.31	0.624
803.49	0.626
803.67	0.621
803.84	0.627
804.02	0.617
804.20	0.621
804.38	0.626
804.55	0.626
804.73	0.612
804.91	0.614
805.08	0.628
805.26	0.625
805.44	0.687
805.61	0.691
805.79	0.689
805.97	0.692
806.15	0.685
806.32	0.681
806.50	0.689
806.68	0.686
806.85	0.675
807.03	0.666
807.21	0.683
807.38	0.615
807.56	0.606
807.74	0.617
807.91	0.624
808.09	0.624
808.27	0.640
808.44	0.664
808.62	0.676
808.80	0.678
808.97	0.672
809.15	0.664
809.33	0.681
809.50	0.686
809.68	0.671
809.86	0.678
810.03	0.710
810.21	0.690
810.39	0.673
810.56	0.677
810.74	0.702
810.91	0.771
811.09	0.761
811.27	0.784
811.44	0.792
811.62	0.793
811.80	0.778
811.97	0.746
812.15	0.747
812.33	0.741
812.50	0.725
812.68	0.712
812.85	0.661
813.03	0.663
813.21	0.629
813.38	0.622
813.56	0.626
813.74	0.635
813.91	0.643
814.09	0.672
814.26	0.667
814.44	0.673
814.62	0.663
814.79	0.664
814.97	0.668
815.14	0.673
815.32	0.677
815.50	0.694
815.67	0.697
815.85	0.687
816.02	0.676
816.20	0.683
816.38	0.698
816.55	0.704
816.73	0.703
816.90	0.716
817.08	0.744
817.26	0.749
817.43	0.727
817.61	0.748
817.78	0.771
817.96	0.752
818.13	0.743
818.31	0.743
818.49	0.755
818.66	0.745
818.84	0.729
819.01	0.710
819.19	0.715
819.36	0.720
819.54	0.691
819.71	0.729
819.89	0.743
820.07	0.753
820.24	0.745
820.42	0.745
820.59	0.766
820.77	0.790
820.94	0.782
821.12	0.802
821.29	0.818
821.47	0.819
821.64	0.757
821.82	0.768
822.00	0.767
822.17	0.764
822.35	0.758
822.52	0.759
822.70	0.747
822.87	0.754
823.05	0.734
823.22	0.741
823.40	0.770
823.57	0.790
823.75	0.769
823.92	0.792
824.10	0.810
824.27	0.845
824.45	0.832
824.62	0.891
824.80	0.907
824.97	0.917
825.15	0.909
825.32	0.915
825.50	0.919
825.67	0.932
825.85	0.904
826.02	0.922
826.20	0.948
826.37	1.072
826.55	0.991
826.72	1.175
826.90	1.262
827.07	1.305
827.25	1.254
827.42	1.429
827.60	1.610
827.77	1.823
827.95	1.729
828.12	1.854
828.30	1.450
828.47	1.554
828.65	1.190
828.82	1.236
829.00	1.306
829.17	1.363
829.34	1.355
829.52	1.396
829.69	-0.000
829.87	-0.000
830.04	-0.000
830.22	-0.000
830.39	-0.000
830.57	-0.000
830.74	-0.000
830.92	-0.000
831.09	-0.000
831.26	-0.000
831.44	-0.000
831.61	-0.000
831.79	-0.000
831.96	-0.000
832.14	-0.000
832.31	-0.000
832.49	-0.000
832.66	-0.000
832.83	-0.000
833.01	-0.000
833.18	-0.000
833.36	-0.000
833.53	-0.000
833.70	-0.000
833.88	-0.000
834.05	-0.000
834.23	-0.000
834.40	-0.000
834.58	-0.000
834.75	-0.000
834.92	-0.000
835.10	-0.000
835.27	-0.000
835.45	-0.000
835.62	-0.000
835.79	-0.000
835.97	-0.000
836.14	-0.000
836.32	-0.000
836.49	-0.000
836.66	-0.000
836.84	-0.000
837.01	-0.000
837.18	-0.000
837.36	-0.000
837.53	-0.000
837.71	-0.000
837.88	-0.000
838.05	-0.000
838.23	-0.000
838.40	-0.000
838.58	-0.000
838.75	-0.000
838.92	-0.000
839.10	-0.000
839.27	-0.000
839.44	-0.000
839.62	-0.000
839.79	-0.000
839.96	-0.000
840.14	-0.000
840.31	-0.000
840.48	-0.000
840.66	-0.000
840.83	-0.000
841.01	-0.000
841.18	-0.000
841.35	-0.000
841.53	-0.000
841.70	-0.000
841.87	-0.000
842.05	-0.000
842.22	-0.000
842.39	-0.000
842.57	-0.000
842.74	-0.000
842.91	-0.000
843.09	-0.000
843.26	-0.000
843.43	-0.000
843.60	-0.000
843.78	-0.000
843.95	-0.000
844.12	-0.000
844.30	-0.000
844.47	-0.000
844.64	-0.000
844.82	-0.000
844.99	-0.000
845.16	-0.000
845.34	-0.000
845.51	-0.000
845.68	-0.000
845.85	-0.000
846.03	-0.000
846.20	-0.000
846.37	-0.000
846.55	-0.000
846.72	-0.000
846.89	-0.000
847.06	-0.000
847.24	-0.000
847.41	-0.000
847.58	-0.000
847.76	-0.000
847.93	-0.000
848.10	-0.000
848.27	-0.000
848.45	-0.000
848.62	-0.000
848.79	-0.000
848.97	-0.000
849.14	-0.000
849.31	-0.000
849.48	-0.000
849.66	-0.000
849.83	-0.000
850.00	-0.000
850.17	-0.000
850.35	-0.000
850.52	-0.000
850.69	-0.000
850.86	-0.000
851.04	-0.000
851.21	-0.000
851.38	-0.000
851.55	-0.000
851.72	-0.000
851.90	-0.000
852.07	-0.000
852.24	-0.000
852.41	-0.000
852.59	-0.000
852.76	-0.000
852.93	-0.000
853.10	-0.000
853.28	-0.000
853.45	-0.000
853.62	-0.000
853.79	-0.000
853.96	-0.000
854.14	-0.000
854.31	-0.000
854.48	-0.000
854.65	-0.000
854.82	-0.000
855.00	-0.000
855.17	-0.000
855.34	-0.000
855.51	-0.000
855.68	-0.000
855.86	-0.000
856.03	-0.000
856.20	-0.000
856.37	-0.000
856.54	-0.000
856.72	-0.000
856.89	-0.000
857.06	-0.000
857.23	-0.000
857.40	-0.000
857.57	-0.000
857.75	-0.000
857.92	-0.000
858.09	-0.000
858.26	-0.000
858.43	-0.000
858.60	-0.000
858.78	-0.000
858.95	-0.000
859.12	-0.000
859.29	-0.000
859.46	-0.000
859.63	-0.000
859.81	-0.000
859.98	-0.000
860.15	-0.000
860.32	-0.000
860.49	-0.000
860.66	-0.000
860.83	-0.000
861.01	-0.000
861.18	-0.000
861.35	-0.000
861.52	-0.000
861.69	-0.000
861.86	-0.000
862.03	-0.000
862.21	-0.000
862.38	-0.000
862.55	-0.000
862.72	-0.000
862.89	-0.000
863.06	-0.000
863.23	-0.000
863.40	-0.000
863.58	-0.000
863.75	-0.000
863.92	-0.000
864.09	-0.000
864.26	-0.000
864.43	-0.000
864.60	-0.000
864.77	-0.000
864.94	-0.000
865.11	-0.000
865.29	-0.000
865.46	-0.000
865.63	-0.000
865.80	-0.000
865.97	-0.000
866.14	-0.000
866.31	-0.000
866.48	-0.000
866.65	-0.000
866.82	-0.000
866.99	-0.000
867.16	-0.000
867.34	-0.000
867.51	-0.000
867.68	-0.000
867.85	-0.000
868.02	-0.000
868.19	-0.000
868.36	-0.000
868.53	-0.000
868.70	-0.000
868.87	-0.000
869.04	-0.000
869.21	-0.000
869.38	-0.000
869.55	-0.000
869.72	-0.000
869.89	-0.000
870.06	-0.000
870.24	-0.000
870.41	-0.000
870.58	-0.000
870.75	-0.000
870.92	-0.000
871.09	-0.000
871.26	-0.000
871.43	-0.000
871.60	-0.000
871.77	-0.000
871.94	-0.000
872.11	-0.000
872.28	-0.000
872.45	-0.000
872.62	-0.000
872.79	-0.000
872.96	-0.000
873.13	-0.000
873.30	-0.000
873.47	-0.000
873.64	-0.000
873.81	-0.000
873.98	-0.000
874.15	-0.000
874.32	-0.000
874.49	-0.000
874.66	-0.000
874.83	-0.000
875.00	-0.000
875.17	-0.000
875.34	-0.000
875.51	-0.000
875.68	-0.000
875.85	-0.000
876.02	-0.000
876.19	-0.000
876.36	-0.000
876.53	-0.000
876.70	-0.000
876.87	-0.000
877.04	-0.000
877.21	-0.000
877.38	-0.000
877.55	-0.000
877.72	-0.000
877.89	-0.000
878.06	-0.000
878.23	-0.000
878.39	-0.000
878.56	-0.000
878.73	-0.000
878.90	-0.000
879.07	-0.000
879.24	-0.000
879.41	-0.000
879.58	-0.000
879.75	-0.000
879.92	-0.000
880.09	-0.000
880.26	-0.000
880.43	-0.000
880.60	-0.000
880.77	-0.000
880.94	-0.000
881.11	-0.000
881.27	-0.000
881.44	-0.000
881.61	-0.000
881.78	-0.000
881.95	-0.000
882.12	-0.000
882.29	-0.000
882.46	-0.000
882.63	-0.000
882.80	-0.000
882.97	-0.000
883.14	-0.000
883.30	-0.000
883.47	-0.000
883.64	-0.000
883.81	-0.000
883.98	-0.000
884.15	-0.000
884.32	-0.000
884.49	-0.000
884.66	-0.000
884.82	-0.000
884.99	-0.000
885.16	-0.000
885.33	-0.000
885.50	-0.000
885.67	-0.000
885.84	-0.000
886.01	-0.000
886.17	-0.000
886.34	-0.000
886.51	-0.000
886.68	-0.000
886.85	-0.000
887.02	-0.000
887.19	-0.000
887.36	-0.000
887.52	-0.000
887.69	-0.000
887.86	-0.000
888.03	-0.000
888.20	-0.000
888.37	-0.000
888.54	-0.000
888.70	-0.000
888.87	-0.000
889.04	-0.000
889.21	-0.000
889.38	-0.000
889.55	-0.000
889.71	-0.000
889.88	-0.000
890.05	-0.000
890.22	-0.000
890.39	-0.000
>>>>>End Processed Spectral Data<<<<<
