SpectraSuite Data File
++++++++++++++++++++++++++++++++++++
Date: Fri Jun 19 14:20:42 CEST 2015
User: introlabs
Dark Spectrum Present: Yes
Reference Spectrum Present: Yes
Number of Sampled Component Spectra: 1
Spectrometers: USB4H08886
Integration Time (usec): 745692 (USB4H08886)
Spectra Averaged: 5 (USB4H08886)
Boxcar Smoothing: 5 (USB4H08886)
Correct for Electrical Dark: Yes (USB4H08886)
Strobe/Lamp Enabled: No (USB4H08886)
Correct for Detector Non-linearity: Yes (USB4H08886)
Correct for Stray Light: Yes (USB4H08886)
Number of Pixels in Processed Spectrum: 3648
>>>>>Begin Processed Spectral Data<<<<<
178.14	-0.000
178.36	-0.000
178.57	-0.000
178.79	-0.000
179.01	-0.000
179.22	-0.000
179.44	-0.000
179.65	-0.000
179.87	-0.000
180.08	-0.000
180.30	-0.000
180.52	-0.000
180.73	-0.000
180.95	-0.000
181.16	-0.000
181.38	-0.000
181.59	-0.000
181.81	-0.000
182.03	-0.000
182.24	-0.000
182.46	-0.000
182.67	-0.000
182.89	-0.000
183.10	-0.000
183.32	-0.000
183.54	-0.000
183.75	-0.000
183.97	-0.000
184.18	-0.000
184.40	-0.000
184.61	-0.000
184.83	-0.000
185.04	-0.000
185.26	-0.000
185.48	-0.000
185.69	-0.000
185.91	-0.000
186.12	-0.000
186.34	-0.000
186.55	-0.000
186.77	-0.000
186.98	-0.000
187.20	-0.000
187.42	-0.000
187.63	-0.000
187.85	-0.000
188.06	-0.000
188.28	-0.000
188.49	-0.000
188.71	-0.000
188.92	-0.000
189.14	-0.000
189.36	-0.000
189.57	-0.000
189.79	-0.000
190.00	-0.000
190.22	-0.000
190.43	-0.000
190.65	-0.000
190.86	-0.000
191.08	-0.000
191.29	-0.000
191.51	-0.000
191.72	-0.000
191.94	-0.000
192.16	-0.000
192.37	-0.000
192.59	-0.000
192.80	-0.000
193.02	-0.000
193.23	-0.000
193.45	-0.000
193.66	-0.000
193.88	-0.000
194.09	-0.000
194.31	-0.000
194.52	-0.000
194.74	-0.000
194.95	-0.000
195.17	-0.000
195.38	-0.000
195.60	-0.000
195.81	-0.000
196.03	-0.000
196.25	-0.000
196.46	-0.000
196.68	-0.000
196.89	-0.000
197.11	-0.000
197.32	-0.000
197.54	-0.000
197.75	-0.000
197.97	-0.000
198.18	-0.000
198.40	-0.000
198.61	-0.000
198.83	-0.000
199.04	-0.000
199.26	-0.000
199.47	-0.000
199.69	-0.000
199.90	-0.000
200.12	-0.000
200.33	-0.000
200.55	-0.000
200.76	-0.000
200.98	-0.000
201.19	-0.000
201.41	-0.000
201.62	-0.000
201.84	-0.000
202.05	-0.000
202.27	-0.000
202.48	-0.000
202.70	-0.000
202.91	-0.000
203.13	-0.000
203.34	-0.000
203.56	-0.000
203.77	-0.000
203.99	-0.000
204.20	-0.000
204.42	-0.000
204.63	-0.000
204.85	-0.000
205.06	-0.000
205.28	-0.000
205.49	-0.000
205.71	-0.000
205.92	-0.000
206.14	-0.000
206.35	-0.000
206.56	-0.000
206.78	-0.000
206.99	-0.000
207.21	-0.000
207.42	-0.000
207.64	-0.000
207.85	-0.000
208.07	-0.000
208.28	-0.000
208.50	-0.000
208.71	-0.000
208.93	-0.000
209.14	-0.000
209.36	-0.000
209.57	-0.000
209.79	-0.000
210.00	-0.000
210.22	-0.000
210.43	-0.000
210.64	-0.000
210.86	-0.000
211.07	-0.000
211.29	-0.000
211.50	-0.000
211.72	-0.000
211.93	-0.000
212.15	-0.000
212.36	-0.000
212.58	-0.000
212.79	-0.000
213.01	-0.000
213.22	-0.000
213.43	-0.000
213.65	-0.000
213.86	-0.000
214.08	-0.000
214.29	-0.000
214.51	-0.000
214.72	-0.000
214.94	-0.000
215.15	-0.000
215.36	-0.000
215.58	-0.000
215.79	-0.000
216.01	-0.000
216.22	-0.000
216.44	-0.000
216.65	-0.000
216.87	-0.000
217.08	-0.000
217.29	-0.000
217.51	-0.000
217.72	-0.000
217.94	-0.000
218.15	-0.000
218.37	-0.000
218.58	-0.000
218.80	-0.000
219.01	-0.000
219.22	-0.000
219.44	-0.000
219.65	-0.000
219.87	-0.000
220.08	-0.000
220.30	-0.000
220.51	-0.000
220.72	-0.000
220.94	-0.000
221.15	-0.000
221.37	-0.000
221.58	-0.000
221.79	-0.000
222.01	-0.000
222.22	-0.000
222.44	-0.000
222.65	-0.000
222.87	-0.000
223.08	-0.000
223.29	-0.000
223.51	-0.000
223.72	-0.000
223.94	-0.000
224.15	-0.000
224.36	-0.000
224.58	-0.000
224.79	-0.000
225.01	-0.000
225.22	-0.000
225.44	-0.000
225.65	-0.000
225.86	-0.000
226.08	-0.000
226.29	-0.000
226.51	-0.000
226.72	-0.000
226.93	-0.000
227.15	-0.000
227.36	-0.000
227.58	-0.000
227.79	-0.000
228.00	-0.000
228.22	-0.000
228.43	-0.000
228.65	-0.000
228.86	-0.000
229.07	-0.000
229.29	-0.000
229.50	-0.000
229.72	-0.000
229.93	-0.000
230.14	-0.000
230.36	-0.000
230.57	-0.000
230.78	-0.000
231.00	-0.000
231.21	-0.000
231.43	-0.000
231.64	-0.000
231.85	-0.000
232.07	-0.000
232.28	-0.000
232.50	-0.000
232.71	-0.000
232.92	-0.000
233.14	-0.000
233.35	-0.000
233.56	-0.000
233.78	-0.000
233.99	-0.000
234.21	-0.000
234.42	-0.000
234.63	-0.000
234.85	-0.000
235.06	-0.000
235.27	-0.000
235.49	-0.000
235.70	-0.000
235.91	-0.000
236.13	-0.000
236.34	-0.000
236.56	-0.000
236.77	-0.000
236.98	-0.000
237.20	-0.000
237.41	-0.000
237.62	-0.000
237.84	-0.000
238.05	-0.000
238.26	-0.000
238.48	-0.000
238.69	-0.000
238.91	-0.000
239.12	-0.000
239.33	-0.000
239.55	-0.000
239.76	-0.000
239.97	-0.000
240.19	-0.000
240.40	-0.000
240.61	-0.000
240.83	-0.000
241.04	-0.000
241.25	-0.000
241.47	-0.000
241.68	-0.000
241.89	-0.000
242.11	-0.000
242.32	-0.000
242.53	-0.000
242.75	-0.000
242.96	-0.000
243.17	-0.000
243.39	-0.000
243.60	-0.000
243.81	-0.000
244.03	-0.000
244.24	-0.000
244.45	-0.000
244.67	-0.000
244.88	-0.000
245.09	-0.000
245.31	-0.000
245.52	-0.000
245.73	-0.000
245.95	-0.000
246.16	-0.000
246.37	-0.000
246.59	-0.000
246.80	-0.000
247.01	-0.000
247.23	-0.000
247.44	-0.000
247.65	-0.000
247.87	-0.000
248.08	-0.000
248.29	-0.000
248.51	-0.000
248.72	-0.000
248.93	-0.000
249.15	-0.000
249.36	-0.000
249.57	-0.000
249.78	-0.000
250.00	-0.000
250.21	-0.000
250.42	-0.000
250.64	-0.000
250.85	-0.000
251.06	-0.000
251.28	-0.000
251.49	-0.000
251.70	-0.000
251.92	-0.000
252.13	-0.000
252.34	-0.000
252.55	-0.000
252.77	-0.000
252.98	-0.000
253.19	-0.000
253.41	-0.000
253.62	-0.000
253.83	-0.000
254.05	-0.000
254.26	-0.000
254.47	-0.000
254.68	-0.000
254.90	-0.000
255.11	-0.000
255.32	-0.000
255.54	-0.000
255.75	-0.000
255.96	-0.000
256.17	-0.000
256.39	-0.000
256.60	-0.000
256.81	-0.000
257.03	-0.000
257.24	-0.000
257.45	-0.000
257.66	-0.000
257.88	-0.000
258.09	-0.000
258.30	-0.000
258.51	-0.000
258.73	-0.000
258.94	-0.000
259.15	-0.000
259.37	-0.000
259.58	-0.000
259.79	-0.000
260.00	-0.000
260.22	-0.000
260.43	-0.000
260.64	-0.000
260.85	-0.000
261.07	-0.000
261.28	-0.000
261.49	-0.000
261.71	-0.000
261.92	-0.000
262.13	-0.000
262.34	-0.000
262.56	-0.000
262.77	-0.000
262.98	-0.000
263.19	-0.000
263.41	-0.000
263.62	-0.000
263.83	-0.000
264.04	-0.000
264.26	-0.000
264.47	-0.000
264.68	-0.000
264.89	-0.000
265.11	-0.000
265.32	-0.000
265.53	-0.000
265.74	-0.000
265.96	-0.000
266.17	-0.000
266.38	-0.000
266.59	-0.000
266.81	-0.000
267.02	-0.000
267.23	-0.000
267.44	-0.000
267.65	-0.000
267.87	-0.000
268.08	-0.000
268.29	-0.000
268.50	-0.000
268.72	-0.000
268.93	-0.000
269.14	-0.000
269.35	-0.000
269.57	-0.000
269.78	-0.000
269.99	-0.000
270.20	-0.000
270.41	-0.000
270.63	-0.000
270.84	-0.000
271.05	-0.000
271.26	-0.000
271.48	-0.000
271.69	-0.000
271.90	-0.000
272.11	-0.000
272.32	-0.000
272.54	-0.000
272.75	-0.000
272.96	-0.000
273.17	-0.000
273.39	-0.000
273.60	-0.000
273.81	-0.000
274.02	-0.000
274.23	-0.000
274.45	-0.000
274.66	-0.000
274.87	-0.000
275.08	-0.000
275.29	-0.000
275.51	-0.000
275.72	-0.000
275.93	-0.000
276.14	-0.000
276.35	-0.000
276.57	-0.000
276.78	-0.000
276.99	-0.000
277.20	-0.000
277.41	-0.000
277.63	-0.000
277.84	-0.000
278.05	-0.000
278.26	-0.000
278.47	-0.000
278.69	-0.000
278.90	-0.000
279.11	-0.000
279.32	-0.000
279.53	-0.000
279.74	-0.000
279.96	-0.000
280.17	-0.000
280.38	-0.000
280.59	-0.000
280.80	-0.000
281.02	-0.000
281.23	-0.000
281.44	-0.000
281.65	-0.000
281.86	-0.000
282.07	-0.000
282.29	-0.000
282.50	-0.000
282.71	-0.000
282.92	-0.000
283.13	-0.000
283.35	-0.000
283.56	-0.000
283.77	-0.000
283.98	-0.000
284.19	-0.000
284.40	-0.000
284.62	-0.000
284.83	-0.000
285.04	-0.000
285.25	-0.000
285.46	-0.000
285.67	-0.000
285.88	-0.000
286.10	-0.000
286.31	-0.000
286.52	-0.000
286.73	-0.000
286.94	-0.000
287.15	-0.000
287.37	-0.000
287.58	-0.000
287.79	-0.000
288.00	-0.000
288.21	-0.000
288.42	-0.000
288.63	-0.000
288.85	-0.000
289.06	-0.000
289.27	-0.000
289.48	-0.000
289.69	-0.000
289.90	-0.000
290.11	-0.000
290.33	-0.000
290.54	-0.000
290.75	-0.000
290.96	-0.000
291.17	-0.000
291.38	-0.000
291.59	-0.000
291.81	-0.000
292.02	-0.000
292.23	-0.000
292.44	-0.000
292.65	-0.000
292.86	-0.000
293.07	-0.000
293.28	3.117
293.50	-0.000
293.71	-0.000
293.92	-0.000
294.13	-0.000
294.34	-0.000
294.55	-0.000
294.76	-0.000
294.97	-0.000
295.19	-0.000
295.40	-0.000
295.61	-0.000
295.82	-0.000
296.03	2.510
296.24	2.905
296.45	1.942
296.66	1.664
296.87	1.682
297.09	1.742
297.30	1.904
297.51	1.617
297.72	1.584
297.93	1.663
298.14	1.633
298.35	1.593
298.56	1.566
298.77	1.660
298.99	1.644
299.20	1.618
299.41	1.600
299.62	1.564
299.83	1.562
300.04	1.502
300.25	1.499
300.46	1.533
300.67	1.518
300.88	1.478
301.10	1.486
301.31	1.552
301.52	1.494
301.73	1.443
301.94	1.444
302.15	1.458
302.36	1.424
302.57	1.366
302.78	1.374
302.99	1.411
303.20	1.423
303.41	1.341
303.63	1.325
303.84	1.333
304.05	1.331
304.26	1.279
304.47	1.284
304.68	1.283
304.89	1.274
305.10	1.236
305.31	1.224
305.52	1.263
305.73	1.256
305.94	1.220
306.15	1.213
306.37	1.234
306.58	1.238
306.79	1.210
307.00	1.236
307.21	1.274
307.42	1.269
307.63	1.237
307.84	1.207
308.05	1.243
308.26	1.243
308.47	1.221
308.68	1.218
308.89	1.220
309.10	1.215
309.31	1.172
309.52	1.165
309.73	1.179
309.95	1.175
310.16	1.149
310.37	1.137
310.58	1.155
310.79	1.154
311.00	1.150
311.21	1.154
311.42	1.159
311.63	1.154
311.84	1.135
312.05	1.133
312.26	1.152
312.47	1.164
312.68	1.141
312.89	1.123
313.10	1.128
313.31	1.102
313.52	1.102
313.73	1.102
313.94	1.106
314.15	1.088
314.36	1.067
314.57	1.061
314.78	1.048
314.99	1.044
315.21	1.033
315.42	1.039
315.63	1.053
315.84	1.033
316.05	1.019
316.26	1.027
316.47	1.047
316.68	1.045
316.89	1.026
317.10	1.046
317.31	1.051
317.52	1.052
317.73	1.031
317.94	1.029
318.15	1.070
318.36	1.068
318.57	1.052
318.78	1.039
318.99	1.071
319.20	1.067
319.41	1.035
319.62	1.036
319.83	1.050
320.04	1.046
320.25	1.035
320.46	1.003
320.67	1.005
320.88	1.001
321.09	0.989
321.30	0.975
321.51	0.990
321.72	0.989
321.93	0.974
322.14	0.967
322.35	0.992
322.56	0.994
322.77	0.982
322.98	0.994
323.19	1.003
323.40	1.010
323.61	0.990
323.82	0.985
324.03	0.990
324.24	0.986
324.45	0.973
324.66	0.955
324.87	0.951
325.08	0.951
325.29	0.932
325.50	0.928
325.71	0.933
325.92	0.940
326.13	0.927
326.34	0.928
326.55	0.936
326.76	0.934
326.97	0.924
327.18	0.920
327.39	0.944
327.60	0.944
327.80	0.941
328.01	0.937
328.22	0.937
328.43	0.941
328.64	0.930
328.85	0.934
329.06	0.936
329.27	0.937
329.48	0.931
329.69	0.914
329.90	0.925
330.11	0.917
330.32	0.912
330.53	0.905
330.74	0.905
330.95	0.904
331.16	0.890
331.37	0.899
331.58	0.898
331.79	0.897
332.00	0.889
332.21	0.883
332.42	0.888
332.63	0.879
332.83	0.875
333.04	0.877
333.25	0.890
333.46	0.887
333.67	0.874
333.88	0.876
334.09	0.886
334.30	0.882
334.51	0.873
334.72	0.869
334.93	0.870
335.14	0.870
335.35	0.863
335.56	0.857
335.77	0.866
335.98	0.865
336.18	0.860
336.39	0.854
336.60	0.858
336.81	0.856
337.02	0.854
337.23	0.859
337.44	0.863
337.65	0.863
337.86	0.854
338.07	0.849
338.28	0.855
338.49	0.852
338.70	0.844
338.91	0.849
339.11	0.857
339.32	0.853
339.53	0.842
339.74	0.839
339.95	0.837
340.16	0.836
340.37	0.829
340.58	0.826
340.79	0.831
341.00	0.831
341.21	0.822
341.41	0.822
341.62	0.824
341.83	0.825
342.04	0.820
342.25	0.829
342.46	0.833
342.67	0.832
342.88	0.826
343.09	0.825
343.30	0.832
343.50	0.835
343.71	0.827
343.92	0.826
344.13	0.830
344.34	0.830
344.55	0.814
344.76	0.812
344.97	0.817
345.18	0.815
345.38	0.811
345.59	0.805
345.80	0.804
346.01	0.801
346.22	0.797
346.43	0.791
346.64	0.799
346.85	0.799
347.06	0.792
347.26	0.793
347.47	0.798
347.68	0.793
347.89	0.790
348.10	0.785
348.31	0.791
348.52	0.790
348.73	0.788
348.93	0.785
349.14	0.787
349.35	0.786
349.56	0.780
349.77	0.775
349.98	0.781
350.19	0.780
350.39	0.775
350.60	0.771
350.81	0.786
351.02	0.785
351.23	0.779
351.44	0.783
351.65	0.786
351.86	0.784
352.06	0.782
352.27	0.781
352.48	0.782
352.69	0.782
352.90	0.776
353.11	0.764
353.31	0.771
353.52	0.768
353.73	0.760
353.94	0.762
354.15	0.769
354.36	0.768
354.57	0.760
354.77	0.762
354.98	0.762
355.19	0.762
355.40	0.762
355.61	0.766
355.82	0.771
356.02	0.770
356.23	0.762
356.44	0.763
356.65	0.768
356.86	0.769
357.07	0.762
357.27	0.765
357.48	0.768
357.69	0.763
357.90	0.750
358.11	0.747
358.32	0.750
358.52	0.753
358.73	0.743
358.94	0.745
359.15	0.749
359.36	0.750
359.56	0.745
359.77	0.743
359.98	0.750
360.19	0.749
360.40	0.746
360.61	0.747
360.81	0.746
361.02	0.746
361.23	0.738
361.44	0.736
361.65	0.737
361.85	0.736
362.06	0.733
362.27	0.735
362.48	0.736
362.69	0.738
362.89	0.732
363.10	0.734
363.31	0.738
363.52	0.742
363.73	0.737
363.93	0.738
364.14	0.741
364.35	0.742
364.56	0.732
364.77	0.734
364.97	0.736
365.18	0.736
365.39	0.731
365.60	0.727
365.81	0.728
366.01	0.728
366.22	0.724
366.43	0.723
366.64	0.726
366.84	0.733
367.05	0.729
367.26	0.728
367.47	0.730
367.68	0.730
367.88	0.728
368.09	0.726
368.30	0.728
368.51	0.728
368.71	0.727
368.92	0.731
369.13	0.728
369.34	0.729
369.55	0.728
369.75	0.728
369.96	0.735
370.17	0.735
370.38	0.731
370.58	0.730
370.79	0.737
371.00	0.735
371.21	0.726
371.41	0.731
371.62	0.735
371.83	0.731
372.04	0.728
372.24	0.721
372.45	0.722
372.66	0.723
372.87	0.720
373.07	0.716
373.28	0.718
373.49	0.721
373.70	0.712
373.90	0.711
374.11	0.720
374.32	0.720
374.53	0.719
374.73	0.720
374.94	0.722
375.15	0.722
375.36	0.719
375.56	0.727
375.77	0.727
375.98	0.727
376.19	0.724
376.39	0.717
376.60	0.720
376.81	0.721
377.02	0.719
377.22	0.718
377.43	0.718
377.64	0.718
377.84	0.709
378.05	0.715
378.26	0.721
378.47	0.721
378.67	0.718
378.88	0.716
379.09	0.716
379.30	0.716
379.50	0.714
379.71	0.716
379.92	0.719
380.12	0.718
380.33	0.708
380.54	0.705
380.75	0.712
380.95	0.712
381.16	0.710
381.37	0.711
381.57	0.713
381.78	0.713
381.99	0.713
382.20	0.712
382.40	0.716
382.61	0.715
382.82	0.712
383.02	0.705
383.23	0.708
383.44	0.708
383.64	0.706
383.85	0.708
384.06	0.711
384.27	0.710
384.47	0.709
384.68	0.709
384.89	0.716
385.09	0.716
385.30	0.716
385.51	0.715
385.71	0.718
385.92	0.719
386.13	0.717
386.33	0.719
386.54	0.719
386.75	0.718
386.95	0.714
387.16	0.709
387.37	0.710
387.58	0.710
387.78	0.707
387.99	0.705
388.20	0.707
388.40	0.704
388.61	0.700
388.82	0.703
389.02	0.705
389.23	0.705
389.44	0.704
389.64	0.705
389.85	0.716
390.06	0.716
390.26	0.716
390.47	0.716
390.68	0.719
390.88	0.717
391.09	0.713
391.30	0.712
391.50	0.712
391.71	0.712
391.92	0.709
392.12	0.701
392.33	0.703
392.53	0.703
392.74	0.703
392.95	0.703
393.15	0.705
393.36	0.708
393.57	0.705
393.77	0.708
393.98	0.711
394.19	0.711
394.39	0.710
394.60	0.710
394.81	0.711
395.01	0.709
395.22	0.707
395.43	0.707
395.63	0.712
395.84	0.713
396.04	0.708
396.25	0.710
396.46	0.713
396.66	0.711
396.87	0.709
397.08	0.706
397.28	0.709
397.49	0.709
397.69	0.705
397.90	0.700
398.11	0.703
398.31	0.704
398.52	0.700
398.73	0.701
398.93	0.700
399.14	0.699
399.34	0.698
399.55	0.700
399.76	0.700
399.96	0.701
400.17	0.700
400.37	0.698
400.58	0.705
400.79	0.706
400.99	0.704
401.20	0.709
401.41	0.712
401.61	0.713
401.82	0.716
402.02	0.717
402.23	0.718
402.44	0.718
402.64	0.718
402.85	0.712
403.05	0.712
403.26	0.710
403.47	0.704
403.67	0.703
403.88	0.704
404.08	0.698
404.29	0.697
404.50	0.696
404.70	0.696
404.91	0.695
405.11	0.692
405.32	0.692
405.52	0.693
405.73	0.693
405.94	0.691
406.14	0.693
406.35	0.696
406.55	0.695
406.76	0.694
406.97	0.695
407.17	0.697
407.38	0.697
407.58	0.695
407.79	0.698
407.99	0.701
408.20	0.702
408.41	0.698
408.61	0.696
408.82	0.698
409.02	0.697
409.23	0.694
409.43	0.694
409.64	0.695
409.84	0.694
410.05	0.691
410.26	0.689
410.46	0.689
410.67	0.688
410.87	0.689
411.08	0.691
411.28	0.693
411.49	0.694
411.69	0.692
411.90	0.693
412.11	0.695
412.31	0.696
412.52	0.695
412.72	0.696
412.93	0.697
413.13	0.695
413.34	0.691
413.54	0.692
413.75	0.694
413.95	0.694
414.16	0.690
414.37	0.693
414.57	0.693
414.78	0.695
414.98	0.692
415.19	0.693
415.39	0.691
415.60	0.693
415.80	0.693
416.01	0.691
416.21	0.693
416.42	0.693
416.62	0.688
416.83	0.688
417.03	0.688
417.24	0.688
417.44	0.686
417.65	0.686
417.86	0.686
418.06	0.683
418.27	0.682
418.47	0.684
418.68	0.685
418.88	0.685
419.09	0.684
419.29	0.684
419.50	0.685
419.70	0.684
419.91	0.682
420.11	0.680
420.32	0.684
420.52	0.683
420.73	0.682
420.93	0.683
421.14	0.684
421.34	0.683
421.55	0.679
421.75	0.679
421.96	0.681
422.16	0.682
422.37	0.681
422.57	0.678
422.78	0.680
422.98	0.676
423.19	0.674
423.39	0.672
423.60	0.677
423.80	0.678
424.01	0.676
424.21	0.678
424.42	0.679
424.62	0.679
424.83	0.677
425.03	0.677
425.23	0.680
425.44	0.680
425.64	0.680
425.85	0.678
426.05	0.679
426.26	0.679
426.46	0.675
426.67	0.675
426.87	0.679
427.08	0.680
427.28	0.678
427.49	0.679
427.69	0.680
427.90	0.678
428.10	0.676
428.31	0.676
428.51	0.678
428.71	0.678
428.92	0.678
429.12	0.676
429.33	0.677
429.53	0.680
429.74	0.685
429.94	0.685
430.15	0.685
430.35	0.685
430.56	0.682
430.76	0.682
430.96	0.682
431.17	0.679
431.37	0.676
431.58	0.675
431.78	0.672
431.99	0.665
432.19	0.666
432.40	0.667
432.60	0.668
432.80	0.670
433.01	0.668
433.21	0.669
433.42	0.671
433.62	0.671
433.83	0.671
434.03	0.674
434.23	0.677
434.44	0.676
434.64	0.673
434.85	0.678
435.05	0.679
435.26	0.679
435.46	0.677
435.66	0.677
435.87	0.677
436.07	0.677
436.28	0.672
436.48	0.669
436.69	0.669
436.89	0.669
437.09	0.663
437.30	0.662
437.50	0.662
437.71	0.674
437.91	0.673
438.11	0.674
438.32	0.679
438.52	0.680
438.73	0.679
438.93	0.677
439.13	0.677
439.34	0.681
439.54	0.678
439.75	0.679
439.95	0.669
440.15	0.673
440.36	0.672
440.56	0.670
440.77	0.670
440.97	0.670
441.17	0.669
441.38	0.670
441.58	0.667
441.79	0.667
441.99	0.665
442.19	0.664
442.40	0.661
442.60	0.662
442.81	0.659
443.01	0.659
443.21	0.660
443.42	0.659
443.62	0.657
443.82	0.657
444.03	0.659
444.23	0.659
444.44	0.659
444.64	0.658
444.84	0.659
445.05	0.659
445.25	0.657
445.45	0.657
445.66	0.660
445.86	0.660
446.06	0.661
446.27	0.660
446.47	0.663
446.68	0.662
446.88	0.661
447.08	0.660
447.29	0.661
447.49	0.662
447.69	0.661
447.90	0.659
448.10	0.663
448.30	0.660
448.51	0.661
448.71	0.659
448.91	0.661
449.12	0.660
449.32	0.661
449.52	0.660
449.73	0.664
449.93	0.663
450.14	0.663
450.34	0.662
450.54	0.665
450.75	0.662
450.95	0.661
451.15	0.661
451.36	0.663
451.56	0.660
451.76	0.659
451.97	0.655
452.17	0.656
452.37	0.654
452.58	0.651
452.78	0.651
452.98	0.653
453.19	0.653
453.39	0.654
453.59	0.652
453.79	0.654
454.00	0.654
454.20	0.653
454.40	0.654
454.61	0.656
454.81	0.657
455.01	0.655
455.22	0.655
455.42	0.657
455.62	0.654
455.83	0.653
456.03	0.656
456.23	0.657
456.44	0.658
456.64	0.657
456.84	0.657
457.04	0.658
457.25	0.657
457.45	0.653
457.65	0.652
457.86	0.653
458.06	0.652
458.26	0.648
458.47	0.647
458.67	0.649
458.87	0.649
459.07	0.646
459.28	0.648
459.48	0.651
459.68	0.651
459.89	0.651
460.09	0.650
460.29	0.651
460.49	0.652
460.70	0.651
460.90	0.651
461.10	0.651
461.31	0.651
461.51	0.648
461.71	0.650
461.91	0.651
462.12	0.651
462.32	0.650
462.52	0.650
462.72	0.653
462.93	0.653
463.13	0.651
463.33	0.652
463.53	0.654
463.74	0.653
463.94	0.648
464.14	0.648
464.35	0.650
464.55	0.650
464.75	0.648
464.95	0.646
465.16	0.648
465.36	0.647
465.56	0.646
465.76	0.645
465.97	0.646
466.17	0.648
466.37	0.646
466.57	0.647
466.78	0.647
466.98	0.647
467.18	0.645
467.38	0.644
467.59	0.646
467.79	0.647
467.99	0.646
468.19	0.647
468.39	0.650
468.60	0.650
468.80	0.649
469.00	0.650
469.20	0.652
469.41	0.652
469.61	0.652
469.81	0.652
470.01	0.652
470.22	0.653
470.42	0.650
470.62	0.648
470.82	0.650
471.02	0.649
471.23	0.647
471.43	0.647
471.63	0.649
471.83	0.648
472.04	0.646
472.24	0.645
472.44	0.651
472.64	0.651
472.84	0.649
473.05	0.648
473.25	0.651
473.45	0.650
473.65	0.648
473.85	0.649
474.06	0.651
474.26	0.650
474.46	0.651
474.66	0.647
474.86	0.648
475.07	0.649
475.27	0.647
475.47	0.644
475.67	0.645
475.87	0.646
476.08	0.643
476.28	0.644
476.48	0.646
476.68	0.644
476.88	0.642
477.09	0.644
477.29	0.645
477.49	0.645
477.69	0.644
477.89	0.644
478.09	0.644
478.30	0.646
478.50	0.643
478.70	0.642
478.90	0.643
479.10	0.645
479.31	0.646
479.51	0.644
479.71	0.645
479.91	0.646
480.11	0.644
480.31	0.644
480.52	0.643
480.72	0.643
480.92	0.642
481.12	0.641
481.32	0.638
481.52	0.636
481.72	0.636
481.93	0.639
482.13	0.640
482.33	0.640
482.53	0.638
482.73	0.638
482.93	0.640
483.14	0.639
483.34	0.638
483.54	0.640
483.74	0.639
483.94	0.639
484.14	0.635
484.34	0.634
484.55	0.635
484.75	0.635
484.95	0.633
485.15	0.633
485.35	0.634
485.55	0.633
485.75	0.631
485.96	0.631
486.16	0.633
486.36	0.632
486.56	0.630
486.76	0.631
486.96	0.631
487.16	0.631
487.36	0.629
487.57	0.628
487.77	0.629
487.97	0.630
488.17	0.628
488.37	0.627
488.57	0.628
488.77	0.628
488.97	0.627
489.18	0.627
489.38	0.629
489.58	0.630
489.78	0.629
489.98	0.628
490.18	0.628
490.38	0.629
490.58	0.628
490.78	0.629
490.98	0.630
491.19	0.631
491.39	0.629
491.59	0.628
491.79	0.631
491.99	0.632
492.19	0.631
492.39	0.635
492.59	0.634
492.79	0.636
492.99	0.636
493.20	0.636
493.40	0.636
493.60	0.638
493.80	0.636
494.00	0.634
494.20	0.635
494.40	0.635
494.60	0.632
494.80	0.636
495.00	0.635
495.20	0.633
495.40	0.632
495.61	0.634
495.81	0.634
496.01	0.637
496.21	0.638
496.41	0.637
496.61	0.638
496.81	0.637
497.01	0.633
497.21	0.632
497.41	0.633
497.61	0.633
497.81	0.631
498.01	0.631
498.21	0.628
498.41	0.626
498.61	0.626
498.82	0.627
499.02	0.629
499.22	0.630
499.42	0.629
499.62	0.630
499.82	0.631
500.02	0.632
500.22	0.630
500.42	0.632
500.62	0.633
500.82	0.633
501.02	0.632
501.22	0.631
501.42	0.632
501.62	0.634
501.82	0.633
502.02	0.633
502.22	0.632
502.42	0.634
502.62	0.632
502.82	0.632
503.02	0.633
503.22	0.632
503.42	0.630
503.63	0.630
503.83	0.628
504.03	0.627
504.23	0.626
504.43	0.626
504.63	0.627
504.83	0.627
505.03	0.626
505.23	0.627
505.43	0.629
505.63	0.630
505.83	0.629
506.03	0.631
506.23	0.633
506.43	0.633
506.63	0.632
506.83	0.631
507.03	0.633
507.23	0.633
507.43	0.631
507.63	0.631
507.83	0.632
508.03	0.632
508.23	0.631
508.43	0.630
508.63	0.632
508.83	0.632
509.03	0.633
509.23	0.632
509.43	0.633
509.63	0.633
509.83	0.632
510.03	0.635
510.23	0.637
510.43	0.637
510.63	0.637
510.83	0.637
511.03	0.639
511.23	0.637
511.43	0.636
511.63	0.638
511.83	0.641
512.03	0.641
512.22	0.638
512.42	0.637
512.62	0.638
512.82	0.637
513.02	0.636
513.22	0.636
513.42	0.638
513.62	0.640
513.82	0.638
514.02	0.637
514.22	0.638
514.42	0.639
514.62	0.638
514.82	0.639
515.02	0.641
515.22	0.645
515.42	0.643
515.62	0.645
515.82	0.645
516.02	0.646
516.22	0.646
516.42	0.647
516.62	0.649
516.82	0.650
517.01	0.648
517.21	0.647
517.41	0.651
517.61	0.651
517.81	0.647
518.01	0.647
518.21	0.648
518.41	0.646
518.61	0.645
518.81	0.645
519.01	0.645
519.21	0.645
519.41	0.644
519.61	0.639
519.81	0.642
520.00	0.642
520.20	0.642
520.40	0.645
520.60	0.645
520.80	0.645
521.00	0.645
521.20	0.646
521.40	0.651
521.60	0.651
521.80	0.650
522.00	0.650
522.20	0.652
522.39	0.652
522.59	0.649
522.79	0.651
522.99	0.653
523.19	0.652
523.39	0.649
523.59	0.647
523.79	0.650
523.99	0.653
524.19	0.652
524.38	0.651
524.58	0.652
524.78	0.652
524.98	0.650
525.18	0.653
525.38	0.654
525.58	0.654
525.78	0.652
525.98	0.651
526.18	0.651
526.37	0.650
526.57	0.652
526.77	0.652
526.97	0.653
527.17	0.653
527.37	0.649
527.57	0.651
527.77	0.653
527.96	0.654
528.16	0.653
528.36	0.653
528.56	0.655
528.76	0.653
528.96	0.651
529.16	0.652
529.36	0.656
529.55	0.656
529.75	0.652
529.95	0.653
530.15	0.654
530.35	0.656
530.55	0.654
530.75	0.654
530.94	0.656
531.14	0.656
531.34	0.655
531.54	0.652
531.74	0.655
531.94	0.659
532.13	0.656
532.33	0.658
532.53	0.656
532.73	0.656
532.93	0.654
533.13	0.655
533.33	0.656
533.52	0.657
533.72	0.660
533.92	0.658
534.12	0.656
534.32	0.657
534.52	0.655
534.71	0.657
534.91	0.660
535.11	0.661
535.31	0.659
535.51	0.661
535.71	0.663
535.90	0.660
536.10	0.661
536.30	0.663
536.50	0.663
536.70	0.663
536.89	0.660
537.09	0.660
537.29	0.662
537.49	0.662
537.69	0.660
537.89	0.661
538.08	0.661
538.28	0.659
538.48	0.659
538.68	0.661
538.88	0.663
539.07	0.664
539.27	0.662
539.47	0.661
539.67	0.661
539.87	0.662
540.06	0.659
540.26	0.660
540.46	0.663
540.66	0.660
540.86	0.657
541.05	0.657
541.25	0.660
541.45	0.660
541.65	0.658
541.84	0.661
542.04	0.661
542.24	0.662
542.44	0.661
542.64	0.662
542.83	0.665
543.03	0.664
543.23	0.662
543.43	0.663
543.62	0.664
543.82	0.664
544.02	0.662
544.22	0.663
544.42	0.667
544.61	0.667
544.81	0.664
545.01	0.663
545.21	0.665
545.40	0.665
545.60	0.663
545.80	0.666
546.00	0.667
546.19	0.666
546.39	0.665
546.59	0.662
546.79	0.664
546.98	0.664
547.18	0.664
547.38	0.665
547.58	0.668
547.77	0.669
547.97	0.665
548.17	0.666
548.37	0.667
548.56	0.667
548.76	0.666
548.96	0.667
549.16	0.670
549.35	0.670
549.55	0.667
549.75	0.667
549.95	0.670
550.14	0.671
550.34	0.669
550.54	0.674
550.73	0.677
550.93	0.678
551.13	0.675
551.33	0.673
551.52	0.674
551.72	0.675
551.92	0.673
552.12	0.674
552.31	0.674
552.51	0.675
552.71	0.670
552.90	0.670
553.10	0.671
553.30	0.671
553.50	0.670
553.69	0.672
553.89	0.673
554.09	0.673
554.28	0.669
554.48	0.670
554.68	0.672
554.87	0.672
555.07	0.669
555.27	0.669
555.47	0.671
555.66	0.672
555.86	0.670
556.06	0.671
556.25	0.672
556.45	0.680
556.65	0.678
556.84	0.682
557.04	0.685
557.24	0.686
557.43	0.686
557.63	0.688
557.83	0.691
558.02	0.692
558.22	0.696
558.42	0.697
558.61	0.690
558.81	0.690
559.01	0.686
559.21	0.686
559.40	0.687
559.60	0.687
559.80	0.683
559.99	0.684
560.19	0.687
560.39	0.681
560.58	0.678
560.78	0.678
560.97	0.682
561.17	0.681
561.37	0.678
561.56	0.678
561.76	0.680
561.96	0.679
562.15	0.676
562.35	0.677
562.55	0.679
562.74	0.680
562.94	0.678
563.14	0.676
563.33	0.677
563.53	0.678
563.73	0.675
563.92	0.677
564.12	0.680
564.31	0.682
564.51	0.680
564.71	0.682
564.90	0.684
565.10	0.685
565.30	0.688
565.49	0.689
565.69	0.692
565.89	0.692
566.08	0.689
566.28	0.691
566.47	0.693
566.67	0.691
566.87	0.688
567.06	0.690
567.26	0.696
567.46	0.691
567.65	0.690
567.85	0.691
568.04	0.694
568.24	0.694
568.44	0.691
568.63	0.689
568.83	0.690
569.02	0.689
569.22	0.684
569.42	0.680
569.61	0.683
569.81	0.682
570.00	0.680
570.20	0.681
570.40	0.682
570.59	0.682
570.79	0.680
570.98	0.678
571.18	0.680
571.38	0.680
571.57	0.677
571.77	0.675
571.96	0.678
572.16	0.676
572.35	0.670
572.55	0.671
572.75	0.669
572.94	0.669
573.14	0.667
573.33	0.668
573.53	0.668
573.73	0.667
573.92	0.665
574.12	0.663
574.31	0.666
574.51	0.667
574.70	0.664
574.90	0.666
575.09	0.668
575.29	0.668
575.49	0.665
575.68	0.666
575.88	0.667
576.07	0.669
576.27	0.666
576.46	0.665
576.66	0.664
576.86	0.664
577.05	0.661
577.25	0.659
577.44	0.662
577.64	0.661
577.83	0.659
578.03	0.661
578.22	0.660
578.42	0.659
578.61	0.658
578.81	0.659
579.00	0.659
579.20	0.659
579.40	0.658
579.59	0.656
579.79	0.657
579.98	0.656
580.18	0.655
580.37	0.656
580.57	0.658
580.76	0.663
580.96	0.661
581.15	0.662
581.35	0.664
581.54	0.663
581.74	0.663
581.93	0.665
582.13	0.666
582.32	0.663
582.52	0.661
582.71	0.661
582.91	0.657
583.10	0.657
583.30	0.655
583.49	0.655
583.69	0.659
583.88	0.660
584.08	0.658
584.27	0.661
584.47	0.664
584.66	0.664
584.86	0.663
585.05	0.665
585.25	0.668
585.44	0.667
585.64	0.665
585.83	0.662
586.03	0.663
586.22	0.661
586.42	0.657
586.61	0.659
586.81	0.661
587.00	0.661
587.20	0.659
587.39	0.660
587.59	0.662
587.78	0.664
587.98	0.664
588.17	0.664
588.37	0.667
588.56	0.668
588.76	0.664
588.95	0.665
589.15	0.668
589.34	0.671
589.54	0.668
589.73	0.669
589.92	0.672
590.12	0.672
590.31	0.670
590.51	0.676
590.70	0.678
590.90	0.678
591.09	0.676
591.29	0.675
591.48	0.675
591.68	0.676
591.87	0.674
592.06	0.674
592.26	0.676
592.45	0.675
592.65	0.669
592.84	0.669
593.04	0.671
593.23	0.672
593.43	0.670
593.62	0.670
593.81	0.670
594.01	0.670
594.20	0.667
594.40	0.666
594.59	0.668
594.79	0.670
594.98	0.668
595.17	0.667
595.37	0.669
595.56	0.671
595.76	0.669
595.95	0.671
596.14	0.674
596.34	0.675
596.53	0.674
596.73	0.675
596.92	0.676
597.12	0.678
597.31	0.678
597.50	0.677
597.70	0.680
597.89	0.679
598.09	0.676
598.28	0.677
598.47	0.680
598.67	0.678
598.86	0.675
599.06	0.676
599.25	0.676
599.44	0.675
599.64	0.672
599.83	0.669
600.03	0.673
600.22	0.673
600.41	0.673
600.61	0.671
600.80	0.673
601.00	0.673
601.19	0.669
601.38	0.668
601.58	0.670
601.77	0.671
601.96	0.673
602.16	0.673
602.35	0.682
602.55	0.680
602.74	0.680
602.93	0.682
603.13	0.687
603.32	0.688
603.51	0.687
603.71	0.690
603.90	0.692
604.09	0.693
604.29	0.690
604.48	0.684
604.68	0.686
604.87	0.685
605.06	0.681
605.26	0.678
605.45	0.678
605.64	0.678
605.84	0.673
606.03	0.673
606.22	0.672
606.42	0.671
606.61	0.668
606.80	0.667
607.00	0.670
607.19	0.670
607.38	0.669
607.58	0.671
607.77	0.674
607.96	0.673
608.16	0.672
608.35	0.677
608.54	0.680
608.74	0.683
608.93	0.688
609.12	0.690
609.32	0.693
609.51	0.696
609.70	0.695
609.90	0.696
610.09	0.700
610.28	0.705
610.48	0.697
610.67	0.699
610.86	0.700
611.06	0.694
611.25	0.692
611.44	0.692
611.64	0.692
611.83	0.695
612.02	0.691
612.21	0.689
612.41	0.688
612.60	0.688
612.79	0.684
612.99	0.684
613.18	0.686
613.37	0.684
613.57	0.682
613.76	0.684
613.95	0.681
614.14	0.681
614.34	0.678
614.53	0.679
614.72	0.681
614.92	0.681
615.11	0.678
615.30	0.675
615.49	0.676
615.69	0.678
615.88	0.675
616.07	0.676
616.26	0.679
616.46	0.680
616.65	0.678
616.84	0.677
617.04	0.679
617.23	0.683
617.42	0.683
617.61	0.688
617.81	0.689
618.00	0.691
618.19	0.689
618.38	0.692
618.58	0.696
618.77	0.697
618.96	0.696
619.15	0.698
619.35	0.700
619.54	0.701
619.73	0.696
619.92	0.698
620.12	0.702
620.31	0.702
620.50	0.697
620.69	0.697
620.89	0.699
621.08	0.700
621.27	0.700
621.46	0.699
621.66	0.703
621.85	0.702
622.04	0.698
622.23	0.699
622.43	0.701
622.62	0.700
622.81	0.700
623.00	0.699
623.19	0.703
623.39	0.702
623.58	0.698
623.77	0.697
623.96	0.701
624.16	0.701
624.35	0.695
624.54	0.698
624.73	0.702
624.92	0.699
625.12	0.697
625.31	0.697
625.50	0.700
625.69	0.700
625.88	0.696
626.08	0.695
626.27	0.697
626.46	0.698
626.65	0.694
626.84	0.694
627.04	0.700
627.23	0.700
627.42	0.696
627.61	0.697
627.80	0.701
628.00	0.701
628.19	0.699
628.38	0.702
628.57	0.705
628.76	0.705
628.96	0.701
629.15	0.702
629.34	0.705
629.53	0.706
629.72	0.700
629.91	0.700
630.11	0.705
630.30	0.706
630.49	0.708
630.68	0.709
630.87	0.713
631.06	0.714
631.26	0.709
631.45	0.710
631.64	0.718
631.83	0.719
632.02	0.716
632.21	0.714
632.41	0.720
632.60	0.714
632.79	0.712
632.98	0.712
633.17	0.714
633.36	0.715
633.55	0.712
633.75	0.709
633.94	0.712
634.13	0.713
634.32	0.711
634.51	0.706
634.70	0.709
634.89	0.709
635.09	0.705
635.28	0.706
635.47	0.708
635.66	0.710
635.85	0.705
636.04	0.707
636.23	0.711
636.43	0.711
636.62	0.709
636.81	0.708
637.00	0.711
637.19	0.714
637.38	0.710
637.57	0.710
637.76	0.712
637.95	0.713
638.15	0.709
638.34	0.707
638.53	0.711
638.72	0.712
638.91	0.710
639.10	0.707
639.29	0.709
639.48	0.710
639.67	0.710
639.87	0.709
640.06	0.714
640.25	0.713
640.44	0.713
640.63	0.713
640.82	0.716
641.01	0.715
641.20	0.715
641.39	0.716
641.58	0.718
641.78	0.717
641.97	0.712
642.16	0.725
642.35	0.727
642.54	0.726
642.73	0.720
642.92	0.719
643.11	0.724
643.30	0.723
643.49	0.718
643.68	0.721
643.87	0.722
644.06	0.722
644.25	0.702
644.45	0.705
644.64	0.706
644.83	0.708
645.02	0.704
645.21	0.702
645.40	0.704
645.59	0.704
645.78	0.698
645.97	0.700
646.16	0.702
646.35	0.702
646.54	0.699
646.73	0.701
646.92	0.704
647.11	0.703
647.30	0.699
647.49	0.701
647.68	0.701
647.88	0.700
648.07	0.693
648.26	0.696
648.45	0.698
648.64	0.695
648.83	0.692
649.02	0.693
649.21	0.703
649.40	0.701
649.59	0.697
649.78	0.698
649.97	0.712
650.16	0.712
650.35	0.706
650.54	0.709
650.73	0.717
650.92	0.714
651.11	0.707
651.30	0.705
651.49	0.711
651.68	0.711
651.87	0.707
652.06	0.697
652.25	0.700
652.44	0.701
652.63	0.698
652.82	0.698
653.01	0.697
653.20	0.696
653.39	0.684
653.58	0.681
653.77	0.680
653.96	0.676
654.15	0.668
654.34	0.666
654.53	0.662
654.72	0.656
654.91	0.647
655.10	0.643
655.29	0.642
655.48	0.640
655.67	0.635
655.86	0.633
656.05	0.631
656.24	0.631
656.43	0.626
656.62	0.625
656.81	0.625
657.00	0.624
657.19	0.620
657.38	0.620
657.57	0.620
657.76	0.622
657.95	0.619
658.14	0.623
658.33	0.626
658.51	0.630
658.70	0.630
658.89	0.632
659.08	0.641
659.27	0.649
659.46	0.648
659.65	0.654
659.84	0.658
660.03	0.660
660.22	0.661
660.41	0.665
660.60	0.664
660.79	0.666
660.98	0.672
661.17	0.671
661.36	0.670
661.55	0.672
661.74	0.669
661.92	0.672
662.11	0.675
662.30	0.673
662.49	0.666
662.68	0.666
662.87	0.669
663.06	0.663
663.25	0.663
663.44	0.664
663.63	0.665
663.82	0.663
664.01	0.657
664.20	0.656
664.38	0.657
664.57	0.658
664.76	0.657
664.95	0.657
665.14	0.662
665.33	0.657
665.52	0.663
665.71	0.667
665.90	0.667
666.09	0.668
666.28	0.666
666.46	0.665
666.65	0.666
666.84	0.664
667.03	0.658
667.22	0.656
667.41	0.660
667.60	0.651
667.79	0.643
667.98	0.645
668.16	0.647
668.35	0.646
668.54	0.642
668.73	0.645
668.92	0.646
669.11	0.645
669.30	0.639
669.49	0.635
669.67	0.637
669.86	0.639
670.05	0.636
670.24	0.634
670.43	0.632
670.62	0.630
670.81	0.624
671.00	0.625
671.18	0.625
671.37	0.625
671.56	0.623
671.75	0.622
671.94	0.619
672.13	0.617
672.32	0.613
672.50	0.612
672.69	0.614
672.88	0.614
673.07	0.610
673.26	0.612
673.45	0.613
673.63	0.612
673.82	0.609
674.01	0.610
674.20	0.609
674.39	0.609
674.58	0.609
674.76	0.608
674.95	0.607
675.14	0.607
675.33	0.603
675.52	0.601
675.71	0.602
675.89	0.601
676.08	0.596
676.27	0.596
676.46	0.596
676.65	0.595
676.84	0.595
677.02	0.596
677.21	0.599
677.40	0.598
677.59	0.594
677.78	0.595
677.96	0.597
678.15	0.597
678.34	0.595
678.53	0.596
678.72	0.597
678.90	0.594
679.09	0.590
679.28	0.586
679.47	0.586
679.66	0.586
679.84	0.583
680.03	0.581
680.22	0.579
680.41	0.581
680.60	0.577
680.78	0.576
680.97	0.579
681.16	0.579
681.35	0.578
681.53	0.577
681.72	0.578
681.91	0.580
682.10	0.579
682.29	0.581
682.47	0.579
682.66	0.579
682.85	0.577
683.04	0.576
683.22	0.576
683.41	0.577
683.60	0.575
683.79	0.576
683.97	0.575
684.16	0.574
684.35	0.570
684.54	0.571
684.72	0.572
684.91	0.572
685.10	0.570
685.29	0.571
685.47	0.569
685.66	0.568
685.85	0.565
686.04	0.565
686.22	0.568
686.41	0.570
686.60	0.567
686.79	0.570
686.97	0.571
687.16	0.573
687.35	0.570
687.54	0.573
687.72	0.577
687.91	0.577
688.10	0.578
688.29	0.577
688.47	0.575
688.66	0.575
688.85	0.571
689.03	0.568
689.22	0.573
689.41	0.573
689.60	0.568
689.78	0.565
689.97	0.567
690.16	0.564
690.34	0.560
690.53	0.560
690.72	0.560
690.91	0.558
691.09	0.556
691.28	0.550
691.47	0.548
691.65	0.548
691.84	0.544
692.03	0.543
692.21	0.541
692.40	0.541
692.59	0.538
692.77	0.537
692.96	0.539
693.15	0.540
693.34	0.538
693.52	0.537
693.71	0.538
693.90	0.539
694.08	0.539
694.27	0.540
694.46	0.549
694.64	0.550
694.83	0.549
695.02	0.548
695.20	0.548
695.39	0.548
695.58	0.548
695.76	0.548
695.95	0.548
696.14	0.547
696.32	0.546
696.51	0.536
696.70	0.537
696.88	0.537
697.07	0.536
697.26	0.537
697.44	0.539
697.63	0.538
697.81	0.535
698.00	0.535
698.19	0.534
698.37	0.534
698.56	0.534
698.75	0.534
698.93	0.534
699.12	0.534
699.31	0.532
699.49	0.532
699.68	0.533
699.87	0.536
700.05	0.536
700.24	0.535
700.42	0.537
700.61	0.536
700.80	0.534
700.98	0.534
701.17	0.535
701.36	0.534
701.54	0.533
701.73	0.534
701.91	0.531
702.10	0.531
702.29	0.529
702.47	0.528
702.66	0.529
702.84	0.530
703.03	0.528
703.22	0.530
703.40	0.530
703.59	0.532
703.77	0.531
703.96	0.530
704.15	0.532
704.33	0.532
704.52	0.531
704.70	0.530
704.89	0.530
705.08	0.529
705.26	0.525
705.45	0.524
705.63	0.524
705.82	0.521
706.00	0.520
706.19	0.519
706.38	0.519
706.56	0.518
706.75	0.516
706.93	0.515
707.12	0.516
707.30	0.517
707.49	0.515
707.68	0.513
707.86	0.513
708.05	0.513
708.23	0.511
708.42	0.511
708.60	0.514
708.79	0.514
708.98	0.513
709.16	0.512
709.35	0.515
709.53	0.518
709.72	0.517
709.90	0.519
710.09	0.520
710.27	0.522
710.46	0.526
710.64	0.524
710.83	0.526
711.02	0.527
711.20	0.525
711.39	0.522
711.57	0.521
711.76	0.521
711.94	0.519
712.13	0.520
712.31	0.520
712.50	0.516
712.68	0.513
712.87	0.513
713.05	0.514
713.24	0.514
713.42	0.513
713.61	0.514
713.79	0.515
713.98	0.515
714.16	0.516
714.35	0.515
714.54	0.516
714.72	0.516
714.91	0.514
715.09	0.521
715.28	0.525
715.46	0.524
715.65	0.522
715.83	0.521
716.02	0.524
716.20	0.520
716.39	0.519
716.57	0.520
716.76	0.522
716.94	0.522
717.12	0.514
717.31	0.515
717.49	0.518
717.68	0.521
717.86	0.520
718.05	0.522
718.23	0.525
718.42	0.527
718.60	0.528
718.79	0.537
718.97	0.540
719.16	0.539
719.34	0.537
719.53	0.536
719.71	0.536
719.90	0.537
720.08	0.534
720.27	0.534
720.45	0.534
720.63	0.532
720.82	0.525
721.00	0.529
721.19	0.532
721.37	0.532
721.56	0.532
721.74	0.535
721.93	0.544
722.11	0.551
722.30	0.549
722.48	0.553
722.66	0.555
722.85	0.556
723.03	0.555
723.22	0.554
723.40	0.556
723.59	0.557
723.77	0.559
723.95	0.553
724.14	0.554
724.32	0.556
724.51	0.555
724.69	0.557
724.88	0.557
725.06	0.555
725.24	0.556
725.43	0.558
725.61	0.560
725.80	0.555
725.98	0.551
726.16	0.549
726.35	0.554
726.53	0.554
726.72	0.551
726.90	0.562
727.09	0.563
727.27	0.568
727.45	0.565
727.64	0.573
727.82	0.582
728.01	0.587
728.19	0.584
728.37	0.588
728.56	0.592
728.74	0.599
728.92	0.587
729.11	0.590
729.29	0.589
729.48	0.591
729.66	0.580
729.84	0.580
730.03	0.583
730.21	0.586
730.40	0.576
730.58	0.578
730.76	0.578
730.95	0.580
731.13	0.578
731.31	0.591
731.50	0.599
731.68	0.604
731.86	0.599
732.05	0.614
732.23	0.617
732.42	0.622
732.60	0.625
732.78	0.630
732.97	0.648
733.15	0.655
733.33	0.643
733.52	0.650
733.70	0.661
733.88	0.668
734.07	0.652
734.25	0.676
734.43	0.682
734.62	0.683
734.80	0.678
734.98	0.668
735.17	0.674
735.35	0.679
735.53	0.667
735.72	0.669
735.90	0.690
736.08	0.709
736.27	0.687
736.45	0.696
736.63	0.706
736.82	0.715
737.00	0.714
737.18	0.726
737.37	0.758
737.55	0.781
737.73	0.774
737.92	0.778
738.10	0.775
738.28	0.795
738.46	0.781
738.65	0.797
738.83	0.819
739.01	0.874
739.20	0.860
739.38	0.842
739.56	0.834
739.75	0.839
739.93	0.803
740.11	0.825
740.29	0.826
740.48	0.831
740.66	0.809
740.84	0.803
741.03	0.769
741.21	0.778
741.39	0.761
741.57	0.774
741.76	0.790
741.94	0.798
742.12	0.767
742.31	0.773
742.49	0.795
742.67	0.817
742.85	0.832
743.04	0.837
743.22	0.850
743.40	0.902
743.58	0.882
743.77	0.900
743.95	0.934
744.13	0.979
744.31	0.957
744.50	0.951
744.68	0.950
744.86	0.919
745.04	0.925
745.23	0.983
745.41	0.968
745.59	0.978
745.77	0.941
745.96	0.932
746.14	0.940
746.32	0.940
746.50	0.929
746.69	0.913
746.87	0.929
747.05	0.915
747.23	0.843
747.42	0.827
747.60	0.851
747.78	0.858
747.96	0.880
748.14	0.837
748.33	0.865
748.51	0.856
748.69	0.848
748.87	0.870
749.06	0.870
749.24	0.869
749.42	0.854
749.60	0.834
749.78	0.840
749.97	0.800
750.15	0.798
750.33	0.796
750.51	0.826
750.69	0.833
750.88	0.835
751.06	0.849
751.24	0.876
751.42	0.872
751.60	0.864
751.79	0.932
751.97	0.974
752.15	0.973
752.33	0.939
752.51	0.999
752.69	1.013
752.88	0.981
753.06	1.014
753.24	0.990
753.42	1.026
753.60	1.179
753.78	1.048
753.97	1.074
754.15	1.098
754.33	1.127
754.51	1.004
754.69	0.988
754.87	1.027
755.06	0.962
755.24	0.960
755.42	0.963
755.60	0.874
755.78	0.881
755.96	0.828
756.15	0.825
756.33	0.832
756.51	0.849
756.69	0.837
756.87	0.804
757.05	0.822
757.23	0.809
757.42	0.780
757.60	0.775
757.78	0.766
757.96	0.763
758.14	0.748
758.32	0.734
758.50	0.745
758.69	0.744
758.87	0.734
759.05	0.740
759.23	0.750
759.41	0.749
759.59	0.739
759.77	0.759
759.95	0.787
760.13	0.832
760.32	0.831
760.50	0.825
760.68	0.850
760.86	0.850
761.04	0.821
761.22	0.823
761.40	0.872
761.58	0.877
761.76	0.851
761.95	0.832
762.13	0.794
762.31	0.797
762.49	0.768
762.67	0.783
762.85	0.800
763.03	0.795
763.21	0.778
763.39	0.756
763.57	0.760
763.75	0.756
763.94	0.742
764.12	0.740
764.30	0.764
764.48	0.769
764.66	0.734
764.84	0.729
765.02	0.769
765.20	0.777
765.38	0.759
765.56	0.764
765.74	0.802
765.92	0.804
766.10	0.810
766.28	0.801
766.46	0.825
766.65	0.828
766.83	0.814
767.01	0.795
767.19	0.800
767.37	0.801
767.55	0.787
767.73	0.768
767.91	0.772
768.09	0.760
768.27	0.748
768.45	0.740
768.63	0.742
768.81	0.746
768.99	0.721
769.17	0.747
769.35	0.759
769.53	0.758
769.71	0.739
769.89	0.744
770.07	0.749
770.25	0.735
770.43	0.714
770.61	0.738
770.79	0.744
770.97	0.755
771.15	0.724
771.33	0.728
771.51	0.731
771.69	0.739
771.87	0.750
772.05	0.755
772.24	0.764
772.42	0.773
772.60	0.751
772.78	0.806
772.96	0.831
773.14	0.825
773.32	0.804
773.49	0.814
773.67	0.814
773.85	0.791
774.03	0.780
774.21	0.810
774.39	0.824
774.57	0.849
774.75	0.779
774.93	0.775
775.11	0.794
775.29	0.800
775.47	0.797
775.65	0.807
775.83	0.823
776.01	0.846
776.19	0.798
776.37	0.798
776.55	0.797
776.73	0.794
776.91	0.788
777.09	0.774
777.27	0.776
777.45	0.762
777.63	0.742
777.81	0.740
777.99	0.727
778.17	0.726
778.35	0.706
778.53	0.694
778.71	0.700
778.89	0.687
779.07	0.675
779.24	0.678
779.42	0.681
779.60	0.697
779.78	0.691
779.96	0.697
780.14	0.707
780.32	0.725
780.50	0.707
780.68	0.707
780.86	0.702
781.04	0.722
781.22	0.725
781.40	0.738
781.58	0.730
781.75	0.726
781.93	0.708
782.11	0.708
782.29	0.696
782.47	0.697
782.65	0.682
782.83	0.708
783.01	0.702
783.19	0.694
783.37	0.679
783.55	0.683
783.72	0.698
783.90	0.710
784.08	0.702
784.26	0.713
784.44	0.733
784.62	0.738
784.80	0.707
784.98	0.710
785.16	0.719
785.33	0.732
785.51	0.717
785.69	0.705
785.87	0.704
786.05	0.714
786.23	0.709
786.41	0.704
786.59	0.711
786.77	0.712
786.94	0.701
787.12	0.704
787.30	0.705
787.48	0.703
787.66	0.691
787.84	0.692
788.02	0.683
788.19	0.680
788.37	0.668
788.55	0.668
788.73	0.668
788.91	0.661
789.09	0.643
789.27	0.634
789.44	0.646
789.62	0.650
789.80	0.657
789.98	0.681
790.16	0.670
790.34	0.666
790.51	0.655
790.69	0.673
790.87	0.681
791.05	0.678
791.23	0.672
791.41	0.673
791.58	0.682
791.76	0.662
791.94	0.632
792.12	0.642
792.30	0.645
792.48	0.642
792.65	0.635
792.83	0.641
793.01	0.650
793.19	0.648
793.37	0.634
793.54	0.630
793.72	0.641
793.90	0.643
794.08	0.631
794.26	0.633
794.43	0.643
794.61	0.626
794.79	0.615
794.97	0.612
795.15	0.618
795.32	0.620
795.50	0.611
795.68	0.604
795.86	0.608
796.04	0.609
796.21	0.603
796.39	0.600
796.57	0.615
796.75	0.623
796.92	0.624
797.10	0.629
797.28	0.632
797.46	0.636
797.64	0.638
797.81	0.644
797.99	0.651
798.17	0.655
798.35	0.648
798.52	0.652
798.70	0.647
798.88	0.656
799.06	0.654
799.23	0.655
799.41	0.663
799.59	0.656
799.77	0.644
799.94	0.651
800.12	0.660
800.30	0.676
800.48	0.674
800.65	0.675
800.83	0.665
801.01	0.658
801.19	0.659
801.36	0.653
801.54	0.657
801.72	0.668
801.90	0.655
802.07	0.650
802.25	0.637
802.43	0.621
802.60	0.617
802.78	0.624
802.96	0.630
803.14	0.622
803.31	0.620
803.49	0.620
803.67	0.615
803.84	0.619
804.02	0.612
804.20	0.615
804.38	0.622
804.55	0.621
804.73	0.607
804.91	0.606
805.08	0.620
805.26	0.617
805.44	0.679
805.61	0.683
805.79	0.683
805.97	0.683
806.15	0.672
806.32	0.666
806.50	0.671
806.68	0.670
806.85	0.661
807.03	0.652
807.21	0.670
807.38	0.604
807.56	0.594
807.74	0.604
807.91	0.609
808.09	0.613
808.27	0.631
808.44	0.656
808.62	0.668
808.80	0.669
808.97	0.665
809.15	0.657
809.33	0.675
809.50	0.681
809.68	0.666
809.86	0.675
810.03	0.707
810.21	0.688
810.39	0.671
810.56	0.676
810.74	0.700
810.91	0.769
811.09	0.757
811.27	0.776
811.44	0.781
811.62	0.784
811.80	0.767
811.97	0.736
812.15	0.738
812.33	0.734
812.50	0.719
812.68	0.707
812.85	0.652
813.03	0.654
813.21	0.623
813.38	0.618
813.56	0.623
813.74	0.631
813.91	0.638
814.09	0.665
814.26	0.661
814.44	0.664
814.62	0.655
814.79	0.658
814.97	0.666
815.14	0.670
815.32	0.674
815.50	0.688
815.67	0.687
815.85	0.679
816.02	0.668
816.20	0.673
816.38	0.686
816.55	0.690
816.73	0.690
816.90	0.699
817.08	0.727
817.26	0.731
817.43	0.711
817.61	0.738
817.78	0.760
817.96	0.741
818.13	0.732
818.31	0.734
818.49	0.748
818.66	0.738
818.84	0.720
819.01	0.702
819.19	0.709
819.36	0.709
819.54	0.680
819.71	0.718
819.89	0.729
820.07	0.739
820.24	0.733
820.42	0.732
820.59	0.753
820.77	0.775
820.94	0.764
821.12	0.781
821.29	0.800
821.47	0.803
821.64	0.741
821.82	0.753
822.00	0.751
822.17	0.747
822.35	0.740
822.52	0.741
822.70	0.732
822.87	0.740
823.05	0.719
823.22	0.728
823.40	0.752
823.57	0.777
823.75	0.759
823.92	0.783
824.10	0.805
824.27	0.843
824.45	0.834
824.62	0.894
824.80	0.909
824.97	0.927
825.15	0.914
825.32	0.922
825.50	0.919
825.67	0.927
825.85	0.903
826.02	0.915
826.20	0.938
826.37	1.053
826.55	0.972
826.72	1.151
826.90	1.220
827.07	1.261
827.25	1.224
827.42	1.379
827.60	1.523
827.77	1.717
827.95	1.666
828.12	1.760
828.30	1.397
828.47	1.534
828.65	1.169
828.82	1.218
829.00	1.287
829.17	1.345
829.34	1.324
829.52	1.361
829.69	-0.000
829.87	-0.000
830.04	-0.000
830.22	-0.000
830.39	-0.000
830.57	-0.000
830.74	-0.000
830.92	-0.000
831.09	-0.000
831.26	-0.000
831.44	-0.000
831.61	-0.000
831.79	-0.000
831.96	-0.000
832.14	-0.000
832.31	-0.000
832.49	-0.000
832.66	-0.000
832.83	-0.000
833.01	-0.000
833.18	-0.000
833.36	-0.000
833.53	-0.000
833.70	-0.000
833.88	-0.000
834.05	-0.000
834.23	-0.000
834.40	-0.000
834.58	-0.000
834.75	-0.000
834.92	-0.000
835.10	-0.000
835.27	-0.000
835.45	-0.000
835.62	-0.000
835.79	-0.000
835.97	-0.000
836.14	-0.000
836.32	-0.000
836.49	-0.000
836.66	-0.000
836.84	-0.000
837.01	-0.000
837.18	-0.000
837.36	-0.000
837.53	-0.000
837.71	-0.000
837.88	-0.000
838.05	-0.000
838.23	-0.000
838.40	-0.000
838.58	-0.000
838.75	-0.000
838.92	-0.000
839.10	-0.000
839.27	-0.000
839.44	-0.000
839.62	-0.000
839.79	-0.000
839.96	-0.000
840.14	-0.000
840.31	-0.000
840.48	-0.000
840.66	-0.000
840.83	-0.000
841.01	-0.000
841.18	-0.000
841.35	-0.000
841.53	-0.000
841.70	-0.000
841.87	-0.000
842.05	-0.000
842.22	-0.000
842.39	-0.000
842.57	-0.000
842.74	-0.000
842.91	-0.000
843.09	-0.000
843.26	-0.000
843.43	-0.000
843.60	-0.000
843.78	-0.000
843.95	-0.000
844.12	-0.000
844.30	-0.000
844.47	-0.000
844.64	-0.000
844.82	-0.000
844.99	-0.000
845.16	-0.000
845.34	-0.000
845.51	-0.000
845.68	-0.000
845.85	-0.000
846.03	-0.000
846.20	-0.000
846.37	-0.000
846.55	-0.000
846.72	-0.000
846.89	-0.000
847.06	-0.000
847.24	-0.000
847.41	-0.000
847.58	-0.000
847.76	-0.000
847.93	-0.000
848.10	-0.000
848.27	-0.000
848.45	-0.000
848.62	-0.000
848.79	-0.000
848.97	-0.000
849.14	-0.000
849.31	-0.000
849.48	-0.000
849.66	-0.000
849.83	-0.000
850.00	-0.000
850.17	-0.000
850.35	-0.000
850.52	-0.000
850.69	-0.000
850.86	-0.000
851.04	-0.000
851.21	-0.000
851.38	-0.000
851.55	-0.000
851.72	-0.000
851.90	-0.000
852.07	-0.000
852.24	-0.000
852.41	-0.000
852.59	-0.000
852.76	-0.000
852.93	-0.000
853.10	-0.000
853.28	-0.000
853.45	-0.000
853.62	-0.000
853.79	-0.000
853.96	-0.000
854.14	-0.000
854.31	-0.000
854.48	-0.000
854.65	-0.000
854.82	-0.000
855.00	-0.000
855.17	-0.000
855.34	-0.000
855.51	-0.000
855.68	-0.000
855.86	-0.000
856.03	-0.000
856.20	-0.000
856.37	-0.000
856.54	-0.000
856.72	-0.000
856.89	-0.000
857.06	-0.000
857.23	-0.000
857.40	-0.000
857.57	-0.000
857.75	-0.000
857.92	-0.000
858.09	-0.000
858.26	-0.000
858.43	-0.000
858.60	-0.000
858.78	-0.000
858.95	-0.000
859.12	-0.000
859.29	-0.000
859.46	-0.000
859.63	-0.000
859.81	-0.000
859.98	-0.000
860.15	-0.000
860.32	-0.000
860.49	-0.000
860.66	-0.000
860.83	-0.000
861.01	-0.000
861.18	-0.000
861.35	-0.000
861.52	-0.000
861.69	-0.000
861.86	-0.000
862.03	-0.000
862.21	-0.000
862.38	-0.000
862.55	-0.000
862.72	-0.000
862.89	-0.000
863.06	-0.000
863.23	-0.000
863.40	-0.000
863.58	-0.000
863.75	-0.000
863.92	-0.000
864.09	-0.000
864.26	-0.000
864.43	-0.000
864.60	-0.000
864.77	-0.000
864.94	-0.000
865.11	-0.000
865.29	-0.000
865.46	-0.000
865.63	-0.000
865.80	-0.000
865.97	-0.000
866.14	-0.000
866.31	-0.000
866.48	-0.000
866.65	-0.000
866.82	-0.000
866.99	-0.000
867.16	-0.000
867.34	-0.000
867.51	-0.000
867.68	-0.000
867.85	-0.000
868.02	-0.000
868.19	-0.000
868.36	-0.000
868.53	-0.000
868.70	-0.000
868.87	-0.000
869.04	-0.000
869.21	-0.000
869.38	-0.000
869.55	-0.000
869.72	-0.000
869.89	-0.000
870.06	-0.000
870.24	-0.000
870.41	-0.000
870.58	-0.000
870.75	-0.000
870.92	-0.000
871.09	-0.000
871.26	-0.000
871.43	-0.000
871.60	-0.000
871.77	-0.000
871.94	-0.000
872.11	-0.000
872.28	-0.000
872.45	-0.000
872.62	-0.000
872.79	-0.000
872.96	-0.000
873.13	-0.000
873.30	-0.000
873.47	-0.000
873.64	-0.000
873.81	-0.000
873.98	-0.000
874.15	-0.000
874.32	-0.000
874.49	-0.000
874.66	-0.000
874.83	-0.000
875.00	-0.000
875.17	-0.000
875.34	-0.000
875.51	-0.000
875.68	-0.000
875.85	-0.000
876.02	-0.000
876.19	-0.000
876.36	-0.000
876.53	-0.000
876.70	-0.000
876.87	-0.000
877.04	-0.000
877.21	-0.000
877.38	-0.000
877.55	-0.000
877.72	-0.000
877.89	-0.000
878.06	-0.000
878.23	-0.000
878.39	-0.000
878.56	-0.000
878.73	-0.000
878.90	-0.000
879.07	-0.000
879.24	-0.000
879.41	-0.000
879.58	-0.000
879.75	-0.000
879.92	-0.000
880.09	-0.000
880.26	-0.000
880.43	-0.000
880.60	-0.000
880.77	-0.000
880.94	-0.000
881.11	-0.000
881.27	-0.000
881.44	-0.000
881.61	-0.000
881.78	-0.000
881.95	-0.000
882.12	-0.000
882.29	-0.000
882.46	-0.000
882.63	-0.000
882.80	-0.000
882.97	-0.000
883.14	-0.000
883.30	-0.000
883.47	-0.000
883.64	-0.000
883.81	-0.000
883.98	-0.000
884.15	-0.000
884.32	-0.000
884.49	-0.000
884.66	-0.000
884.82	-0.000
884.99	-0.000
885.16	-0.000
885.33	-0.000
885.50	-0.000
885.67	-0.000
885.84	-0.000
886.01	-0.000
886.17	-0.000
886.34	-0.000
886.51	-0.000
886.68	-0.000
886.85	-0.000
887.02	-0.000
887.19	-0.000
887.36	-0.000
887.52	-0.000
887.69	-0.000
887.86	-0.000
888.03	-0.000
888.20	-0.000
888.37	-0.000
888.54	-0.000
888.70	-0.000
888.87	-0.000
889.04	-0.000
889.21	-0.000
889.38	-0.000
889.55	-0.000
889.71	-0.000
889.88	-0.000
890.05	-0.000
890.22	-0.000
890.39	-0.000
>>>>>End Processed Spectral Data<<<<<
