SpectraSuite Data File
++++++++++++++++++++++++++++++++++++
Date: Fri Jun 19 14:33:07 CEST 2015
User: introlabs
Dark Spectrum Present: Yes
Reference Spectrum Present: Yes
Number of Sampled Component Spectra: 1
Spectrometers: USB4H08886
Integration Time (usec): 745692 (USB4H08886)
Spectra Averaged: 5 (USB4H08886)
Boxcar Smoothing: 5 (USB4H08886)
Correct for Electrical Dark: Yes (USB4H08886)
Strobe/Lamp Enabled: No (USB4H08886)
Correct for Detector Non-linearity: Yes (USB4H08886)
Correct for Stray Light: Yes (USB4H08886)
Number of Pixels in Processed Spectrum: 3648
>>>>>Begin Processed Spectral Data<<<<<
178.14	-0.000
178.36	-0.000
178.57	-0.000
178.79	-0.000
179.01	-0.000
179.22	-0.000
179.44	-0.000
179.65	-0.000
179.87	-0.000
180.08	-0.000
180.30	-0.000
180.52	-0.000
180.73	-0.000
180.95	-0.000
181.16	-0.000
181.38	-0.000
181.59	-0.000
181.81	-0.000
182.03	-0.000
182.24	-0.000
182.46	-0.000
182.67	-0.000
182.89	-0.000
183.10	-0.000
183.32	-0.000
183.54	-0.000
183.75	-0.000
183.97	-0.000
184.18	-0.000
184.40	-0.000
184.61	-0.000
184.83	-0.000
185.04	-0.000
185.26	-0.000
185.48	-0.000
185.69	-0.000
185.91	-0.000
186.12	-0.000
186.34	-0.000
186.55	-0.000
186.77	-0.000
186.98	-0.000
187.20	-0.000
187.42	-0.000
187.63	-0.000
187.85	-0.000
188.06	-0.000
188.28	-0.000
188.49	-0.000
188.71	-0.000
188.92	-0.000
189.14	-0.000
189.36	-0.000
189.57	-0.000
189.79	-0.000
190.00	-0.000
190.22	-0.000
190.43	-0.000
190.65	-0.000
190.86	-0.000
191.08	-0.000
191.29	-0.000
191.51	-0.000
191.72	-0.000
191.94	-0.000
192.16	-0.000
192.37	-0.000
192.59	-0.000
192.80	-0.000
193.02	-0.000
193.23	-0.000
193.45	-0.000
193.66	-0.000
193.88	-0.000
194.09	-0.000
194.31	-0.000
194.52	-0.000
194.74	-0.000
194.95	-0.000
195.17	-0.000
195.38	-0.000
195.60	-0.000
195.81	-0.000
196.03	-0.000
196.25	-0.000
196.46	-0.000
196.68	-0.000
196.89	-0.000
197.11	-0.000
197.32	-0.000
197.54	-0.000
197.75	-0.000
197.97	-0.000
198.18	-0.000
198.40	-0.000
198.61	-0.000
198.83	-0.000
199.04	-0.000
199.26	-0.000
199.47	-0.000
199.69	-0.000
199.90	-0.000
200.12	-0.000
200.33	-0.000
200.55	-0.000
200.76	-0.000
200.98	-0.000
201.19	-0.000
201.41	-0.000
201.62	-0.000
201.84	-0.000
202.05	-0.000
202.27	-0.000
202.48	-0.000
202.70	-0.000
202.91	-0.000
203.13	-0.000
203.34	-0.000
203.56	-0.000
203.77	-0.000
203.99	-0.000
204.20	-0.000
204.42	-0.000
204.63	-0.000
204.85	-0.000
205.06	-0.000
205.28	-0.000
205.49	-0.000
205.71	-0.000
205.92	-0.000
206.14	-0.000
206.35	-0.000
206.56	-0.000
206.78	-0.000
206.99	-0.000
207.21	-0.000
207.42	-0.000
207.64	-0.000
207.85	-0.000
208.07	-0.000
208.28	-0.000
208.50	-0.000
208.71	-0.000
208.93	-0.000
209.14	-0.000
209.36	-0.000
209.57	-0.000
209.79	-0.000
210.00	-0.000
210.22	-0.000
210.43	-0.000
210.64	-0.000
210.86	-0.000
211.07	-0.000
211.29	-0.000
211.50	-0.000
211.72	-0.000
211.93	-0.000
212.15	-0.000
212.36	-0.000
212.58	-0.000
212.79	-0.000
213.01	-0.000
213.22	-0.000
213.43	-0.000
213.65	-0.000
213.86	-0.000
214.08	-0.000
214.29	-0.000
214.51	-0.000
214.72	-0.000
214.94	-0.000
215.15	-0.000
215.36	-0.000
215.58	-0.000
215.79	-0.000
216.01	-0.000
216.22	-0.000
216.44	-0.000
216.65	-0.000
216.87	-0.000
217.08	-0.000
217.29	-0.000
217.51	-0.000
217.72	-0.000
217.94	-0.000
218.15	-0.000
218.37	-0.000
218.58	-0.000
218.80	-0.000
219.01	-0.000
219.22	-0.000
219.44	-0.000
219.65	-0.000
219.87	-0.000
220.08	-0.000
220.30	-0.000
220.51	-0.000
220.72	-0.000
220.94	-0.000
221.15	-0.000
221.37	-0.000
221.58	-0.000
221.79	-0.000
222.01	-0.000
222.22	-0.000
222.44	-0.000
222.65	-0.000
222.87	-0.000
223.08	-0.000
223.29	-0.000
223.51	-0.000
223.72	-0.000
223.94	-0.000
224.15	-0.000
224.36	-0.000
224.58	-0.000
224.79	-0.000
225.01	-0.000
225.22	-0.000
225.44	-0.000
225.65	-0.000
225.86	-0.000
226.08	-0.000
226.29	-0.000
226.51	-0.000
226.72	-0.000
226.93	-0.000
227.15	-0.000
227.36	-0.000
227.58	-0.000
227.79	-0.000
228.00	-0.000
228.22	-0.000
228.43	-0.000
228.65	-0.000
228.86	-0.000
229.07	-0.000
229.29	-0.000
229.50	-0.000
229.72	-0.000
229.93	-0.000
230.14	-0.000
230.36	-0.000
230.57	-0.000
230.78	-0.000
231.00	-0.000
231.21	-0.000
231.43	-0.000
231.64	-0.000
231.85	-0.000
232.07	-0.000
232.28	-0.000
232.50	-0.000
232.71	-0.000
232.92	-0.000
233.14	-0.000
233.35	-0.000
233.56	-0.000
233.78	-0.000
233.99	-0.000
234.21	-0.000
234.42	-0.000
234.63	-0.000
234.85	-0.000
235.06	-0.000
235.27	-0.000
235.49	-0.000
235.70	-0.000
235.91	-0.000
236.13	-0.000
236.34	-0.000
236.56	-0.000
236.77	-0.000
236.98	-0.000
237.20	-0.000
237.41	-0.000
237.62	-0.000
237.84	-0.000
238.05	-0.000
238.26	-0.000
238.48	-0.000
238.69	-0.000
238.91	-0.000
239.12	-0.000
239.33	-0.000
239.55	-0.000
239.76	-0.000
239.97	-0.000
240.19	-0.000
240.40	-0.000
240.61	-0.000
240.83	-0.000
241.04	-0.000
241.25	-0.000
241.47	-0.000
241.68	-0.000
241.89	-0.000
242.11	-0.000
242.32	-0.000
242.53	-0.000
242.75	-0.000
242.96	-0.000
243.17	-0.000
243.39	-0.000
243.60	-0.000
243.81	-0.000
244.03	-0.000
244.24	-0.000
244.45	-0.000
244.67	-0.000
244.88	-0.000
245.09	-0.000
245.31	-0.000
245.52	-0.000
245.73	-0.000
245.95	-0.000
246.16	-0.000
246.37	-0.000
246.59	-0.000
246.80	-0.000
247.01	-0.000
247.23	-0.000
247.44	-0.000
247.65	-0.000
247.87	-0.000
248.08	-0.000
248.29	-0.000
248.51	-0.000
248.72	-0.000
248.93	-0.000
249.15	-0.000
249.36	-0.000
249.57	-0.000
249.78	-0.000
250.00	-0.000
250.21	-0.000
250.42	-0.000
250.64	-0.000
250.85	-0.000
251.06	-0.000
251.28	-0.000
251.49	-0.000
251.70	-0.000
251.92	-0.000
252.13	-0.000
252.34	-0.000
252.55	-0.000
252.77	-0.000
252.98	-0.000
253.19	-0.000
253.41	-0.000
253.62	-0.000
253.83	-0.000
254.05	-0.000
254.26	-0.000
254.47	-0.000
254.68	-0.000
254.90	-0.000
255.11	-0.000
255.32	-0.000
255.54	-0.000
255.75	-0.000
255.96	-0.000
256.17	-0.000
256.39	-0.000
256.60	-0.000
256.81	-0.000
257.03	-0.000
257.24	-0.000
257.45	-0.000
257.66	-0.000
257.88	-0.000
258.09	-0.000
258.30	-0.000
258.51	-0.000
258.73	-0.000
258.94	-0.000
259.15	-0.000
259.37	-0.000
259.58	-0.000
259.79	-0.000
260.00	-0.000
260.22	-0.000
260.43	-0.000
260.64	-0.000
260.85	-0.000
261.07	-0.000
261.28	-0.000
261.49	-0.000
261.71	-0.000
261.92	-0.000
262.13	-0.000
262.34	-0.000
262.56	-0.000
262.77	-0.000
262.98	-0.000
263.19	-0.000
263.41	-0.000
263.62	-0.000
263.83	-0.000
264.04	-0.000
264.26	-0.000
264.47	-0.000
264.68	-0.000
264.89	-0.000
265.11	-0.000
265.32	-0.000
265.53	-0.000
265.74	-0.000
265.96	-0.000
266.17	-0.000
266.38	-0.000
266.59	-0.000
266.81	-0.000
267.02	-0.000
267.23	-0.000
267.44	-0.000
267.65	-0.000
267.87	-0.000
268.08	-0.000
268.29	-0.000
268.50	-0.000
268.72	-0.000
268.93	-0.000
269.14	-0.000
269.35	-0.000
269.57	-0.000
269.78	-0.000
269.99	-0.000
270.20	-0.000
270.41	-0.000
270.63	-0.000
270.84	-0.000
271.05	-0.000
271.26	-0.000
271.48	-0.000
271.69	-0.000
271.90	-0.000
272.11	-0.000
272.32	-0.000
272.54	-0.000
272.75	-0.000
272.96	-0.000
273.17	-0.000
273.39	-0.000
273.60	-0.000
273.81	-0.000
274.02	-0.000
274.23	-0.000
274.45	-0.000
274.66	-0.000
274.87	-0.000
275.08	-0.000
275.29	-0.000
275.51	-0.000
275.72	-0.000
275.93	-0.000
276.14	-0.000
276.35	-0.000
276.57	-0.000
276.78	-0.000
276.99	-0.000
277.20	-0.000
277.41	-0.000
277.63	-0.000
277.84	-0.000
278.05	-0.000
278.26	-0.000
278.47	-0.000
278.69	-0.000
278.90	-0.000
279.11	-0.000
279.32	-0.000
279.53	-0.000
279.74	-0.000
279.96	-0.000
280.17	-0.000
280.38	-0.000
280.59	-0.000
280.80	-0.000
281.02	-0.000
281.23	-0.000
281.44	-0.000
281.65	-0.000
281.86	-0.000
282.07	-0.000
282.29	-0.000
282.50	-0.000
282.71	-0.000
282.92	-0.000
283.13	-0.000
283.35	-0.000
283.56	-0.000
283.77	-0.000
283.98	-0.000
284.19	-0.000
284.40	-0.000
284.62	-0.000
284.83	-0.000
285.04	-0.000
285.25	-0.000
285.46	-0.000
285.67	-0.000
285.88	-0.000
286.10	-0.000
286.31	-0.000
286.52	-0.000
286.73	-0.000
286.94	-0.000
287.15	-0.000
287.37	-0.000
287.58	-0.000
287.79	-0.000
288.00	-0.000
288.21	-0.000
288.42	-0.000
288.63	-0.000
288.85	-0.000
289.06	-0.000
289.27	-0.000
289.48	-0.000
289.69	-0.000
289.90	-0.000
290.11	-0.000
290.33	-0.000
290.54	-0.000
290.75	-0.000
290.96	-0.000
291.17	-0.000
291.38	-0.000
291.59	-0.000
291.81	-0.000
292.02	-0.000
292.23	-0.000
292.44	-0.000
292.65	-0.000
292.86	-0.000
293.07	-0.000
293.28	-0.000
293.50	-0.000
293.71	-0.000
293.92	-0.000
294.13	-0.000
294.34	-0.000
294.55	-0.000
294.76	-0.000
294.97	-0.000
295.19	-0.000
295.40	-0.000
295.61	-0.000
295.82	-0.000
296.03	-0.000
296.24	-0.000
296.45	2.350
296.66	1.877
296.87	1.897
297.09	2.004
297.30	2.382
297.51	1.804
297.72	1.752
297.93	1.868
298.14	1.824
298.35	1.780
298.56	1.745
298.77	1.910
298.99	1.851
299.20	1.814
299.41	1.780
299.62	1.722
299.83	1.716
300.04	1.637
300.25	1.632
300.46	1.680
300.67	1.644
300.88	1.587
301.10	1.592
301.31	1.678
301.52	1.615
301.73	1.554
301.94	1.560
302.15	1.580
302.36	1.537
302.57	1.468
302.78	1.474
302.99	1.524
303.20	1.545
303.41	1.441
303.63	1.423
303.84	1.432
304.05	1.427
304.26	1.361
304.47	1.366
304.68	1.361
304.89	1.348
305.10	1.309
305.31	1.295
305.52	1.339
305.73	1.330
305.94	1.287
306.15	1.275
306.37	1.296
306.58	1.303
306.79	1.270
307.00	1.297
307.21	1.336
307.42	1.329
307.63	1.292
307.84	1.259
308.05	1.298
308.26	1.301
308.47	1.277
308.68	1.272
308.89	1.272
309.10	1.271
309.31	1.230
309.52	1.219
309.73	1.234
309.95	1.228
310.16	1.199
310.37	1.192
310.58	1.211
310.79	1.210
311.00	1.208
311.21	1.209
311.42	1.212
311.63	1.204
311.84	1.188
312.05	1.184
312.26	1.208
312.47	1.217
312.68	1.188
312.89	1.169
313.10	1.176
313.31	1.147
313.52	1.150
313.73	1.149
313.94	1.153
314.15	1.136
314.36	1.114
314.57	1.108
314.78	1.099
314.99	1.094
315.21	1.080
315.42	1.084
315.63	1.099
315.84	1.076
316.05	1.063
316.26	1.072
316.47	1.089
316.68	1.086
316.89	1.064
317.10	1.083
317.31	1.087
317.52	1.089
317.73	1.067
317.94	1.066
318.15	1.107
318.36	1.105
318.57	1.087
318.78	1.077
318.99	1.113
319.20	1.113
319.41	1.079
319.62	1.084
319.83	1.100
320.04	1.096
320.25	1.081
320.46	1.048
320.67	1.052
320.88	1.046
321.09	1.032
321.30	1.017
321.51	1.033
321.72	1.031
321.93	1.014
322.14	1.005
322.35	1.033
322.56	1.035
322.77	1.022
322.98	1.033
323.19	1.043
323.40	1.047
323.61	1.024
323.82	1.019
324.03	1.024
324.24	1.022
324.45	1.009
324.66	0.989
324.87	0.986
325.08	0.985
325.29	0.965
325.50	0.958
325.71	0.965
325.92	0.973
326.13	0.959
326.34	0.958
326.55	0.965
326.76	0.965
326.97	0.954
327.18	0.948
327.39	0.973
327.60	0.974
327.80	0.974
328.01	0.973
328.22	0.972
328.43	0.977
328.64	0.965
328.85	0.970
329.06	0.971
329.27	0.970
329.48	0.964
329.69	0.946
329.90	0.957
330.11	0.950
330.32	0.942
330.53	0.936
330.74	0.934
330.95	0.933
331.16	0.917
331.37	0.926
331.58	0.925
331.79	0.925
332.00	0.915
332.21	0.908
332.42	0.911
332.63	0.903
332.83	0.898
333.04	0.901
333.25	0.914
333.46	0.914
333.67	0.900
333.88	0.903
334.09	0.913
334.30	0.912
334.51	0.904
334.72	0.900
334.93	0.904
335.14	0.902
335.35	0.893
335.56	0.890
335.77	0.897
335.98	0.895
336.18	0.889
336.39	0.882
336.60	0.885
336.81	0.882
337.02	0.881
337.23	0.887
337.44	0.890
337.65	0.893
337.86	0.882
338.07	0.878
338.28	0.883
338.49	0.880
338.70	0.873
338.91	0.879
339.11	0.886
339.32	0.883
339.53	0.870
339.74	0.867
339.95	0.863
340.16	0.861
340.37	0.853
340.58	0.851
340.79	0.856
341.00	0.856
341.21	0.846
341.41	0.847
341.62	0.847
341.83	0.847
342.04	0.843
342.25	0.853
342.46	0.858
342.67	0.857
342.88	0.849
343.09	0.849
343.30	0.855
343.50	0.859
343.71	0.849
343.92	0.848
344.13	0.854
344.34	0.852
344.55	0.835
344.76	0.834
344.97	0.839
345.18	0.838
345.38	0.836
345.59	0.831
345.80	0.830
346.01	0.828
346.22	0.824
346.43	0.817
346.64	0.826
346.85	0.825
347.06	0.818
347.26	0.817
347.47	0.821
347.68	0.816
347.89	0.811
348.10	0.807
348.31	0.813
348.52	0.813
348.73	0.809
348.93	0.806
349.14	0.810
349.35	0.810
349.56	0.804
349.77	0.799
349.98	0.804
350.19	0.801
350.39	0.796
350.60	0.791
350.81	0.807
351.02	0.806
351.23	0.801
351.44	0.804
351.65	0.807
351.86	0.804
352.06	0.804
352.27	0.804
352.48	0.807
352.69	0.807
352.90	0.802
353.11	0.789
353.31	0.797
353.52	0.793
353.73	0.785
353.94	0.785
354.15	0.791
354.36	0.790
354.57	0.782
354.77	0.783
354.98	0.782
355.19	0.781
355.40	0.779
355.61	0.784
355.82	0.788
356.02	0.787
356.23	0.781
356.44	0.782
356.65	0.786
356.86	0.787
357.07	0.782
357.27	0.785
357.48	0.787
357.69	0.783
357.90	0.767
358.11	0.764
358.32	0.768
358.52	0.770
358.73	0.760
358.94	0.763
359.15	0.767
359.36	0.768
359.56	0.763
359.77	0.760
359.98	0.767
360.19	0.767
360.40	0.765
360.61	0.765
360.81	0.764
361.02	0.765
361.23	0.756
361.44	0.755
361.65	0.755
361.85	0.754
362.06	0.752
362.27	0.753
362.48	0.754
362.69	0.755
362.89	0.749
363.10	0.751
363.31	0.755
363.52	0.759
363.73	0.754
363.93	0.754
364.14	0.757
364.35	0.759
364.56	0.749
364.77	0.750
364.97	0.754
365.18	0.754
365.39	0.749
365.60	0.746
365.81	0.746
366.01	0.746
366.22	0.743
366.43	0.741
366.64	0.743
366.84	0.749
367.05	0.746
367.26	0.744
367.47	0.746
367.68	0.745
367.88	0.742
368.09	0.741
368.30	0.743
368.51	0.743
368.71	0.742
368.92	0.746
369.13	0.744
369.34	0.744
369.55	0.743
369.75	0.743
369.96	0.749
370.17	0.749
370.38	0.745
370.58	0.744
370.79	0.749
371.00	0.747
371.21	0.738
371.41	0.744
371.62	0.748
371.83	0.743
372.04	0.741
372.24	0.734
372.45	0.736
372.66	0.736
372.87	0.733
373.07	0.731
373.28	0.731
373.49	0.735
373.70	0.725
373.90	0.725
374.11	0.734
374.32	0.733
374.53	0.733
374.73	0.734
374.94	0.737
375.15	0.737
375.36	0.734
375.56	0.743
375.77	0.744
375.98	0.744
376.19	0.741
376.39	0.735
376.60	0.739
376.81	0.739
377.02	0.736
377.22	0.735
377.43	0.734
377.64	0.734
377.84	0.725
378.05	0.729
378.26	0.736
378.47	0.735
378.67	0.731
378.88	0.729
379.09	0.730
379.30	0.730
379.50	0.728
379.71	0.730
379.92	0.733
380.12	0.732
380.33	0.724
380.54	0.720
380.75	0.727
380.95	0.727
381.16	0.724
381.37	0.724
381.57	0.725
381.78	0.725
381.99	0.726
382.20	0.725
382.40	0.728
382.61	0.729
382.82	0.726
383.02	0.719
383.23	0.723
383.44	0.723
383.64	0.720
383.85	0.723
384.06	0.726
384.27	0.724
384.47	0.722
384.68	0.722
384.89	0.727
385.09	0.727
385.30	0.727
385.51	0.725
385.71	0.729
385.92	0.729
386.13	0.728
386.33	0.730
386.54	0.730
386.75	0.729
386.95	0.726
387.16	0.721
387.37	0.724
387.58	0.723
387.78	0.721
387.99	0.718
388.20	0.720
388.40	0.717
388.61	0.714
388.82	0.717
389.02	0.720
389.23	0.720
389.44	0.718
389.64	0.719
389.85	0.731
390.06	0.730
390.26	0.731
390.47	0.731
390.68	0.733
390.88	0.731
391.09	0.727
391.30	0.726
391.50	0.725
391.71	0.726
391.92	0.723
392.12	0.714
392.33	0.715
392.53	0.714
392.74	0.714
392.95	0.713
393.15	0.715
393.36	0.718
393.57	0.716
393.77	0.720
393.98	0.721
394.19	0.721
394.39	0.720
394.60	0.722
394.81	0.724
395.01	0.722
395.22	0.720
395.43	0.721
395.63	0.725
395.84	0.726
396.04	0.722
396.25	0.724
396.46	0.726
396.66	0.725
396.87	0.722
397.08	0.719
397.28	0.722
397.49	0.723
397.69	0.719
397.90	0.714
398.11	0.715
398.31	0.716
398.52	0.712
398.73	0.713
398.93	0.712
399.14	0.711
399.34	0.710
399.55	0.710
399.76	0.711
399.96	0.712
400.17	0.710
400.37	0.709
400.58	0.715
400.79	0.717
400.99	0.715
401.20	0.721
401.41	0.724
401.61	0.725
401.82	0.730
402.02	0.729
402.23	0.731
402.44	0.731
402.64	0.731
402.85	0.725
403.05	0.725
403.26	0.724
403.47	0.717
403.67	0.715
403.88	0.716
404.08	0.710
404.29	0.710
404.50	0.709
404.70	0.710
404.91	0.709
405.11	0.706
405.32	0.707
405.52	0.707
405.73	0.707
405.94	0.705
406.14	0.708
406.35	0.710
406.55	0.710
406.76	0.708
406.97	0.707
407.17	0.710
407.38	0.710
407.58	0.709
407.79	0.711
407.99	0.714
408.20	0.715
408.41	0.710
408.61	0.708
408.82	0.709
409.02	0.709
409.23	0.707
409.43	0.706
409.64	0.707
409.84	0.706
410.05	0.703
410.26	0.701
410.46	0.700
410.67	0.700
410.87	0.701
411.08	0.703
411.28	0.704
411.49	0.705
411.69	0.702
411.90	0.704
412.11	0.705
412.31	0.706
412.52	0.705
412.72	0.706
412.93	0.706
413.13	0.706
413.34	0.702
413.54	0.704
413.75	0.705
413.95	0.705
414.16	0.702
414.37	0.705
414.57	0.706
414.78	0.708
414.98	0.706
415.19	0.707
415.39	0.704
415.60	0.707
415.80	0.706
416.01	0.704
416.21	0.707
416.42	0.707
416.62	0.702
416.83	0.701
417.03	0.701
417.24	0.701
417.44	0.699
417.65	0.698
417.86	0.699
418.06	0.697
418.27	0.694
418.47	0.695
418.68	0.696
418.88	0.696
419.09	0.694
419.29	0.695
419.50	0.696
419.70	0.695
419.91	0.694
420.11	0.691
420.32	0.693
420.52	0.693
420.73	0.692
420.93	0.693
421.14	0.694
421.34	0.693
421.55	0.690
421.75	0.689
421.96	0.691
422.16	0.691
422.37	0.690
422.57	0.687
422.78	0.689
422.98	0.685
423.19	0.683
423.39	0.682
423.60	0.686
423.80	0.687
424.01	0.685
424.21	0.688
424.42	0.689
424.62	0.689
424.83	0.688
425.03	0.689
425.23	0.692
425.44	0.691
425.64	0.691
425.85	0.690
426.05	0.691
426.26	0.692
426.46	0.688
426.67	0.687
426.87	0.692
427.08	0.693
427.28	0.690
427.49	0.691
427.69	0.693
427.90	0.691
428.10	0.688
428.31	0.687
428.51	0.689
428.71	0.689
428.92	0.690
429.12	0.687
429.33	0.687
429.53	0.691
429.74	0.695
429.94	0.695
430.15	0.694
430.35	0.694
430.56	0.692
430.76	0.691
430.96	0.691
431.17	0.688
431.37	0.685
431.58	0.683
431.78	0.679
431.99	0.672
432.19	0.675
432.40	0.677
432.60	0.678
432.80	0.680
433.01	0.679
433.21	0.679
433.42	0.681
433.62	0.682
433.83	0.681
434.03	0.684
434.23	0.687
434.44	0.685
434.64	0.683
434.85	0.687
435.05	0.689
435.26	0.689
435.46	0.686
435.66	0.686
435.87	0.686
436.07	0.686
436.28	0.682
436.48	0.679
436.69	0.679
436.89	0.679
437.09	0.673
437.30	0.671
437.50	0.672
437.71	0.684
437.91	0.683
438.11	0.684
438.32	0.689
438.52	0.689
438.73	0.688
438.93	0.686
439.13	0.685
439.34	0.689
439.54	0.686
439.75	0.687
439.95	0.677
440.15	0.681
440.36	0.679
440.56	0.677
440.77	0.678
440.97	0.678
441.17	0.676
441.38	0.678
441.58	0.675
441.79	0.676
441.99	0.674
442.19	0.673
442.40	0.670
442.60	0.670
442.81	0.668
443.01	0.668
443.21	0.669
443.42	0.668
443.62	0.667
443.82	0.666
444.03	0.668
444.23	0.668
444.44	0.667
444.64	0.666
444.84	0.667
445.05	0.667
445.25	0.665
445.45	0.665
445.66	0.668
445.86	0.667
446.06	0.667
446.27	0.666
446.47	0.670
446.68	0.668
446.88	0.667
447.08	0.666
447.29	0.668
447.49	0.668
447.69	0.668
447.90	0.667
448.10	0.670
448.30	0.668
448.51	0.670
448.71	0.667
448.91	0.670
449.12	0.669
449.32	0.671
449.52	0.670
449.73	0.673
449.93	0.672
450.14	0.672
450.34	0.671
450.54	0.673
450.75	0.671
450.95	0.669
451.15	0.669
451.36	0.671
451.56	0.668
451.76	0.667
451.97	0.664
452.17	0.664
452.37	0.663
452.58	0.661
452.78	0.660
452.98	0.662
453.19	0.661
453.39	0.661
453.59	0.660
453.79	0.661
454.00	0.661
454.20	0.660
454.40	0.661
454.61	0.663
454.81	0.663
455.01	0.662
455.22	0.662
455.42	0.665
455.62	0.663
455.83	0.663
456.03	0.665
456.23	0.666
456.44	0.667
456.64	0.666
456.84	0.665
457.04	0.666
457.25	0.665
457.45	0.662
457.65	0.661
457.86	0.662
458.06	0.660
458.26	0.656
458.47	0.656
458.67	0.657
458.87	0.657
459.07	0.655
459.28	0.657
459.48	0.659
459.68	0.658
459.89	0.657
460.09	0.656
460.29	0.657
460.49	0.659
460.70	0.658
460.90	0.657
461.10	0.658
461.31	0.658
461.51	0.655
461.71	0.657
461.91	0.659
462.12	0.659
462.32	0.658
462.52	0.659
462.72	0.662
462.93	0.662
463.13	0.661
463.33	0.662
463.53	0.663
463.74	0.663
463.94	0.658
464.14	0.659
464.35	0.660
464.55	0.660
464.75	0.658
464.95	0.656
465.16	0.657
465.36	0.656
465.56	0.655
465.76	0.654
465.97	0.655
466.17	0.655
466.37	0.653
466.57	0.654
466.78	0.655
466.98	0.655
467.18	0.652
467.38	0.651
467.59	0.654
467.79	0.655
467.99	0.654
468.19	0.655
468.39	0.658
468.60	0.658
468.80	0.656
469.00	0.657
469.20	0.658
469.41	0.659
469.61	0.658
469.81	0.658
470.01	0.657
470.22	0.657
470.42	0.655
470.62	0.653
470.82	0.654
471.02	0.654
471.23	0.652
471.43	0.653
471.63	0.655
471.83	0.655
472.04	0.653
472.24	0.652
472.44	0.658
472.64	0.658
472.84	0.656
473.05	0.655
473.25	0.658
473.45	0.658
473.65	0.656
473.85	0.656
474.06	0.658
474.26	0.657
474.46	0.658
474.66	0.654
474.86	0.655
475.07	0.655
475.27	0.653
475.47	0.650
475.67	0.651
475.87	0.653
476.08	0.650
476.28	0.651
476.48	0.653
476.68	0.651
476.88	0.649
477.09	0.651
477.29	0.652
477.49	0.652
477.69	0.651
477.89	0.652
478.09	0.651
478.30	0.653
478.50	0.650
478.70	0.649
478.90	0.650
479.10	0.653
479.31	0.653
479.51	0.652
479.71	0.653
479.91	0.653
480.11	0.651
480.31	0.652
480.52	0.651
480.72	0.650
480.92	0.649
481.12	0.648
481.32	0.646
481.52	0.644
481.72	0.644
481.93	0.648
482.13	0.649
482.33	0.648
482.53	0.646
482.73	0.647
482.93	0.648
483.14	0.648
483.34	0.647
483.54	0.647
483.74	0.646
483.94	0.646
484.14	0.641
484.34	0.641
484.55	0.642
484.75	0.642
484.95	0.640
485.15	0.640
485.35	0.640
485.55	0.640
485.75	0.637
485.96	0.638
486.16	0.639
486.36	0.638
486.56	0.637
486.76	0.637
486.96	0.637
487.16	0.636
487.36	0.634
487.57	0.634
487.77	0.635
487.97	0.635
488.17	0.633
488.37	0.633
488.57	0.634
488.77	0.634
488.97	0.632
489.18	0.632
489.38	0.634
489.58	0.635
489.78	0.634
489.98	0.634
490.18	0.634
490.38	0.635
490.58	0.634
490.78	0.634
490.98	0.636
491.19	0.636
491.39	0.636
491.59	0.634
491.79	0.637
491.99	0.637
492.19	0.637
492.39	0.640
492.59	0.640
492.79	0.642
492.99	0.642
493.20	0.642
493.40	0.642
493.60	0.644
493.80	0.642
494.00	0.640
494.20	0.641
494.40	0.641
494.60	0.638
494.80	0.642
495.00	0.641
495.20	0.639
495.40	0.638
495.61	0.640
495.81	0.639
496.01	0.643
496.21	0.644
496.41	0.643
496.61	0.643
496.81	0.643
497.01	0.637
497.21	0.637
497.41	0.638
497.61	0.637
497.81	0.634
498.01	0.635
498.21	0.632
498.41	0.630
498.61	0.630
498.82	0.631
499.02	0.634
499.22	0.635
499.42	0.634
499.62	0.635
499.82	0.636
500.02	0.638
500.22	0.636
500.42	0.639
500.62	0.640
500.82	0.640
501.02	0.638
501.22	0.638
501.42	0.637
501.62	0.639
501.82	0.638
502.02	0.639
502.22	0.638
502.42	0.639
502.62	0.636
502.82	0.637
503.02	0.638
503.22	0.638
503.42	0.636
503.63	0.636
503.83	0.634
504.03	0.633
504.23	0.631
504.43	0.632
504.63	0.633
504.83	0.633
505.03	0.632
505.23	0.633
505.43	0.635
505.63	0.636
505.83	0.635
506.03	0.636
506.23	0.638
506.43	0.639
506.63	0.638
506.83	0.637
507.03	0.639
507.23	0.640
507.43	0.636
507.63	0.637
507.83	0.638
508.03	0.638
508.23	0.638
508.43	0.637
508.63	0.638
508.83	0.639
509.03	0.640
509.23	0.638
509.43	0.640
509.63	0.640
509.83	0.638
510.03	0.641
510.23	0.643
510.43	0.644
510.63	0.643
510.83	0.643
511.03	0.645
511.23	0.642
511.43	0.641
511.63	0.642
511.83	0.645
512.03	0.645
512.22	0.640
512.42	0.640
512.62	0.641
512.82	0.640
513.02	0.640
513.22	0.639
513.42	0.641
513.62	0.645
513.82	0.643
514.02	0.642
514.22	0.644
514.42	0.645
514.62	0.645
514.82	0.645
515.02	0.648
515.22	0.651
515.42	0.650
515.62	0.652
515.82	0.650
516.02	0.651
516.22	0.652
516.42	0.653
516.62	0.655
516.82	0.656
517.01	0.654
517.21	0.653
517.41	0.656
517.61	0.657
517.81	0.653
518.01	0.652
518.21	0.652
518.41	0.650
518.61	0.649
518.81	0.650
519.01	0.651
519.21	0.651
519.41	0.650
519.61	0.644
519.81	0.647
520.00	0.647
520.20	0.648
520.40	0.651
520.60	0.652
520.80	0.650
521.00	0.650
521.20	0.651
521.40	0.656
521.60	0.656
521.80	0.656
522.00	0.656
522.20	0.658
522.39	0.658
522.59	0.654
522.79	0.656
522.99	0.658
523.19	0.656
523.39	0.654
523.59	0.652
523.79	0.654
523.99	0.656
524.19	0.655
524.38	0.654
524.58	0.656
524.78	0.656
524.98	0.654
525.18	0.657
525.38	0.658
525.58	0.659
525.78	0.657
525.98	0.655
526.18	0.656
526.37	0.655
526.57	0.657
526.77	0.657
526.97	0.657
527.17	0.658
527.37	0.654
527.57	0.657
527.77	0.658
527.96	0.658
528.16	0.657
528.36	0.658
528.56	0.659
528.76	0.657
528.96	0.656
529.16	0.657
529.36	0.661
529.55	0.660
529.75	0.657
529.95	0.657
530.15	0.658
530.35	0.661
530.55	0.658
530.75	0.659
530.94	0.660
531.14	0.661
531.34	0.659
531.54	0.656
531.74	0.660
531.94	0.663
532.13	0.661
532.33	0.662
532.53	0.662
532.73	0.662
532.93	0.659
533.13	0.660
533.33	0.660
533.52	0.661
533.72	0.665
533.92	0.662
534.12	0.660
534.32	0.661
534.52	0.659
534.71	0.661
534.91	0.664
535.11	0.666
535.31	0.664
535.51	0.666
535.71	0.669
535.90	0.666
536.10	0.667
536.30	0.669
536.50	0.670
536.70	0.669
536.89	0.667
537.09	0.666
537.29	0.667
537.49	0.668
537.69	0.666
537.89	0.666
538.08	0.665
538.28	0.664
538.48	0.664
538.68	0.666
538.88	0.669
539.07	0.669
539.27	0.667
539.47	0.666
539.67	0.666
539.87	0.668
540.06	0.666
540.26	0.667
540.46	0.669
540.66	0.666
540.86	0.663
541.05	0.663
541.25	0.665
541.45	0.665
541.65	0.663
541.84	0.664
542.04	0.665
542.24	0.665
542.44	0.664
542.64	0.665
542.83	0.668
543.03	0.668
543.23	0.666
543.43	0.667
543.62	0.668
543.82	0.669
544.02	0.668
544.22	0.668
544.42	0.671
544.61	0.672
544.81	0.669
545.01	0.668
545.21	0.670
545.40	0.670
545.60	0.668
545.80	0.672
546.00	0.672
546.19	0.671
546.39	0.670
546.59	0.668
546.79	0.670
546.98	0.670
547.18	0.669
547.38	0.671
547.58	0.673
547.77	0.673
547.97	0.669
548.17	0.671
548.37	0.671
548.56	0.671
548.76	0.671
548.96	0.672
549.16	0.675
549.35	0.675
549.55	0.672
549.75	0.672
549.95	0.676
550.14	0.676
550.34	0.675
550.54	0.680
550.73	0.683
550.93	0.684
551.13	0.680
551.33	0.679
551.52	0.679
551.72	0.680
551.92	0.677
552.12	0.677
552.31	0.678
552.51	0.678
552.71	0.673
552.90	0.674
553.10	0.674
553.30	0.675
553.50	0.674
553.69	0.676
553.89	0.677
554.09	0.678
554.28	0.674
554.48	0.676
554.68	0.678
554.87	0.678
555.07	0.675
555.27	0.675
555.47	0.676
555.66	0.677
555.86	0.675
556.06	0.677
556.25	0.678
556.45	0.685
556.65	0.684
556.84	0.687
557.04	0.689
557.24	0.691
557.43	0.691
557.63	0.693
557.83	0.695
558.02	0.696
558.22	0.700
558.42	0.700
558.61	0.692
558.81	0.692
559.01	0.688
559.21	0.689
559.40	0.689
559.60	0.689
559.80	0.685
559.99	0.685
560.19	0.687
560.39	0.681
560.58	0.680
560.78	0.680
560.97	0.684
561.17	0.683
561.37	0.680
561.56	0.681
561.76	0.683
561.96	0.683
562.15	0.680
562.35	0.683
562.55	0.685
562.74	0.685
562.94	0.684
563.14	0.682
563.33	0.682
563.53	0.683
563.73	0.680
563.92	0.682
564.12	0.684
564.31	0.687
564.51	0.685
564.71	0.686
564.90	0.689
565.10	0.690
565.30	0.693
565.49	0.693
565.69	0.696
565.89	0.696
566.08	0.693
566.28	0.695
566.47	0.697
566.67	0.695
566.87	0.692
567.06	0.693
567.26	0.699
567.46	0.695
567.65	0.694
567.85	0.695
568.04	0.697
568.24	0.697
568.44	0.693
568.63	0.691
568.83	0.693
569.02	0.691
569.22	0.687
569.42	0.684
569.61	0.686
569.81	0.685
570.00	0.682
570.20	0.684
570.40	0.685
570.59	0.685
570.79	0.684
570.98	0.682
571.18	0.683
571.38	0.683
571.57	0.680
571.77	0.678
571.96	0.682
572.16	0.680
572.35	0.675
572.55	0.676
572.75	0.674
572.94	0.674
573.14	0.673
573.33	0.673
573.53	0.673
573.73	0.672
573.92	0.670
574.12	0.668
574.31	0.671
574.51	0.671
574.70	0.668
574.90	0.670
575.09	0.672
575.29	0.672
575.49	0.669
575.68	0.670
575.88	0.672
576.07	0.673
576.27	0.671
576.46	0.670
576.66	0.669
576.86	0.669
577.05	0.666
577.25	0.665
577.44	0.666
577.64	0.666
577.83	0.664
578.03	0.665
578.22	0.664
578.42	0.664
578.61	0.662
578.81	0.663
579.00	0.663
579.20	0.663
579.40	0.662
579.59	0.661
579.79	0.661
579.98	0.661
580.18	0.660
580.37	0.661
580.57	0.663
580.76	0.667
580.96	0.665
581.15	0.666
581.35	0.667
581.54	0.667
581.74	0.666
581.93	0.668
582.13	0.669
582.32	0.666
582.52	0.664
582.71	0.664
582.91	0.660
583.10	0.660
583.30	0.659
583.49	0.658
583.69	0.662
583.88	0.664
584.08	0.663
584.27	0.665
584.47	0.668
584.66	0.669
584.86	0.668
585.05	0.669
585.25	0.672
585.44	0.672
585.64	0.670
585.83	0.666
586.03	0.667
586.22	0.665
586.42	0.661
586.61	0.663
586.81	0.665
587.00	0.665
587.20	0.662
587.39	0.663
587.59	0.665
587.78	0.666
587.98	0.667
588.17	0.668
588.37	0.670
588.56	0.672
588.76	0.668
588.95	0.668
589.15	0.672
589.34	0.674
589.54	0.673
589.73	0.673
589.92	0.676
590.12	0.676
590.31	0.674
590.51	0.679
590.70	0.681
590.90	0.681
591.09	0.679
591.29	0.677
591.48	0.677
591.68	0.678
591.87	0.676
592.06	0.676
592.26	0.679
592.45	0.678
592.65	0.672
592.84	0.671
593.04	0.674
593.23	0.676
593.43	0.673
593.62	0.673
593.81	0.674
594.01	0.673
594.20	0.670
594.40	0.669
594.59	0.671
594.79	0.672
594.98	0.671
595.17	0.670
595.37	0.671
595.56	0.673
595.76	0.673
595.95	0.674
596.14	0.677
596.34	0.678
596.53	0.677
596.73	0.679
596.92	0.681
597.12	0.683
597.31	0.683
597.50	0.682
597.70	0.684
597.89	0.683
598.09	0.679
598.28	0.681
598.47	0.683
598.67	0.682
598.86	0.678
599.06	0.680
599.25	0.680
599.44	0.679
599.64	0.676
599.83	0.674
600.03	0.677
600.22	0.677
600.41	0.676
600.61	0.674
600.80	0.676
601.00	0.676
601.19	0.672
601.38	0.671
601.58	0.673
601.77	0.674
601.96	0.676
602.16	0.676
602.35	0.685
602.55	0.683
602.74	0.685
602.93	0.686
603.13	0.692
603.32	0.693
603.51	0.692
603.71	0.695
603.90	0.697
604.09	0.697
604.29	0.694
604.48	0.688
604.68	0.690
604.87	0.689
605.06	0.685
605.26	0.681
605.45	0.682
605.64	0.681
605.84	0.677
606.03	0.676
606.22	0.674
606.42	0.674
606.61	0.670
606.80	0.671
607.00	0.672
607.19	0.673
607.38	0.671
607.58	0.673
607.77	0.675
607.96	0.675
608.16	0.673
608.35	0.678
608.54	0.681
608.74	0.684
608.93	0.688
609.12	0.691
609.32	0.693
609.51	0.697
609.70	0.696
609.90	0.698
610.09	0.703
610.28	0.708
610.48	0.702
610.67	0.703
610.86	0.704
611.06	0.698
611.25	0.696
611.44	0.696
611.64	0.696
611.83	0.698
612.02	0.694
612.21	0.693
612.41	0.693
612.60	0.691
612.79	0.688
612.99	0.688
613.18	0.690
613.37	0.688
613.57	0.685
613.76	0.687
613.95	0.685
614.14	0.685
614.34	0.682
614.53	0.683
614.72	0.686
614.92	0.686
615.11	0.683
615.30	0.680
615.49	0.682
615.69	0.684
615.88	0.681
616.07	0.682
616.26	0.685
616.46	0.685
616.65	0.682
616.84	0.680
617.04	0.681
617.23	0.684
617.42	0.684
617.61	0.688
617.81	0.689
618.00	0.691
618.19	0.689
618.38	0.692
618.58	0.697
618.77	0.697
618.96	0.697
619.15	0.700
619.35	0.702
619.54	0.702
619.73	0.698
619.92	0.699
620.12	0.704
620.31	0.704
620.50	0.699
620.69	0.698
620.89	0.702
621.08	0.703
621.27	0.703
621.46	0.701
621.66	0.706
621.85	0.706
622.04	0.702
622.23	0.702
622.43	0.704
622.62	0.703
622.81	0.703
623.00	0.701
623.19	0.705
623.39	0.703
623.58	0.699
623.77	0.697
623.96	0.700
624.16	0.700
624.35	0.695
624.54	0.698
624.73	0.702
624.92	0.699
625.12	0.697
625.31	0.698
625.50	0.701
625.69	0.702
625.88	0.699
626.08	0.698
626.27	0.700
626.46	0.700
626.65	0.696
626.84	0.697
627.04	0.703
627.23	0.703
627.42	0.699
627.61	0.700
627.80	0.703
628.00	0.704
628.19	0.702
628.38	0.705
628.57	0.708
628.76	0.707
628.96	0.704
629.15	0.705
629.34	0.708
629.53	0.709
629.72	0.703
629.91	0.704
630.11	0.709
630.30	0.710
630.49	0.712
630.68	0.713
630.87	0.717
631.06	0.719
631.26	0.713
631.45	0.715
631.64	0.723
631.83	0.725
632.02	0.722
632.21	0.720
632.41	0.728
632.60	0.722
632.79	0.720
632.98	0.721
633.17	0.721
633.36	0.724
633.55	0.720
633.75	0.716
633.94	0.718
634.13	0.718
634.32	0.716
634.51	0.709
634.70	0.711
634.89	0.711
635.09	0.707
635.28	0.707
635.47	0.708
635.66	0.711
635.85	0.706
636.04	0.707
636.23	0.712
636.43	0.712
636.62	0.711
636.81	0.711
637.00	0.712
637.19	0.716
637.38	0.712
637.57	0.712
637.76	0.715
637.95	0.716
638.15	0.713
638.34	0.710
638.53	0.714
638.72	0.715
638.91	0.712
639.10	0.710
639.29	0.711
639.48	0.712
639.67	0.712
639.87	0.710
640.06	0.716
640.25	0.715
640.44	0.715
640.63	0.716
640.82	0.719
641.01	0.719
641.20	0.718
641.39	0.719
641.58	0.721
641.78	0.720
641.97	0.715
642.16	0.728
642.35	0.730
642.54	0.729
642.73	0.723
642.92	0.721
643.11	0.725
643.30	0.724
643.49	0.719
643.68	0.721
643.87	0.722
644.06	0.723
644.25	0.703
644.45	0.706
644.64	0.707
644.83	0.708
645.02	0.705
645.21	0.705
645.40	0.707
645.59	0.707
645.78	0.702
645.97	0.706
646.16	0.707
646.35	0.707
646.54	0.704
646.73	0.705
646.92	0.706
647.11	0.706
647.30	0.700
647.49	0.702
647.68	0.702
647.88	0.700
648.07	0.693
648.26	0.696
648.45	0.698
648.64	0.693
648.83	0.690
649.02	0.694
649.21	0.704
649.40	0.704
649.59	0.699
649.78	0.700
649.97	0.715
650.16	0.713
650.35	0.707
650.54	0.710
650.73	0.719
650.92	0.716
651.11	0.710
651.30	0.707
651.49	0.711
651.68	0.712
651.87	0.709
652.06	0.697
652.25	0.701
652.44	0.703
652.63	0.701
652.82	0.701
653.01	0.701
653.20	0.699
653.39	0.687
653.58	0.685
653.77	0.685
653.96	0.681
654.15	0.673
654.34	0.672
654.53	0.667
654.72	0.661
654.91	0.652
655.10	0.648
655.29	0.646
655.48	0.643
655.67	0.638
655.86	0.635
656.05	0.633
656.24	0.632
656.43	0.627
656.62	0.626
656.81	0.627
657.00	0.624
657.19	0.622
657.38	0.621
657.57	0.621
657.76	0.623
657.95	0.622
658.14	0.625
658.33	0.627
658.51	0.632
658.70	0.633
658.89	0.634
659.08	0.644
659.27	0.651
659.46	0.650
659.65	0.656
659.84	0.660
660.03	0.663
660.22	0.664
660.41	0.668
660.60	0.668
660.79	0.668
660.98	0.674
661.17	0.673
661.36	0.673
661.55	0.674
661.74	0.672
661.92	0.675
662.11	0.677
662.30	0.676
662.49	0.669
662.68	0.668
662.87	0.672
663.06	0.666
663.25	0.667
663.44	0.666
663.63	0.667
663.82	0.665
664.01	0.659
664.20	0.658
664.38	0.660
664.57	0.660
664.76	0.660
664.95	0.661
665.14	0.665
665.33	0.660
665.52	0.667
665.71	0.671
665.90	0.671
666.09	0.673
666.28	0.671
666.46	0.670
666.65	0.671
666.84	0.668
667.03	0.662
667.22	0.661
667.41	0.664
667.60	0.654
667.79	0.647
667.98	0.648
668.16	0.649
668.35	0.648
668.54	0.645
668.73	0.645
668.92	0.646
669.11	0.646
669.30	0.640
669.49	0.636
669.67	0.639
669.86	0.641
670.05	0.639
670.24	0.636
670.43	0.635
670.62	0.633
670.81	0.628
671.00	0.630
671.18	0.630
671.37	0.629
671.56	0.626
671.75	0.625
671.94	0.622
672.13	0.621
672.32	0.617
672.50	0.616
672.69	0.616
672.88	0.617
673.07	0.612
673.26	0.614
673.45	0.615
673.63	0.615
673.82	0.611
674.01	0.613
674.20	0.611
674.39	0.611
674.58	0.610
674.76	0.610
674.95	0.609
675.14	0.609
675.33	0.605
675.52	0.603
675.71	0.603
675.89	0.603
676.08	0.599
676.27	0.599
676.46	0.600
676.65	0.599
676.84	0.599
677.02	0.600
677.21	0.602
677.40	0.600
677.59	0.597
677.78	0.598
677.96	0.601
678.15	0.600
678.34	0.598
678.53	0.598
678.72	0.598
678.90	0.595
679.09	0.591
679.28	0.588
679.47	0.588
679.66	0.589
679.84	0.585
680.03	0.583
680.22	0.582
680.41	0.583
680.60	0.579
680.78	0.579
680.97	0.581
681.16	0.582
681.35	0.580
681.53	0.579
681.72	0.580
681.91	0.582
682.10	0.580
682.29	0.583
682.47	0.581
682.66	0.581
682.85	0.579
683.04	0.577
683.22	0.577
683.41	0.578
683.60	0.577
683.79	0.578
683.97	0.578
684.16	0.576
684.35	0.571
684.54	0.573
684.72	0.573
684.91	0.574
685.10	0.572
685.29	0.573
685.47	0.570
685.66	0.570
685.85	0.566
686.04	0.565
686.22	0.568
686.41	0.571
686.60	0.568
686.79	0.571
686.97	0.572
687.16	0.574
687.35	0.571
687.54	0.575
687.72	0.579
687.91	0.579
688.10	0.581
688.29	0.580
688.47	0.578
688.66	0.578
688.85	0.574
689.03	0.572
689.22	0.576
689.41	0.577
689.60	0.572
689.78	0.569
689.97	0.569
690.16	0.567
690.34	0.563
690.53	0.562
690.72	0.563
690.91	0.561
691.09	0.559
691.28	0.553
691.47	0.551
691.65	0.549
691.84	0.547
692.03	0.546
692.21	0.544
692.40	0.544
692.59	0.542
692.77	0.541
692.96	0.542
693.15	0.543
693.34	0.540
693.52	0.540
693.71	0.542
693.90	0.542
694.08	0.543
694.27	0.544
694.46	0.553
694.64	0.554
694.83	0.554
695.02	0.553
695.20	0.553
695.39	0.552
695.58	0.552
695.76	0.553
695.95	0.552
696.14	0.551
696.32	0.549
696.51	0.539
696.70	0.539
696.88	0.540
697.07	0.539
697.26	0.541
697.44	0.542
697.63	0.540
697.81	0.538
698.00	0.537
698.19	0.537
698.37	0.536
698.56	0.536
698.75	0.536
698.93	0.535
699.12	0.534
699.31	0.533
699.49	0.532
699.68	0.533
699.87	0.536
700.05	0.536
700.24	0.535
700.42	0.537
700.61	0.536
700.80	0.534
700.98	0.535
701.17	0.536
701.36	0.535
701.54	0.535
701.73	0.536
701.91	0.534
702.10	0.532
702.29	0.531
702.47	0.529
702.66	0.530
702.84	0.532
703.03	0.530
703.22	0.531
703.40	0.531
703.59	0.533
703.77	0.532
703.96	0.532
704.15	0.533
704.33	0.534
704.52	0.533
704.70	0.533
704.89	0.532
705.08	0.531
705.26	0.527
705.45	0.527
705.63	0.526
705.82	0.523
706.00	0.521
706.19	0.521
706.38	0.521
706.56	0.520
706.75	0.517
706.93	0.516
707.12	0.518
707.30	0.518
707.49	0.516
707.68	0.515
707.86	0.514
708.05	0.515
708.23	0.512
708.42	0.512
708.60	0.514
708.79	0.515
708.98	0.514
709.16	0.513
709.35	0.515
709.53	0.519
709.72	0.518
709.90	0.519
710.09	0.522
710.27	0.524
710.46	0.528
710.64	0.526
710.83	0.528
711.02	0.529
711.20	0.528
711.39	0.526
711.57	0.523
711.76	0.524
711.94	0.522
712.13	0.523
712.31	0.522
712.50	0.517
712.68	0.515
712.87	0.516
713.05	0.516
713.24	0.517
713.42	0.517
713.61	0.518
713.79	0.519
713.98	0.519
714.16	0.520
714.35	0.520
714.54	0.521
714.72	0.521
714.91	0.519
715.09	0.525
715.28	0.527
715.46	0.527
715.65	0.524
715.83	0.523
716.02	0.526
716.20	0.522
716.39	0.522
716.57	0.523
716.76	0.524
716.94	0.524
717.12	0.516
717.31	0.518
717.49	0.521
717.68	0.524
717.86	0.523
718.05	0.524
718.23	0.527
718.42	0.529
718.60	0.530
718.79	0.539
718.97	0.540
719.16	0.540
719.34	0.538
719.53	0.537
719.71	0.536
719.90	0.538
720.08	0.535
720.27	0.535
720.45	0.536
720.63	0.534
720.82	0.528
721.00	0.531
721.19	0.535
721.37	0.535
721.56	0.536
721.74	0.539
721.93	0.547
722.11	0.554
722.30	0.553
722.48	0.557
722.66	0.559
722.85	0.559
723.03	0.559
723.22	0.557
723.40	0.559
723.59	0.559
723.77	0.563
723.95	0.556
724.14	0.558
724.32	0.559
724.51	0.559
724.69	0.560
724.88	0.559
725.06	0.558
725.24	0.560
725.43	0.561
725.61	0.564
725.80	0.558
725.98	0.556
726.16	0.552
726.35	0.557
726.53	0.556
726.72	0.555
726.90	0.566
727.09	0.566
727.27	0.572
727.45	0.569
727.64	0.577
727.82	0.585
728.01	0.589
728.19	0.588
728.37	0.594
728.56	0.596
728.74	0.602
728.92	0.591
729.11	0.593
729.29	0.591
729.48	0.593
729.66	0.583
729.84	0.584
730.03	0.587
730.21	0.587
730.40	0.578
730.58	0.580
730.76	0.579
730.95	0.581
731.13	0.580
731.31	0.594
731.50	0.604
731.68	0.607
731.86	0.602
732.05	0.617
732.23	0.620
732.42	0.623
732.60	0.625
732.78	0.630
732.97	0.649
733.15	0.655
733.33	0.643
733.52	0.649
733.70	0.659
733.88	0.667
734.07	0.653
734.25	0.680
734.43	0.687
734.62	0.690
734.80	0.685
734.98	0.675
735.17	0.681
735.35	0.688
735.53	0.676
735.72	0.680
735.90	0.701
736.08	0.719
736.27	0.695
736.45	0.705
736.63	0.716
736.82	0.727
737.00	0.725
737.18	0.735
737.37	0.762
737.55	0.788
737.73	0.781
737.92	0.780
738.10	0.780
738.28	0.800
738.46	0.787
738.65	0.802
738.83	0.823
739.01	0.878
739.20	0.870
739.38	0.856
739.56	0.843
739.75	0.848
739.93	0.814
740.11	0.838
740.29	0.835
740.48	0.843
740.66	0.820
740.84	0.813
741.03	0.783
741.21	0.790
741.39	0.770
741.57	0.786
741.76	0.802
741.94	0.812
742.12	0.777
742.31	0.784
742.49	0.802
742.67	0.821
742.85	0.836
743.04	0.835
743.22	0.845
743.40	0.899
743.58	0.877
743.77	0.894
743.95	0.926
744.13	0.975
744.31	0.953
744.50	0.948
744.68	0.950
744.86	0.921
745.04	0.935
745.23	0.993
745.41	0.975
745.59	0.985
745.77	0.948
745.96	0.939
746.14	0.948
746.32	0.950
746.50	0.942
746.69	0.927
746.87	0.942
747.05	0.924
747.23	0.853
747.42	0.836
747.60	0.864
747.78	0.865
747.96	0.891
748.14	0.850
748.33	0.873
748.51	0.863
748.69	0.857
748.87	0.883
749.06	0.883
749.24	0.885
749.42	0.874
749.60	0.853
749.78	0.864
749.97	0.822
750.15	0.813
750.33	0.814
750.51	0.842
750.69	0.846
750.88	0.848
751.06	0.854
751.24	0.876
751.42	0.867
751.60	0.860
751.79	0.924
751.97	0.964
752.15	0.964
752.33	0.934
752.51	0.991
752.69	1.004
752.88	0.974
753.06	1.020
753.24	0.999
753.42	1.034
753.60	1.194
753.78	1.063
753.97	1.084
754.15	1.103
754.33	1.133
754.51	1.012
754.69	0.998
754.87	1.026
755.06	0.954
755.24	0.954
755.42	0.959
755.60	0.868
755.78	0.875
755.96	0.826
756.15	0.827
756.33	0.832
756.51	0.853
756.69	0.837
756.87	0.804
757.05	0.824
757.23	0.810
757.42	0.780
757.60	0.775
757.78	0.767
757.96	0.765
758.14	0.750
758.32	0.734
758.50	0.746
758.69	0.745
758.87	0.739
759.05	0.743
759.23	0.751
759.41	0.752
759.59	0.744
759.77	0.763
759.95	0.790
760.13	0.836
760.32	0.832
760.50	0.828
760.68	0.851
760.86	0.853
761.04	0.826
761.22	0.831
761.40	0.880
761.58	0.884
761.76	0.859
761.95	0.839
762.13	0.796
762.31	0.800
762.49	0.768
762.67	0.784
762.85	0.798
763.03	0.794
763.21	0.775
763.39	0.758
763.57	0.759
763.75	0.752
763.94	0.736
764.12	0.736
764.30	0.758
764.48	0.762
764.66	0.727
764.84	0.722
765.02	0.758
765.20	0.765
765.38	0.742
765.56	0.748
765.74	0.786
765.92	0.791
766.10	0.796
766.28	0.789
766.46	0.818
766.65	0.823
766.83	0.810
767.01	0.793
767.19	0.801
767.37	0.803
767.55	0.788
767.73	0.769
767.91	0.770
768.09	0.761
768.27	0.751
768.45	0.737
768.63	0.739
768.81	0.743
768.99	0.718
769.17	0.738
769.35	0.749
769.53	0.748
769.71	0.731
769.89	0.739
770.07	0.742
770.25	0.726
770.43	0.706
770.61	0.730
770.79	0.737
770.97	0.748
771.15	0.721
771.33	0.725
771.51	0.728
771.69	0.738
771.87	0.744
772.05	0.752
772.24	0.762
772.42	0.773
772.60	0.753
772.78	0.807
772.96	0.835
773.14	0.828
773.32	0.806
773.49	0.813
773.67	0.814
773.85	0.794
774.03	0.782
774.21	0.810
774.39	0.816
774.57	0.833
774.75	0.768
774.93	0.764
775.11	0.788
775.29	0.794
775.47	0.795
775.65	0.803
775.83	0.819
776.01	0.841
776.19	0.799
776.37	0.804
776.55	0.805
776.73	0.801
776.91	0.794
777.09	0.777
777.27	0.775
777.45	0.762
777.63	0.740
777.81	0.737
777.99	0.722
778.17	0.720
778.35	0.700
778.53	0.688
778.71	0.692
778.89	0.682
779.07	0.671
779.24	0.678
779.42	0.680
779.60	0.698
779.78	0.694
779.96	0.699
780.14	0.707
780.32	0.727
780.50	0.713
780.68	0.713
780.86	0.703
781.04	0.722
781.22	0.725
781.40	0.736
781.58	0.727
781.75	0.721
781.93	0.705
782.11	0.704
782.29	0.691
782.47	0.691
782.65	0.679
782.83	0.706
783.01	0.699
783.19	0.692
783.37	0.678
783.55	0.681
783.72	0.700
783.90	0.710
784.08	0.705
784.26	0.713
784.44	0.732
784.62	0.736
784.80	0.705
784.98	0.709
785.16	0.715
785.33	0.728
785.51	0.716
785.69	0.700
785.87	0.699
786.05	0.709
786.23	0.705
786.41	0.704
786.59	0.710
786.77	0.708
786.94	0.697
787.12	0.701
787.30	0.701
787.48	0.698
787.66	0.690
787.84	0.692
788.02	0.682
788.19	0.681
788.37	0.667
788.55	0.670
788.73	0.670
788.91	0.665
789.09	0.649
789.27	0.638
789.44	0.649
789.62	0.654
789.80	0.661
789.98	0.685
790.16	0.672
790.34	0.668
790.51	0.656
790.69	0.675
790.87	0.682
791.05	0.680
791.23	0.675
791.41	0.675
791.58	0.681
791.76	0.661
791.94	0.634
792.12	0.642
792.30	0.647
792.48	0.643
792.65	0.636
792.83	0.643
793.01	0.650
793.19	0.650
793.37	0.636
793.54	0.633
793.72	0.643
793.90	0.642
794.08	0.632
794.26	0.631
794.43	0.641
794.61	0.624
794.79	0.613
794.97	0.611
795.15	0.615
795.32	0.619
795.50	0.609
795.68	0.605
795.86	0.608
796.04	0.609
796.21	0.604
796.39	0.601
796.57	0.615
796.75	0.622
796.92	0.623
797.10	0.628
797.28	0.629
797.46	0.632
797.64	0.633
797.81	0.640
797.99	0.645
798.17	0.649
798.35	0.643
798.52	0.647
798.70	0.643
798.88	0.651
799.06	0.648
799.23	0.651
799.41	0.657
799.59	0.650
799.77	0.638
799.94	0.647
800.12	0.655
800.30	0.672
800.48	0.672
800.65	0.672
800.83	0.662
801.01	0.657
801.19	0.658
801.36	0.656
801.54	0.660
801.72	0.670
801.90	0.657
802.07	0.652
802.25	0.638
802.43	0.623
802.60	0.619
802.78	0.625
802.96	0.629
803.14	0.622
803.31	0.620
803.49	0.621
803.67	0.618
803.84	0.623
804.02	0.614
804.20	0.617
804.38	0.623
804.55	0.621
804.73	0.607
804.91	0.606
805.08	0.619
805.26	0.615
805.44	0.677
805.61	0.680
805.79	0.678
805.97	0.678
806.15	0.671
806.32	0.666
806.50	0.674
806.68	0.676
806.85	0.667
807.03	0.657
807.21	0.673
807.38	0.609
807.56	0.598
807.74	0.608
807.91	0.614
808.09	0.615
808.27	0.631
808.44	0.655
808.62	0.662
808.80	0.665
808.97	0.661
809.15	0.657
809.33	0.672
809.50	0.678
809.68	0.666
809.86	0.675
810.03	0.707
810.21	0.689
810.39	0.671
810.56	0.677
810.74	0.700
810.91	0.770
811.09	0.758
811.27	0.778
811.44	0.787
811.62	0.785
811.80	0.770
811.97	0.737
812.15	0.739
812.33	0.734
812.50	0.721
812.68	0.709
812.85	0.653
813.03	0.656
813.21	0.624
813.38	0.617
813.56	0.621
813.74	0.629
813.91	0.638
814.09	0.665
814.26	0.659
814.44	0.663
814.62	0.652
814.79	0.656
814.97	0.661
815.14	0.666
815.32	0.668
815.50	0.684
815.67	0.688
815.85	0.678
816.02	0.668
816.20	0.675
816.38	0.688
816.55	0.696
816.73	0.696
816.90	0.706
817.08	0.733
817.26	0.740
817.43	0.720
817.61	0.741
817.78	0.762
817.96	0.742
818.13	0.732
818.31	0.733
818.49	0.746
818.66	0.736
818.84	0.723
819.01	0.705
819.19	0.710
819.36	0.711
819.54	0.684
819.71	0.726
819.89	0.738
820.07	0.749
820.24	0.743
820.42	0.744
820.59	0.764
820.77	0.787
820.94	0.776
821.12	0.795
821.29	0.809
821.47	0.810
821.64	0.744
821.82	0.758
822.00	0.758
822.17	0.757
822.35	0.746
822.52	0.746
822.70	0.733
822.87	0.746
823.05	0.724
823.22	0.738
823.40	0.764
823.57	0.788
823.75	0.769
823.92	0.792
824.10	0.810
824.27	0.852
824.45	0.837
824.62	0.896
824.80	0.908
824.97	0.923
825.15	0.910
825.32	0.920
825.50	0.917
825.67	0.928
825.85	0.903
826.02	0.917
826.20	0.939
826.37	1.059
826.55	0.983
826.72	1.153
826.90	1.214
827.07	1.270
827.25	1.215
827.42	1.365
827.60	1.500
827.77	1.674
827.95	1.617
828.12	1.694
828.30	1.375
828.47	1.491
828.65	1.170
828.82	1.229
829.00	1.269
829.17	1.370
829.34	1.372
829.52	1.403
829.69	-0.000
829.87	-0.000
830.04	-0.000
830.22	-0.000
830.39	-0.000
830.57	-0.000
830.74	-0.000
830.92	-0.000
831.09	-0.000
831.26	-0.000
831.44	-0.000
831.61	-0.000
831.79	-0.000
831.96	-0.000
832.14	-0.000
832.31	-0.000
832.49	-0.000
832.66	-0.000
832.83	-0.000
833.01	-0.000
833.18	-0.000
833.36	-0.000
833.53	-0.000
833.70	-0.000
833.88	-0.000
834.05	-0.000
834.23	-0.000
834.40	-0.000
834.58	-0.000
834.75	-0.000
834.92	-0.000
835.10	-0.000
835.27	-0.000
835.45	-0.000
835.62	-0.000
835.79	-0.000
835.97	-0.000
836.14	-0.000
836.32	-0.000
836.49	-0.000
836.66	-0.000
836.84	-0.000
837.01	-0.000
837.18	-0.000
837.36	-0.000
837.53	-0.000
837.71	-0.000
837.88	-0.000
838.05	-0.000
838.23	-0.000
838.40	-0.000
838.58	-0.000
838.75	-0.000
838.92	-0.000
839.10	-0.000
839.27	-0.000
839.44	-0.000
839.62	-0.000
839.79	-0.000
839.96	-0.000
840.14	-0.000
840.31	-0.000
840.48	-0.000
840.66	-0.000
840.83	-0.000
841.01	-0.000
841.18	-0.000
841.35	-0.000
841.53	-0.000
841.70	-0.000
841.87	-0.000
842.05	-0.000
842.22	-0.000
842.39	-0.000
842.57	-0.000
842.74	-0.000
842.91	-0.000
843.09	-0.000
843.26	-0.000
843.43	-0.000
843.60	-0.000
843.78	-0.000
843.95	-0.000
844.12	-0.000
844.30	-0.000
844.47	-0.000
844.64	-0.000
844.82	-0.000
844.99	-0.000
845.16	-0.000
845.34	-0.000
845.51	-0.000
845.68	-0.000
845.85	-0.000
846.03	-0.000
846.20	-0.000
846.37	-0.000
846.55	-0.000
846.72	-0.000
846.89	-0.000
847.06	-0.000
847.24	-0.000
847.41	-0.000
847.58	-0.000
847.76	-0.000
847.93	-0.000
848.10	-0.000
848.27	-0.000
848.45	-0.000
848.62	-0.000
848.79	-0.000
848.97	-0.000
849.14	-0.000
849.31	-0.000
849.48	-0.000
849.66	-0.000
849.83	-0.000
850.00	-0.000
850.17	-0.000
850.35	-0.000
850.52	-0.000
850.69	-0.000
850.86	-0.000
851.04	-0.000
851.21	-0.000
851.38	-0.000
851.55	-0.000
851.72	-0.000
851.90	-0.000
852.07	-0.000
852.24	-0.000
852.41	-0.000
852.59	-0.000
852.76	-0.000
852.93	-0.000
853.10	-0.000
853.28	-0.000
853.45	-0.000
853.62	-0.000
853.79	-0.000
853.96	-0.000
854.14	-0.000
854.31	-0.000
854.48	-0.000
854.65	-0.000
854.82	-0.000
855.00	-0.000
855.17	-0.000
855.34	-0.000
855.51	-0.000
855.68	-0.000
855.86	-0.000
856.03	-0.000
856.20	-0.000
856.37	-0.000
856.54	-0.000
856.72	-0.000
856.89	-0.000
857.06	-0.000
857.23	-0.000
857.40	-0.000
857.57	-0.000
857.75	-0.000
857.92	-0.000
858.09	-0.000
858.26	-0.000
858.43	-0.000
858.60	-0.000
858.78	-0.000
858.95	-0.000
859.12	-0.000
859.29	-0.000
859.46	-0.000
859.63	-0.000
859.81	-0.000
859.98	-0.000
860.15	-0.000
860.32	-0.000
860.49	-0.000
860.66	-0.000
860.83	-0.000
861.01	-0.000
861.18	-0.000
861.35	-0.000
861.52	-0.000
861.69	-0.000
861.86	-0.000
862.03	-0.000
862.21	-0.000
862.38	-0.000
862.55	-0.000
862.72	-0.000
862.89	-0.000
863.06	-0.000
863.23	-0.000
863.40	-0.000
863.58	-0.000
863.75	-0.000
863.92	-0.000
864.09	-0.000
864.26	-0.000
864.43	-0.000
864.60	-0.000
864.77	-0.000
864.94	-0.000
865.11	-0.000
865.29	-0.000
865.46	-0.000
865.63	-0.000
865.80	-0.000
865.97	-0.000
866.14	-0.000
866.31	-0.000
866.48	-0.000
866.65	-0.000
866.82	-0.000
866.99	-0.000
867.16	-0.000
867.34	-0.000
867.51	-0.000
867.68	-0.000
867.85	-0.000
868.02	-0.000
868.19	-0.000
868.36	-0.000
868.53	-0.000
868.70	-0.000
868.87	-0.000
869.04	-0.000
869.21	-0.000
869.38	-0.000
869.55	-0.000
869.72	-0.000
869.89	-0.000
870.06	-0.000
870.24	-0.000
870.41	-0.000
870.58	-0.000
870.75	-0.000
870.92	-0.000
871.09	-0.000
871.26	-0.000
871.43	-0.000
871.60	-0.000
871.77	-0.000
871.94	-0.000
872.11	-0.000
872.28	-0.000
872.45	-0.000
872.62	-0.000
872.79	-0.000
872.96	-0.000
873.13	-0.000
873.30	-0.000
873.47	-0.000
873.64	-0.000
873.81	-0.000
873.98	-0.000
874.15	-0.000
874.32	-0.000
874.49	-0.000
874.66	-0.000
874.83	-0.000
875.00	-0.000
875.17	-0.000
875.34	-0.000
875.51	-0.000
875.68	-0.000
875.85	-0.000
876.02	-0.000
876.19	-0.000
876.36	-0.000
876.53	-0.000
876.70	-0.000
876.87	-0.000
877.04	-0.000
877.21	-0.000
877.38	-0.000
877.55	-0.000
877.72	-0.000
877.89	-0.000
878.06	-0.000
878.23	-0.000
878.39	-0.000
878.56	-0.000
878.73	-0.000
878.90	-0.000
879.07	-0.000
879.24	-0.000
879.41	-0.000
879.58	-0.000
879.75	-0.000
879.92	-0.000
880.09	-0.000
880.26	-0.000
880.43	-0.000
880.60	-0.000
880.77	-0.000
880.94	-0.000
881.11	-0.000
881.27	-0.000
881.44	-0.000
881.61	-0.000
881.78	-0.000
881.95	-0.000
882.12	-0.000
882.29	-0.000
882.46	-0.000
882.63	-0.000
882.80	-0.000
882.97	-0.000
883.14	-0.000
883.30	-0.000
883.47	-0.000
883.64	-0.000
883.81	-0.000
883.98	-0.000
884.15	-0.000
884.32	-0.000
884.49	-0.000
884.66	-0.000
884.82	-0.000
884.99	-0.000
885.16	-0.000
885.33	-0.000
885.50	-0.000
885.67	-0.000
885.84	-0.000
886.01	-0.000
886.17	-0.000
886.34	-0.000
886.51	-0.000
886.68	-0.000
886.85	-0.000
887.02	-0.000
887.19	-0.000
887.36	-0.000
887.52	-0.000
887.69	-0.000
887.86	-0.000
888.03	-0.000
888.20	-0.000
888.37	-0.000
888.54	-0.000
888.70	-0.000
888.87	-0.000
889.04	-0.000
889.21	-0.000
889.38	-0.000
889.55	-0.000
889.71	-0.000
889.88	-0.000
890.05	-0.000
890.22	-0.000
890.39	-0.000
>>>>>End Processed Spectral Data<<<<<
