SpectraSuite Data File
++++++++++++++++++++++++++++++++++++
Date: Fri Jun 19 15:05:28 CEST 2015
User: introlabs
Dark Spectrum Present: Yes
Reference Spectrum Present: Yes
Number of Sampled Component Spectra: 1
Spectrometers: USB4H08886
Integration Time (usec): 745692 (USB4H08886)
Spectra Averaged: 5 (USB4H08886)
Boxcar Smoothing: 5 (USB4H08886)
Correct for Electrical Dark: Yes (USB4H08886)
Strobe/Lamp Enabled: No (USB4H08886)
Correct for Detector Non-linearity: Yes (USB4H08886)
Correct for Stray Light: Yes (USB4H08886)
Number of Pixels in Processed Spectrum: 3648
>>>>>Begin Processed Spectral Data<<<<<
178.14	-0.000
178.36	-0.000
178.57	-0.000
178.79	-0.000
179.01	-0.000
179.22	-0.000
179.44	-0.000
179.65	-0.000
179.87	-0.000
180.08	-0.000
180.30	-0.000
180.52	-0.000
180.73	-0.000
180.95	-0.000
181.16	-0.000
181.38	-0.000
181.59	-0.000
181.81	-0.000
182.03	-0.000
182.24	-0.000
182.46	-0.000
182.67	-0.000
182.89	-0.000
183.10	-0.000
183.32	-0.000
183.54	-0.000
183.75	-0.000
183.97	-0.000
184.18	-0.000
184.40	-0.000
184.61	-0.000
184.83	-0.000
185.04	-0.000
185.26	-0.000
185.48	-0.000
185.69	-0.000
185.91	-0.000
186.12	-0.000
186.34	-0.000
186.55	-0.000
186.77	-0.000
186.98	-0.000
187.20	-0.000
187.42	-0.000
187.63	-0.000
187.85	-0.000
188.06	-0.000
188.28	-0.000
188.49	-0.000
188.71	-0.000
188.92	-0.000
189.14	-0.000
189.36	-0.000
189.57	-0.000
189.79	-0.000
190.00	-0.000
190.22	-0.000
190.43	-0.000
190.65	-0.000
190.86	-0.000
191.08	-0.000
191.29	-0.000
191.51	-0.000
191.72	-0.000
191.94	-0.000
192.16	-0.000
192.37	-0.000
192.59	-0.000
192.80	-0.000
193.02	-0.000
193.23	-0.000
193.45	-0.000
193.66	-0.000
193.88	-0.000
194.09	-0.000
194.31	-0.000
194.52	-0.000
194.74	-0.000
194.95	-0.000
195.17	-0.000
195.38	-0.000
195.60	-0.000
195.81	-0.000
196.03	-0.000
196.25	-0.000
196.46	-0.000
196.68	-0.000
196.89	-0.000
197.11	-0.000
197.32	-0.000
197.54	-0.000
197.75	-0.000
197.97	-0.000
198.18	-0.000
198.40	-0.000
198.61	-0.000
198.83	-0.000
199.04	-0.000
199.26	-0.000
199.47	-0.000
199.69	-0.000
199.90	-0.000
200.12	-0.000
200.33	-0.000
200.55	-0.000
200.76	-0.000
200.98	-0.000
201.19	-0.000
201.41	-0.000
201.62	-0.000
201.84	-0.000
202.05	-0.000
202.27	-0.000
202.48	-0.000
202.70	-0.000
202.91	-0.000
203.13	-0.000
203.34	-0.000
203.56	-0.000
203.77	-0.000
203.99	-0.000
204.20	-0.000
204.42	-0.000
204.63	-0.000
204.85	-0.000
205.06	-0.000
205.28	-0.000
205.49	-0.000
205.71	-0.000
205.92	-0.000
206.14	-0.000
206.35	-0.000
206.56	-0.000
206.78	-0.000
206.99	-0.000
207.21	-0.000
207.42	-0.000
207.64	-0.000
207.85	-0.000
208.07	-0.000
208.28	-0.000
208.50	-0.000
208.71	-0.000
208.93	-0.000
209.14	-0.000
209.36	-0.000
209.57	-0.000
209.79	-0.000
210.00	-0.000
210.22	-0.000
210.43	-0.000
210.64	-0.000
210.86	-0.000
211.07	-0.000
211.29	-0.000
211.50	-0.000
211.72	-0.000
211.93	-0.000
212.15	-0.000
212.36	-0.000
212.58	-0.000
212.79	-0.000
213.01	-0.000
213.22	-0.000
213.43	-0.000
213.65	-0.000
213.86	-0.000
214.08	-0.000
214.29	-0.000
214.51	-0.000
214.72	-0.000
214.94	-0.000
215.15	-0.000
215.36	-0.000
215.58	-0.000
215.79	-0.000
216.01	-0.000
216.22	-0.000
216.44	-0.000
216.65	-0.000
216.87	-0.000
217.08	-0.000
217.29	-0.000
217.51	-0.000
217.72	-0.000
217.94	-0.000
218.15	-0.000
218.37	-0.000
218.58	-0.000
218.80	-0.000
219.01	-0.000
219.22	-0.000
219.44	-0.000
219.65	-0.000
219.87	-0.000
220.08	-0.000
220.30	-0.000
220.51	-0.000
220.72	-0.000
220.94	-0.000
221.15	-0.000
221.37	-0.000
221.58	-0.000
221.79	-0.000
222.01	-0.000
222.22	-0.000
222.44	-0.000
222.65	-0.000
222.87	-0.000
223.08	-0.000
223.29	-0.000
223.51	-0.000
223.72	-0.000
223.94	-0.000
224.15	-0.000
224.36	-0.000
224.58	-0.000
224.79	-0.000
225.01	-0.000
225.22	-0.000
225.44	-0.000
225.65	-0.000
225.86	-0.000
226.08	-0.000
226.29	-0.000
226.51	-0.000
226.72	-0.000
226.93	-0.000
227.15	-0.000
227.36	-0.000
227.58	-0.000
227.79	-0.000
228.00	-0.000
228.22	-0.000
228.43	-0.000
228.65	-0.000
228.86	-0.000
229.07	-0.000
229.29	-0.000
229.50	-0.000
229.72	-0.000
229.93	-0.000
230.14	-0.000
230.36	-0.000
230.57	-0.000
230.78	-0.000
231.00	-0.000
231.21	-0.000
231.43	-0.000
231.64	-0.000
231.85	-0.000
232.07	-0.000
232.28	-0.000
232.50	-0.000
232.71	-0.000
232.92	-0.000
233.14	-0.000
233.35	-0.000
233.56	-0.000
233.78	-0.000
233.99	-0.000
234.21	-0.000
234.42	-0.000
234.63	-0.000
234.85	-0.000
235.06	-0.000
235.27	-0.000
235.49	-0.000
235.70	-0.000
235.91	-0.000
236.13	-0.000
236.34	-0.000
236.56	-0.000
236.77	-0.000
236.98	-0.000
237.20	-0.000
237.41	-0.000
237.62	-0.000
237.84	-0.000
238.05	-0.000
238.26	-0.000
238.48	-0.000
238.69	-0.000
238.91	-0.000
239.12	-0.000
239.33	-0.000
239.55	-0.000
239.76	-0.000
239.97	-0.000
240.19	-0.000
240.40	-0.000
240.61	-0.000
240.83	-0.000
241.04	-0.000
241.25	-0.000
241.47	-0.000
241.68	-0.000
241.89	-0.000
242.11	-0.000
242.32	-0.000
242.53	-0.000
242.75	-0.000
242.96	-0.000
243.17	-0.000
243.39	-0.000
243.60	-0.000
243.81	-0.000
244.03	-0.000
244.24	-0.000
244.45	-0.000
244.67	-0.000
244.88	-0.000
245.09	-0.000
245.31	-0.000
245.52	-0.000
245.73	-0.000
245.95	-0.000
246.16	-0.000
246.37	-0.000
246.59	-0.000
246.80	-0.000
247.01	-0.000
247.23	-0.000
247.44	-0.000
247.65	-0.000
247.87	-0.000
248.08	-0.000
248.29	-0.000
248.51	-0.000
248.72	-0.000
248.93	-0.000
249.15	-0.000
249.36	-0.000
249.57	-0.000
249.78	-0.000
250.00	-0.000
250.21	-0.000
250.42	-0.000
250.64	-0.000
250.85	-0.000
251.06	-0.000
251.28	-0.000
251.49	-0.000
251.70	-0.000
251.92	-0.000
252.13	-0.000
252.34	-0.000
252.55	-0.000
252.77	-0.000
252.98	-0.000
253.19	-0.000
253.41	-0.000
253.62	-0.000
253.83	-0.000
254.05	-0.000
254.26	-0.000
254.47	-0.000
254.68	-0.000
254.90	-0.000
255.11	-0.000
255.32	-0.000
255.54	-0.000
255.75	-0.000
255.96	-0.000
256.17	-0.000
256.39	-0.000
256.60	-0.000
256.81	-0.000
257.03	-0.000
257.24	-0.000
257.45	-0.000
257.66	-0.000
257.88	-0.000
258.09	-0.000
258.30	-0.000
258.51	-0.000
258.73	-0.000
258.94	-0.000
259.15	-0.000
259.37	-0.000
259.58	-0.000
259.79	-0.000
260.00	-0.000
260.22	-0.000
260.43	-0.000
260.64	-0.000
260.85	-0.000
261.07	-0.000
261.28	-0.000
261.49	-0.000
261.71	-0.000
261.92	-0.000
262.13	-0.000
262.34	-0.000
262.56	-0.000
262.77	-0.000
262.98	-0.000
263.19	-0.000
263.41	-0.000
263.62	-0.000
263.83	-0.000
264.04	-0.000
264.26	-0.000
264.47	-0.000
264.68	-0.000
264.89	-0.000
265.11	-0.000
265.32	-0.000
265.53	-0.000
265.74	-0.000
265.96	-0.000
266.17	-0.000
266.38	-0.000
266.59	-0.000
266.81	-0.000
267.02	-0.000
267.23	-0.000
267.44	-0.000
267.65	-0.000
267.87	-0.000
268.08	-0.000
268.29	-0.000
268.50	-0.000
268.72	-0.000
268.93	-0.000
269.14	-0.000
269.35	-0.000
269.57	-0.000
269.78	-0.000
269.99	-0.000
270.20	-0.000
270.41	-0.000
270.63	-0.000
270.84	-0.000
271.05	-0.000
271.26	-0.000
271.48	-0.000
271.69	-0.000
271.90	-0.000
272.11	-0.000
272.32	-0.000
272.54	-0.000
272.75	-0.000
272.96	-0.000
273.17	-0.000
273.39	-0.000
273.60	-0.000
273.81	-0.000
274.02	-0.000
274.23	-0.000
274.45	-0.000
274.66	-0.000
274.87	-0.000
275.08	-0.000
275.29	-0.000
275.51	-0.000
275.72	-0.000
275.93	-0.000
276.14	-0.000
276.35	-0.000
276.57	-0.000
276.78	-0.000
276.99	-0.000
277.20	-0.000
277.41	-0.000
277.63	-0.000
277.84	-0.000
278.05	-0.000
278.26	-0.000
278.47	-0.000
278.69	-0.000
278.90	-0.000
279.11	-0.000
279.32	-0.000
279.53	-0.000
279.74	-0.000
279.96	-0.000
280.17	-0.000
280.38	-0.000
280.59	-0.000
280.80	-0.000
281.02	-0.000
281.23	-0.000
281.44	-0.000
281.65	-0.000
281.86	-0.000
282.07	-0.000
282.29	-0.000
282.50	-0.000
282.71	-0.000
282.92	-0.000
283.13	-0.000
283.35	-0.000
283.56	-0.000
283.77	-0.000
283.98	-0.000
284.19	-0.000
284.40	-0.000
284.62	-0.000
284.83	-0.000
285.04	-0.000
285.25	-0.000
285.46	-0.000
285.67	-0.000
285.88	-0.000
286.10	-0.000
286.31	-0.000
286.52	-0.000
286.73	-0.000
286.94	-0.000
287.15	-0.000
287.37	-0.000
287.58	-0.000
287.79	-0.000
288.00	-0.000
288.21	-0.000
288.42	-0.000
288.63	-0.000
288.85	-0.000
289.06	-0.000
289.27	-0.000
289.48	-0.000
289.69	-0.000
289.90	-0.000
290.11	-0.000
290.33	-0.000
290.54	-0.000
290.75	-0.000
290.96	-0.000
291.17	-0.000
291.38	-0.000
291.59	-0.000
291.81	-0.000
292.02	-0.000
292.23	-0.000
292.44	-0.000
292.65	-0.000
292.86	-0.000
293.07	-0.000
293.28	-0.000
293.50	-0.000
293.71	-0.000
293.92	-0.000
294.13	-0.000
294.34	-0.000
294.55	-0.000
294.76	-0.000
294.97	-0.000
295.19	-0.000
295.40	-0.000
295.61	-0.000
295.82	-0.000
296.03	-0.000
296.24	-0.000
296.45	2.058
296.66	1.759
296.87	1.773
297.09	1.838
297.30	2.023
297.51	1.694
297.72	1.670
297.93	1.761
298.14	1.725
298.35	1.678
298.56	1.662
298.77	1.770
298.99	1.740
299.20	1.731
299.41	1.714
299.62	1.660
299.83	1.642
300.04	1.577
300.25	1.567
300.46	1.601
300.67	1.572
300.88	1.530
301.10	1.534
301.31	1.601
301.52	1.537
301.73	1.485
301.94	1.490
302.15	1.508
302.36	1.469
302.57	1.408
302.78	1.418
302.99	1.458
303.20	1.478
303.41	1.393
303.63	1.376
303.84	1.383
304.05	1.383
304.26	1.325
304.47	1.336
304.68	1.333
304.89	1.324
305.10	1.286
305.31	1.272
305.52	1.311
305.73	1.304
305.94	1.267
306.15	1.258
306.37	1.275
306.58	1.284
306.79	1.253
307.00	1.278
307.21	1.317
307.42	1.308
307.63	1.276
307.84	1.241
308.05	1.275
308.26	1.273
308.47	1.252
308.68	1.250
308.89	1.248
309.10	1.243
309.31	1.207
309.52	1.197
309.73	1.211
309.95	1.206
310.16	1.181
310.37	1.170
310.58	1.186
310.79	1.184
311.00	1.180
311.21	1.184
311.42	1.186
311.63	1.181
311.84	1.163
312.05	1.162
312.26	1.183
312.47	1.195
312.68	1.173
312.89	1.157
313.10	1.164
313.31	1.138
313.52	1.140
313.73	1.139
313.94	1.141
314.15	1.124
314.36	1.104
314.57	1.098
314.78	1.083
314.99	1.079
315.21	1.069
315.42	1.073
315.63	1.085
315.84	1.061
316.05	1.047
316.26	1.055
316.47	1.072
316.68	1.069
316.89	1.050
317.10	1.071
317.31	1.076
317.52	1.076
317.73	1.056
317.94	1.054
318.15	1.095
318.36	1.097
318.57	1.079
318.78	1.068
318.99	1.102
319.20	1.098
319.41	1.065
319.62	1.066
319.83	1.081
320.04	1.077
320.25	1.066
320.46	1.033
320.67	1.033
320.88	1.028
321.09	1.016
321.30	1.002
321.51	1.017
321.72	1.016
321.93	1.001
322.14	0.993
322.35	1.017
322.56	1.019
322.77	1.008
322.98	1.019
323.19	1.028
323.40	1.034
323.61	1.014
323.82	1.008
324.03	1.012
324.24	1.009
324.45	0.998
324.66	0.979
324.87	0.978
325.08	0.977
325.29	0.959
325.50	0.957
325.71	0.961
325.92	0.969
326.13	0.955
326.34	0.955
326.55	0.962
326.76	0.960
326.97	0.949
327.18	0.943
327.39	0.967
327.60	0.969
327.80	0.964
328.01	0.963
328.22	0.961
328.43	0.966
328.64	0.955
328.85	0.959
329.06	0.960
329.27	0.961
329.48	0.957
329.69	0.939
329.90	0.948
330.11	0.942
330.32	0.935
330.53	0.929
330.74	0.927
330.95	0.926
331.16	0.912
331.37	0.920
331.58	0.919
331.79	0.920
332.00	0.911
332.21	0.906
332.42	0.907
332.63	0.899
332.83	0.896
333.04	0.899
333.25	0.911
333.46	0.909
333.67	0.897
333.88	0.899
334.09	0.908
334.30	0.905
334.51	0.895
334.72	0.891
334.93	0.893
335.14	0.893
335.35	0.887
335.56	0.882
335.77	0.890
335.98	0.889
336.18	0.882
336.39	0.875
336.60	0.879
336.81	0.879
337.02	0.879
337.23	0.884
337.44	0.886
337.65	0.886
337.86	0.876
338.07	0.871
338.28	0.875
338.49	0.874
338.70	0.868
338.91	0.873
339.11	0.880
339.32	0.876
339.53	0.865
339.74	0.862
339.95	0.859
340.16	0.858
340.37	0.851
340.58	0.849
340.79	0.852
341.00	0.852
341.21	0.842
341.41	0.842
341.62	0.842
341.83	0.843
342.04	0.838
342.25	0.849
342.46	0.853
342.67	0.851
342.88	0.845
343.09	0.843
343.30	0.849
343.50	0.852
343.71	0.842
343.92	0.840
344.13	0.844
344.34	0.843
344.55	0.827
344.76	0.826
344.97	0.832
345.18	0.830
345.38	0.828
345.59	0.824
345.80	0.823
346.01	0.822
346.22	0.819
346.43	0.812
346.64	0.819
346.85	0.820
347.06	0.814
347.26	0.812
347.47	0.816
347.68	0.811
347.89	0.807
348.10	0.803
348.31	0.809
348.52	0.809
348.73	0.808
348.93	0.805
349.14	0.807
349.35	0.805
349.56	0.801
349.77	0.796
349.98	0.802
350.19	0.799
350.39	0.795
350.60	0.791
350.81	0.804
351.02	0.803
351.23	0.799
351.44	0.802
351.65	0.805
351.86	0.802
352.06	0.801
352.27	0.801
352.48	0.801
352.69	0.801
352.90	0.796
353.11	0.782
353.31	0.789
353.52	0.786
353.73	0.778
353.94	0.779
354.15	0.784
354.36	0.783
354.57	0.775
354.77	0.778
354.98	0.777
355.19	0.776
355.40	0.775
355.61	0.781
355.82	0.786
356.02	0.785
356.23	0.779
356.44	0.781
356.65	0.784
356.86	0.784
357.07	0.778
357.27	0.782
357.48	0.784
357.69	0.780
357.90	0.765
358.11	0.761
358.32	0.765
358.52	0.767
358.73	0.757
358.94	0.760
359.15	0.766
359.36	0.766
359.56	0.762
359.77	0.760
359.98	0.766
360.19	0.764
360.40	0.762
360.61	0.762
360.81	0.760
361.02	0.761
361.23	0.753
361.44	0.750
361.65	0.751
361.85	0.749
362.06	0.748
362.27	0.749
362.48	0.751
362.69	0.753
362.89	0.748
363.10	0.749
363.31	0.754
363.52	0.756
363.73	0.751
363.93	0.751
364.14	0.754
364.35	0.754
364.56	0.744
364.77	0.745
364.97	0.746
365.18	0.746
365.39	0.742
365.60	0.739
365.81	0.739
366.01	0.739
366.22	0.737
366.43	0.736
366.64	0.738
366.84	0.745
367.05	0.742
367.26	0.742
367.47	0.744
367.68	0.743
367.88	0.740
368.09	0.739
368.30	0.742
368.51	0.741
368.71	0.740
368.92	0.744
369.13	0.741
369.34	0.740
369.55	0.739
369.75	0.738
369.96	0.745
370.17	0.745
370.38	0.742
370.58	0.741
370.79	0.746
371.00	0.745
371.21	0.737
371.41	0.742
371.62	0.746
371.83	0.742
372.04	0.740
372.24	0.733
372.45	0.735
372.66	0.736
372.87	0.733
373.07	0.731
373.28	0.732
373.49	0.735
373.70	0.727
373.90	0.727
374.11	0.736
374.32	0.735
374.53	0.735
374.73	0.735
374.94	0.737
375.15	0.737
375.36	0.733
375.56	0.742
375.77	0.742
375.98	0.741
376.19	0.738
376.39	0.731
376.60	0.735
376.81	0.736
377.02	0.733
377.22	0.732
377.43	0.731
377.64	0.731
377.84	0.722
378.05	0.726
378.26	0.733
378.47	0.732
378.67	0.729
378.88	0.727
379.09	0.727
379.30	0.728
379.50	0.726
379.71	0.729
379.92	0.731
380.12	0.732
380.33	0.724
380.54	0.720
380.75	0.727
380.95	0.726
381.16	0.724
381.37	0.724
381.57	0.725
381.78	0.726
381.99	0.726
382.20	0.725
382.40	0.728
382.61	0.729
382.82	0.726
383.02	0.721
383.23	0.724
383.44	0.724
383.64	0.723
383.85	0.725
384.06	0.728
384.27	0.726
384.47	0.724
384.68	0.723
384.89	0.729
385.09	0.727
385.30	0.726
385.51	0.725
385.71	0.729
385.92	0.729
386.13	0.728
386.33	0.730
386.54	0.730
386.75	0.729
386.95	0.726
387.16	0.722
387.37	0.724
387.58	0.724
387.78	0.722
387.99	0.719
388.20	0.721
388.40	0.719
388.61	0.715
388.82	0.719
389.02	0.722
389.23	0.722
389.44	0.721
389.64	0.721
389.85	0.731
390.06	0.732
390.26	0.732
390.47	0.731
390.68	0.732
390.88	0.730
391.09	0.725
391.30	0.725
391.50	0.725
391.71	0.724
391.92	0.721
392.12	0.714
392.33	0.715
392.53	0.715
392.74	0.715
392.95	0.715
393.15	0.718
393.36	0.719
393.57	0.717
393.77	0.720
393.98	0.721
394.19	0.721
394.39	0.721
394.60	0.722
394.81	0.724
395.01	0.722
395.22	0.721
395.43	0.723
395.63	0.727
395.84	0.728
396.04	0.725
396.25	0.727
396.46	0.730
396.66	0.727
396.87	0.726
397.08	0.723
397.28	0.725
397.49	0.726
397.69	0.722
397.90	0.718
398.11	0.720
398.31	0.720
398.52	0.716
398.73	0.717
398.93	0.717
399.14	0.716
399.34	0.715
399.55	0.717
399.76	0.717
399.96	0.717
400.17	0.716
400.37	0.714
400.58	0.721
400.79	0.723
400.99	0.720
401.20	0.724
401.41	0.726
401.61	0.727
401.82	0.732
402.02	0.732
402.23	0.734
402.44	0.734
402.64	0.735
402.85	0.729
403.05	0.729
403.26	0.727
403.47	0.722
403.67	0.721
403.88	0.721
404.08	0.714
404.29	0.713
404.50	0.712
404.70	0.713
404.91	0.711
405.11	0.709
405.32	0.709
405.52	0.709
405.73	0.709
405.94	0.708
406.14	0.711
406.35	0.713
406.55	0.712
406.76	0.710
406.97	0.710
407.17	0.713
407.38	0.713
407.58	0.711
407.79	0.714
407.99	0.717
408.20	0.718
408.41	0.714
408.61	0.712
408.82	0.713
409.02	0.714
409.23	0.712
409.43	0.710
409.64	0.712
409.84	0.711
410.05	0.708
410.26	0.706
410.46	0.706
410.67	0.706
410.87	0.708
411.08	0.710
411.28	0.710
411.49	0.712
411.69	0.709
411.90	0.711
412.11	0.713
412.31	0.713
412.52	0.712
412.72	0.713
412.93	0.713
413.13	0.712
413.34	0.709
413.54	0.711
413.75	0.712
413.95	0.712
414.16	0.708
414.37	0.710
414.57	0.710
414.78	0.713
414.98	0.710
415.19	0.711
415.39	0.708
415.60	0.710
415.80	0.709
416.01	0.707
416.21	0.709
416.42	0.709
416.62	0.705
416.83	0.706
417.03	0.705
417.24	0.706
417.44	0.703
417.65	0.703
417.86	0.703
418.06	0.702
418.27	0.700
418.47	0.702
418.68	0.702
418.88	0.703
419.09	0.701
419.29	0.701
419.50	0.702
419.70	0.702
419.91	0.701
420.11	0.699
420.32	0.701
420.52	0.701
420.73	0.700
420.93	0.701
421.14	0.702
421.34	0.701
421.55	0.698
421.75	0.698
421.96	0.699
422.16	0.699
422.37	0.698
422.57	0.694
422.78	0.696
422.98	0.692
423.19	0.690
423.39	0.688
423.60	0.691
423.80	0.692
424.01	0.691
424.21	0.693
424.42	0.694
424.62	0.693
424.83	0.693
425.03	0.694
425.23	0.696
425.44	0.696
425.64	0.697
425.85	0.696
426.05	0.697
426.26	0.697
426.46	0.693
426.67	0.693
426.87	0.698
427.08	0.698
427.28	0.696
427.49	0.697
427.69	0.698
427.90	0.697
428.10	0.693
428.31	0.693
428.51	0.695
428.71	0.694
428.92	0.695
429.12	0.691
429.33	0.692
429.53	0.696
429.74	0.700
429.94	0.700
430.15	0.699
430.35	0.700
430.56	0.697
430.76	0.695
430.96	0.696
431.17	0.694
431.37	0.692
431.58	0.690
431.78	0.687
431.99	0.680
432.19	0.681
432.40	0.683
432.60	0.683
432.80	0.687
433.01	0.685
433.21	0.685
433.42	0.687
433.62	0.687
433.83	0.686
434.03	0.688
434.23	0.690
434.44	0.690
434.64	0.687
434.85	0.692
435.05	0.692
435.26	0.693
435.46	0.691
435.66	0.691
435.87	0.691
436.07	0.691
436.28	0.688
436.48	0.685
436.69	0.685
436.89	0.685
437.09	0.678
437.30	0.677
437.50	0.677
437.71	0.689
437.91	0.687
438.11	0.688
438.32	0.692
438.52	0.692
438.73	0.692
438.93	0.689
439.13	0.689
439.34	0.693
439.54	0.691
439.75	0.690
439.95	0.681
440.15	0.685
440.36	0.684
440.56	0.681
440.77	0.682
440.97	0.682
441.17	0.681
441.38	0.682
441.58	0.679
441.79	0.679
441.99	0.678
442.19	0.677
442.40	0.675
442.60	0.674
442.81	0.672
443.01	0.672
443.21	0.672
443.42	0.672
443.62	0.670
443.82	0.670
444.03	0.671
444.23	0.671
444.44	0.672
444.64	0.671
444.84	0.672
445.05	0.671
445.25	0.669
445.45	0.670
445.66	0.672
445.86	0.671
446.06	0.672
446.27	0.672
446.47	0.675
446.68	0.673
446.88	0.672
447.08	0.671
447.29	0.673
447.49	0.673
447.69	0.672
447.90	0.671
448.10	0.674
448.30	0.671
448.51	0.672
448.71	0.669
448.91	0.671
449.12	0.670
449.32	0.672
449.52	0.671
449.73	0.675
449.93	0.674
450.14	0.674
450.34	0.674
450.54	0.676
450.75	0.673
450.95	0.672
451.15	0.672
451.36	0.674
451.56	0.671
451.76	0.670
451.97	0.666
452.17	0.666
452.37	0.665
452.58	0.662
452.78	0.662
452.98	0.664
453.19	0.664
453.39	0.664
453.59	0.663
453.79	0.664
454.00	0.665
454.20	0.664
454.40	0.664
454.61	0.666
454.81	0.667
455.01	0.665
455.22	0.665
455.42	0.666
455.62	0.664
455.83	0.664
456.03	0.666
456.23	0.667
456.44	0.668
456.64	0.667
456.84	0.668
457.04	0.668
457.25	0.668
457.45	0.665
457.65	0.665
457.86	0.666
458.06	0.665
458.26	0.660
458.47	0.659
458.67	0.661
458.87	0.661
459.07	0.659
459.28	0.661
459.48	0.663
459.68	0.663
459.89	0.662
460.09	0.660
460.29	0.661
460.49	0.663
460.70	0.662
460.90	0.661
461.10	0.662
461.31	0.661
461.51	0.658
461.71	0.660
461.91	0.661
462.12	0.661
462.32	0.659
462.52	0.660
462.72	0.663
462.93	0.663
463.13	0.662
463.33	0.663
463.53	0.664
463.74	0.663
463.94	0.659
464.14	0.660
464.35	0.662
464.55	0.663
464.75	0.661
464.95	0.659
465.16	0.660
465.36	0.659
465.56	0.658
465.76	0.658
465.97	0.658
466.17	0.659
466.37	0.656
466.57	0.656
466.78	0.657
466.98	0.657
467.18	0.655
467.38	0.654
467.59	0.655
467.79	0.657
467.99	0.656
468.19	0.657
468.39	0.660
468.60	0.660
468.80	0.659
469.00	0.660
469.20	0.660
469.41	0.660
469.61	0.660
469.81	0.661
470.01	0.660
470.22	0.660
470.42	0.658
470.62	0.656
470.82	0.658
471.02	0.657
471.23	0.655
471.43	0.656
471.63	0.659
471.83	0.659
472.04	0.658
472.24	0.657
472.44	0.662
472.64	0.661
472.84	0.659
473.05	0.659
473.25	0.661
473.45	0.660
473.65	0.658
473.85	0.658
474.06	0.658
474.26	0.658
474.46	0.659
474.66	0.655
474.86	0.656
475.07	0.656
475.27	0.654
475.47	0.652
475.67	0.653
475.87	0.655
476.08	0.652
476.28	0.653
476.48	0.654
476.68	0.653
476.88	0.651
477.09	0.652
477.29	0.654
477.49	0.655
477.69	0.654
477.89	0.654
478.09	0.653
478.30	0.655
478.50	0.653
478.70	0.652
478.90	0.653
479.10	0.656
479.31	0.657
479.51	0.655
479.71	0.656
479.91	0.655
480.11	0.655
480.31	0.655
480.52	0.654
480.72	0.653
480.92	0.652
481.12	0.651
481.32	0.648
481.52	0.645
481.72	0.645
481.93	0.649
482.13	0.649
482.33	0.648
482.53	0.646
482.73	0.647
482.93	0.648
483.14	0.648
483.34	0.648
483.54	0.649
483.74	0.648
483.94	0.646
484.14	0.643
484.34	0.643
484.55	0.643
484.75	0.643
484.95	0.641
485.15	0.641
485.35	0.640
485.55	0.640
485.75	0.638
485.96	0.638
486.16	0.640
486.36	0.640
486.56	0.638
486.76	0.638
486.96	0.638
487.16	0.638
487.36	0.636
487.57	0.636
487.77	0.636
487.97	0.637
488.17	0.635
488.37	0.634
488.57	0.634
488.77	0.635
488.97	0.633
489.18	0.633
489.38	0.635
489.58	0.636
489.78	0.636
489.98	0.635
490.18	0.636
490.38	0.636
490.58	0.636
490.78	0.636
490.98	0.638
491.19	0.638
491.39	0.638
491.59	0.637
491.79	0.640
491.99	0.640
492.19	0.639
492.39	0.642
492.59	0.642
492.79	0.644
492.99	0.645
493.20	0.645
493.40	0.645
493.60	0.646
493.80	0.644
494.00	0.642
494.20	0.643
494.40	0.643
494.60	0.640
494.80	0.644
495.00	0.643
495.20	0.641
495.40	0.639
495.61	0.641
495.81	0.640
496.01	0.644
496.21	0.645
496.41	0.644
496.61	0.644
496.81	0.644
497.01	0.639
497.21	0.638
497.41	0.639
497.61	0.639
497.81	0.637
498.01	0.637
498.21	0.635
498.41	0.633
498.61	0.633
498.82	0.635
499.02	0.637
499.22	0.637
499.42	0.636
499.62	0.638
499.82	0.638
500.02	0.639
500.22	0.638
500.42	0.640
500.62	0.641
500.82	0.641
501.02	0.639
501.22	0.639
501.42	0.639
501.62	0.641
501.82	0.640
502.02	0.640
502.22	0.640
502.42	0.641
502.62	0.638
502.82	0.639
503.02	0.639
503.22	0.639
503.42	0.637
503.63	0.637
503.83	0.635
504.03	0.633
504.23	0.632
504.43	0.633
504.63	0.634
504.83	0.634
505.03	0.633
505.23	0.634
505.43	0.636
505.63	0.637
505.83	0.636
506.03	0.638
506.23	0.639
506.43	0.640
506.63	0.639
506.83	0.637
507.03	0.639
507.23	0.639
507.43	0.636
507.63	0.637
507.83	0.637
508.03	0.638
508.23	0.637
508.43	0.636
508.63	0.638
508.83	0.638
509.03	0.640
509.23	0.639
509.43	0.641
509.63	0.641
509.83	0.640
510.03	0.643
510.23	0.644
510.43	0.645
510.63	0.645
510.83	0.645
511.03	0.646
511.23	0.644
511.43	0.643
511.63	0.644
511.83	0.646
512.03	0.646
512.22	0.643
512.42	0.642
512.62	0.643
512.82	0.643
513.02	0.643
513.22	0.642
513.42	0.644
513.62	0.647
513.82	0.645
514.02	0.644
514.22	0.645
514.42	0.645
514.62	0.645
514.82	0.645
515.02	0.647
515.22	0.650
515.42	0.649
515.62	0.652
515.82	0.650
516.02	0.651
516.22	0.651
516.42	0.652
516.62	0.655
516.82	0.656
517.01	0.655
517.21	0.653
517.41	0.657
517.61	0.657
517.81	0.653
518.01	0.653
518.21	0.652
518.41	0.651
518.61	0.650
518.81	0.651
519.01	0.651
519.21	0.651
519.41	0.651
519.61	0.645
519.81	0.648
520.00	0.648
520.20	0.649
520.40	0.652
520.60	0.653
520.80	0.652
521.00	0.652
521.20	0.653
521.40	0.658
521.60	0.657
521.80	0.656
522.00	0.656
522.20	0.658
522.39	0.658
522.59	0.655
522.79	0.657
522.99	0.659
523.19	0.657
523.39	0.655
523.59	0.653
523.79	0.656
523.99	0.659
524.19	0.658
524.38	0.657
524.58	0.658
524.78	0.658
524.98	0.657
525.18	0.659
525.38	0.660
525.58	0.661
525.78	0.658
525.98	0.657
526.18	0.656
526.37	0.655
526.57	0.657
526.77	0.657
526.97	0.657
527.17	0.657
527.37	0.653
527.57	0.655
527.77	0.657
527.96	0.657
528.16	0.656
528.36	0.657
528.56	0.659
528.76	0.657
528.96	0.656
529.16	0.657
529.36	0.660
529.55	0.660
529.75	0.657
529.95	0.656
530.15	0.659
530.35	0.661
530.55	0.659
530.75	0.659
530.94	0.660
531.14	0.660
531.34	0.659
531.54	0.657
531.74	0.660
531.94	0.663
532.13	0.661
532.33	0.663
532.53	0.662
532.73	0.662
532.93	0.661
533.13	0.662
533.33	0.662
533.52	0.663
533.72	0.666
533.92	0.664
534.12	0.662
534.32	0.662
534.52	0.660
534.71	0.662
534.91	0.665
535.11	0.666
535.31	0.664
535.51	0.666
535.71	0.668
535.90	0.665
536.10	0.666
536.30	0.668
536.50	0.670
536.70	0.670
536.89	0.668
537.09	0.667
537.29	0.669
537.49	0.669
537.69	0.667
537.89	0.668
538.08	0.668
538.28	0.666
538.48	0.666
538.68	0.667
538.88	0.669
539.07	0.669
539.27	0.667
539.47	0.666
539.67	0.666
539.87	0.667
540.06	0.665
540.26	0.666
540.46	0.668
540.66	0.665
540.86	0.663
541.05	0.663
541.25	0.665
541.45	0.665
541.65	0.663
541.84	0.665
542.04	0.666
542.24	0.667
542.44	0.666
542.64	0.666
542.83	0.669
543.03	0.670
543.23	0.667
543.43	0.668
543.62	0.669
543.82	0.669
544.02	0.668
544.22	0.668
544.42	0.671
544.61	0.672
544.81	0.669
545.01	0.668
545.21	0.670
545.40	0.670
545.60	0.669
545.80	0.672
546.00	0.672
546.19	0.671
546.39	0.670
546.59	0.668
546.79	0.669
546.98	0.670
547.18	0.669
547.38	0.669
547.58	0.672
547.77	0.673
547.97	0.669
548.17	0.671
548.37	0.671
548.56	0.672
548.76	0.671
548.96	0.672
549.16	0.674
549.35	0.673
549.55	0.672
549.75	0.672
549.95	0.675
550.14	0.675
550.34	0.673
550.54	0.678
550.73	0.682
550.93	0.683
551.13	0.680
551.33	0.679
551.52	0.680
551.72	0.680
551.92	0.678
552.12	0.679
552.31	0.680
552.51	0.680
552.71	0.675
552.90	0.675
553.10	0.676
553.30	0.677
553.50	0.676
553.69	0.677
553.89	0.678
554.09	0.678
554.28	0.674
554.48	0.676
554.68	0.678
554.87	0.677
555.07	0.674
555.27	0.674
555.47	0.675
555.66	0.675
555.86	0.673
556.06	0.676
556.25	0.678
556.45	0.685
556.65	0.684
556.84	0.686
557.04	0.690
557.24	0.691
557.43	0.691
557.63	0.694
557.83	0.697
558.02	0.699
558.22	0.702
558.42	0.702
558.61	0.695
558.81	0.695
559.01	0.691
559.21	0.691
559.40	0.692
559.60	0.692
559.80	0.689
559.99	0.689
560.19	0.690
560.39	0.685
560.58	0.683
560.78	0.683
560.97	0.686
561.17	0.686
561.37	0.684
561.56	0.684
561.76	0.686
561.96	0.685
562.15	0.683
562.35	0.685
562.55	0.686
562.74	0.687
562.94	0.685
563.14	0.683
563.33	0.684
563.53	0.684
563.73	0.682
563.92	0.683
564.12	0.686
564.31	0.687
564.51	0.686
564.71	0.687
564.90	0.690
565.10	0.691
565.30	0.694
565.49	0.694
565.69	0.696
565.89	0.697
566.08	0.694
566.28	0.696
566.47	0.698
566.67	0.696
566.87	0.694
567.06	0.695
567.26	0.701
567.46	0.697
567.65	0.697
567.85	0.698
568.04	0.701
568.24	0.700
568.44	0.696
568.63	0.695
568.83	0.696
569.02	0.695
569.22	0.691
569.42	0.687
569.61	0.689
569.81	0.688
570.00	0.686
570.20	0.687
570.40	0.688
570.59	0.688
570.79	0.686
570.98	0.684
571.18	0.686
571.38	0.685
571.57	0.683
571.77	0.681
571.96	0.685
572.16	0.682
572.35	0.678
572.55	0.679
572.75	0.676
572.94	0.676
573.14	0.675
573.33	0.674
573.53	0.675
573.73	0.674
573.92	0.672
574.12	0.670
574.31	0.672
574.51	0.673
574.70	0.670
574.90	0.671
575.09	0.673
575.29	0.673
575.49	0.671
575.68	0.671
575.88	0.672
576.07	0.673
576.27	0.671
576.46	0.669
576.66	0.669
576.86	0.668
577.05	0.666
577.25	0.664
577.44	0.666
577.64	0.666
577.83	0.664
578.03	0.666
578.22	0.666
578.42	0.666
578.61	0.664
578.81	0.665
579.00	0.665
579.20	0.664
579.40	0.663
579.59	0.662
579.79	0.663
579.98	0.662
580.18	0.661
580.37	0.661
580.57	0.663
580.76	0.666
580.96	0.665
581.15	0.666
581.35	0.668
581.54	0.667
581.74	0.666
581.93	0.668
582.13	0.670
582.32	0.666
582.52	0.665
582.71	0.664
582.91	0.660
583.10	0.660
583.30	0.659
583.49	0.658
583.69	0.662
583.88	0.663
584.08	0.662
584.27	0.664
584.47	0.668
584.66	0.668
584.86	0.668
585.05	0.669
585.25	0.672
585.44	0.672
585.64	0.670
585.83	0.667
586.03	0.667
586.22	0.665
586.42	0.661
586.61	0.662
586.81	0.665
587.00	0.664
587.20	0.662
587.39	0.663
587.59	0.664
587.78	0.666
587.98	0.666
588.17	0.667
588.37	0.670
588.56	0.672
588.76	0.668
588.95	0.668
589.15	0.672
589.34	0.675
589.54	0.673
589.73	0.674
589.92	0.677
590.12	0.678
590.31	0.676
590.51	0.681
590.70	0.683
590.90	0.683
591.09	0.681
591.29	0.680
591.48	0.680
591.68	0.681
591.87	0.679
592.06	0.679
592.26	0.681
592.45	0.680
592.65	0.674
592.84	0.673
593.04	0.676
593.23	0.678
593.43	0.676
593.62	0.675
593.81	0.675
594.01	0.675
594.20	0.673
594.40	0.671
594.59	0.672
594.79	0.673
594.98	0.671
595.17	0.670
595.37	0.670
595.56	0.672
595.76	0.672
595.95	0.674
596.14	0.677
596.34	0.678
596.53	0.678
596.73	0.680
596.92	0.681
597.12	0.684
597.31	0.684
597.50	0.684
597.70	0.686
597.89	0.686
598.09	0.682
598.28	0.683
598.47	0.685
598.67	0.683
598.86	0.679
599.06	0.681
599.25	0.681
599.44	0.679
599.64	0.677
599.83	0.674
600.03	0.676
600.22	0.677
600.41	0.676
600.61	0.674
600.80	0.677
601.00	0.677
601.19	0.673
601.38	0.671
601.58	0.673
601.77	0.675
601.96	0.677
602.16	0.677
602.35	0.686
602.55	0.684
602.74	0.684
602.93	0.686
603.13	0.691
603.32	0.692
603.51	0.692
603.71	0.696
603.90	0.698
604.09	0.698
604.29	0.696
604.48	0.690
604.68	0.692
604.87	0.690
605.06	0.686
605.26	0.683
605.45	0.684
605.64	0.683
605.84	0.678
606.03	0.677
606.22	0.676
606.42	0.675
606.61	0.671
606.80	0.671
607.00	0.672
607.19	0.673
607.38	0.672
607.58	0.673
607.77	0.675
607.96	0.675
608.16	0.674
608.35	0.678
608.54	0.681
608.74	0.684
608.93	0.689
609.12	0.691
609.32	0.694
609.51	0.697
609.70	0.696
609.90	0.698
610.09	0.703
610.28	0.708
610.48	0.702
610.67	0.704
610.86	0.704
611.06	0.698
611.25	0.697
611.44	0.698
611.64	0.698
611.83	0.700
612.02	0.697
612.21	0.695
612.41	0.694
612.60	0.692
612.79	0.689
612.99	0.689
613.18	0.692
613.37	0.689
613.57	0.686
613.76	0.688
613.95	0.685
614.14	0.685
614.34	0.682
614.53	0.683
614.72	0.685
614.92	0.686
615.11	0.683
615.30	0.679
615.49	0.681
615.69	0.683
615.88	0.679
616.07	0.680
616.26	0.682
616.46	0.684
616.65	0.681
616.84	0.680
617.04	0.681
617.23	0.684
617.42	0.685
617.61	0.688
617.81	0.688
618.00	0.690
618.19	0.689
618.38	0.693
618.58	0.696
618.77	0.697
618.96	0.697
619.15	0.700
619.35	0.701
619.54	0.702
619.73	0.698
619.92	0.702
620.12	0.706
620.31	0.706
620.50	0.701
620.69	0.701
620.89	0.704
621.08	0.704
621.27	0.704
621.46	0.703
621.66	0.706
621.85	0.706
622.04	0.702
622.23	0.702
622.43	0.703
622.62	0.702
622.81	0.701
623.00	0.699
623.19	0.703
623.39	0.702
623.58	0.699
623.77	0.698
623.96	0.701
624.16	0.701
624.35	0.696
624.54	0.699
624.73	0.702
624.92	0.700
625.12	0.698
625.31	0.699
625.50	0.701
625.69	0.702
625.88	0.698
626.08	0.698
626.27	0.699
626.46	0.700
626.65	0.696
626.84	0.697
627.04	0.702
627.23	0.702
627.42	0.697
627.61	0.699
627.80	0.701
628.00	0.702
628.19	0.700
628.38	0.703
628.57	0.706
628.76	0.705
628.96	0.702
629.15	0.703
629.34	0.706
629.53	0.706
629.72	0.701
629.91	0.702
630.11	0.706
630.30	0.706
630.49	0.709
630.68	0.709
630.87	0.712
631.06	0.714
631.26	0.709
631.45	0.711
631.64	0.718
631.83	0.719
632.02	0.716
632.21	0.715
632.41	0.723
632.60	0.718
632.79	0.716
632.98	0.716
633.17	0.716
633.36	0.719
633.55	0.715
633.75	0.711
633.94	0.714
634.13	0.715
634.32	0.713
634.51	0.707
634.70	0.709
634.89	0.709
635.09	0.705
635.28	0.706
635.47	0.706
635.66	0.709
635.85	0.706
636.04	0.707
636.23	0.711
636.43	0.712
636.62	0.712
636.81	0.711
637.00	0.712
637.19	0.716
637.38	0.713
637.57	0.713
637.76	0.714
637.95	0.714
638.15	0.710
638.34	0.707
638.53	0.709
638.72	0.712
638.91	0.709
639.10	0.708
639.29	0.708
639.48	0.708
639.67	0.708
639.87	0.708
640.06	0.714
640.25	0.714
640.44	0.715
640.63	0.716
640.82	0.717
641.01	0.717
641.20	0.717
641.39	0.718
641.58	0.721
641.78	0.721
641.97	0.717
642.16	0.730
642.35	0.731
642.54	0.728
642.73	0.723
642.92	0.722
643.11	0.725
643.30	0.724
643.49	0.719
643.68	0.721
643.87	0.722
644.06	0.721
644.25	0.701
644.45	0.704
644.64	0.706
644.83	0.707
645.02	0.704
645.21	0.703
645.40	0.705
645.59	0.705
645.78	0.700
645.97	0.703
646.16	0.704
646.35	0.704
646.54	0.701
646.73	0.703
646.92	0.704
647.11	0.703
647.30	0.700
647.49	0.702
647.68	0.701
647.88	0.699
648.07	0.692
648.26	0.695
648.45	0.697
648.64	0.694
648.83	0.691
649.02	0.694
649.21	0.704
649.40	0.702
649.59	0.697
649.78	0.698
649.97	0.713
650.16	0.712
650.35	0.707
650.54	0.710
650.73	0.718
650.92	0.715
651.11	0.708
651.30	0.706
651.49	0.710
651.68	0.710
651.87	0.707
652.06	0.697
652.25	0.700
652.44	0.703
652.63	0.701
652.82	0.702
653.01	0.704
653.20	0.701
653.39	0.690
653.58	0.688
653.77	0.687
653.96	0.683
654.15	0.676
654.34	0.675
654.53	0.669
654.72	0.663
654.91	0.653
655.10	0.648
655.29	0.647
655.48	0.645
655.67	0.640
655.86	0.637
656.05	0.636
656.24	0.635
656.43	0.629
656.62	0.628
656.81	0.627
657.00	0.624
657.19	0.621
657.38	0.620
657.57	0.619
657.76	0.620
657.95	0.618
658.14	0.621
658.33	0.623
658.51	0.627
658.70	0.628
658.89	0.629
659.08	0.639
659.27	0.647
659.46	0.647
659.65	0.654
659.84	0.658
660.03	0.662
660.22	0.663
660.41	0.668
660.60	0.668
660.79	0.669
660.98	0.675
661.17	0.674
661.36	0.674
661.55	0.675
661.74	0.673
661.92	0.675
662.11	0.677
662.30	0.676
662.49	0.669
662.68	0.668
662.87	0.670
663.06	0.665
663.25	0.666
663.44	0.666
663.63	0.668
663.82	0.666
664.01	0.661
664.20	0.659
664.38	0.660
664.57	0.660
664.76	0.659
664.95	0.661
665.14	0.665
665.33	0.660
665.52	0.667
665.71	0.671
665.90	0.670
666.09	0.672
666.28	0.671
666.46	0.670
666.65	0.670
666.84	0.668
667.03	0.663
667.22	0.661
667.41	0.664
667.60	0.654
667.79	0.647
667.98	0.648
668.16	0.648
668.35	0.648
668.54	0.644
668.73	0.646
668.92	0.646
669.11	0.644
669.30	0.639
669.49	0.635
669.67	0.636
669.86	0.638
670.05	0.636
670.24	0.634
670.43	0.632
670.62	0.631
670.81	0.626
671.00	0.628
671.18	0.628
671.37	0.628
671.56	0.626
671.75	0.626
671.94	0.622
672.13	0.620
672.32	0.615
672.50	0.614
672.69	0.615
672.88	0.615
673.07	0.610
673.26	0.612
673.45	0.612
673.63	0.612
673.82	0.609
674.01	0.611
674.20	0.611
674.39	0.610
674.58	0.610
674.76	0.610
674.95	0.609
675.14	0.609
675.33	0.605
675.52	0.604
675.71	0.603
675.89	0.602
676.08	0.598
676.27	0.598
676.46	0.599
676.65	0.599
676.84	0.598
677.02	0.600
677.21	0.601
677.40	0.600
677.59	0.598
677.78	0.599
677.96	0.601
678.15	0.601
678.34	0.598
678.53	0.599
678.72	0.598
678.90	0.595
679.09	0.591
679.28	0.588
679.47	0.588
679.66	0.587
679.84	0.584
680.03	0.582
680.22	0.580
680.41	0.582
680.60	0.578
680.78	0.578
680.97	0.580
681.16	0.581
681.35	0.580
681.53	0.579
681.72	0.581
681.91	0.582
682.10	0.581
682.29	0.584
682.47	0.582
682.66	0.582
682.85	0.580
683.04	0.578
683.22	0.578
683.41	0.580
683.60	0.578
683.79	0.579
683.97	0.578
684.16	0.576
684.35	0.572
684.54	0.574
684.72	0.573
684.91	0.574
685.10	0.573
685.29	0.574
685.47	0.571
685.66	0.570
685.85	0.567
686.04	0.565
686.22	0.568
686.41	0.570
686.60	0.567
686.79	0.570
686.97	0.571
687.16	0.572
687.35	0.570
687.54	0.573
687.72	0.577
687.91	0.577
688.10	0.579
688.29	0.579
688.47	0.577
688.66	0.578
688.85	0.574
689.03	0.571
689.22	0.576
689.41	0.576
689.60	0.572
689.78	0.569
689.97	0.570
690.16	0.566
690.34	0.563
690.53	0.563
690.72	0.562
690.91	0.560
691.09	0.558
691.28	0.552
691.47	0.550
691.65	0.549
691.84	0.546
692.03	0.545
692.21	0.543
692.40	0.543
692.59	0.540
692.77	0.540
692.96	0.541
693.15	0.541
693.34	0.539
693.52	0.538
693.71	0.538
693.90	0.539
694.08	0.540
694.27	0.541
694.46	0.550
694.64	0.551
694.83	0.551
695.02	0.550
695.20	0.550
695.39	0.549
695.58	0.550
695.76	0.551
695.95	0.550
696.14	0.549
696.32	0.547
696.51	0.538
696.70	0.538
696.88	0.539
697.07	0.538
697.26	0.539
697.44	0.540
697.63	0.539
697.81	0.537
698.00	0.537
698.19	0.536
698.37	0.536
698.56	0.535
698.75	0.535
698.93	0.534
699.12	0.534
699.31	0.533
699.49	0.533
699.68	0.533
699.87	0.535
700.05	0.535
700.24	0.535
700.42	0.536
700.61	0.536
700.80	0.534
700.98	0.535
701.17	0.536
701.36	0.535
701.54	0.534
701.73	0.535
701.91	0.532
702.10	0.531
702.29	0.529
702.47	0.528
702.66	0.530
702.84	0.531
703.03	0.529
703.22	0.531
703.40	0.530
703.59	0.532
703.77	0.531
703.96	0.531
704.15	0.533
704.33	0.533
704.52	0.533
704.70	0.532
704.89	0.532
705.08	0.530
705.26	0.526
705.45	0.526
705.63	0.525
705.82	0.523
706.00	0.521
706.19	0.521
706.38	0.521
706.56	0.521
706.75	0.519
706.93	0.517
707.12	0.519
707.30	0.519
707.49	0.517
707.68	0.515
707.86	0.515
708.05	0.514
708.23	0.511
708.42	0.511
708.60	0.514
708.79	0.514
708.98	0.512
709.16	0.511
709.35	0.513
709.53	0.517
709.72	0.516
709.90	0.518
710.09	0.519
710.27	0.521
710.46	0.525
710.64	0.523
710.83	0.525
711.02	0.527
711.20	0.526
711.39	0.524
711.57	0.522
711.76	0.523
711.94	0.521
712.13	0.522
712.31	0.522
712.50	0.517
712.68	0.515
712.87	0.516
713.05	0.516
713.24	0.517
713.42	0.516
713.61	0.517
713.79	0.517
713.98	0.517
714.16	0.518
714.35	0.518
714.54	0.519
714.72	0.519
714.91	0.517
715.09	0.523
715.28	0.526
715.46	0.526
715.65	0.524
715.83	0.523
716.02	0.525
716.20	0.522
716.39	0.521
716.57	0.522
716.76	0.525
716.94	0.525
717.12	0.518
717.31	0.519
717.49	0.521
717.68	0.523
717.86	0.523
718.05	0.525
718.23	0.527
718.42	0.529
718.60	0.530
718.79	0.538
718.97	0.539
719.16	0.539
719.34	0.536
719.53	0.536
719.71	0.535
719.90	0.537
720.08	0.533
720.27	0.534
720.45	0.534
720.63	0.533
720.82	0.527
721.00	0.529
721.19	0.533
721.37	0.533
721.56	0.533
721.74	0.536
721.93	0.545
722.11	0.552
722.30	0.552
722.48	0.555
722.66	0.557
722.85	0.557
723.03	0.557
723.22	0.556
723.40	0.559
723.59	0.558
723.77	0.562
723.95	0.556
724.14	0.557
724.32	0.559
724.51	0.559
724.69	0.560
724.88	0.559
725.06	0.558
725.24	0.559
725.43	0.561
725.61	0.563
725.80	0.557
725.98	0.555
726.16	0.551
726.35	0.556
726.53	0.554
726.72	0.554
726.90	0.564
727.09	0.563
727.27	0.568
727.45	0.566
727.64	0.576
727.82	0.583
728.01	0.588
728.19	0.586
728.37	0.591
728.56	0.594
728.74	0.600
728.92	0.590
729.11	0.592
729.29	0.591
729.48	0.593
729.66	0.583
729.84	0.583
730.03	0.585
730.21	0.589
730.40	0.580
730.58	0.581
730.76	0.580
730.95	0.582
731.13	0.581
731.31	0.595
731.50	0.604
731.68	0.606
731.86	0.603
732.05	0.618
732.23	0.620
732.42	0.623
732.60	0.626
732.78	0.633
732.97	0.651
733.15	0.658
733.33	0.645
733.52	0.653
733.70	0.661
733.88	0.670
734.07	0.654
734.25	0.678
734.43	0.686
734.62	0.690
734.80	0.685
734.98	0.675
735.17	0.681
735.35	0.688
735.53	0.676
735.72	0.680
735.90	0.700
736.08	0.721
736.27	0.699
736.45	0.708
736.63	0.718
736.82	0.727
737.00	0.727
737.18	0.737
737.37	0.767
737.55	0.790
737.73	0.785
737.92	0.787
738.10	0.779
738.28	0.797
738.46	0.786
738.65	0.797
738.83	0.816
739.01	0.865
739.20	0.855
739.38	0.839
739.56	0.827
739.75	0.833
739.93	0.804
740.11	0.829
740.29	0.827
740.48	0.833
740.66	0.816
740.84	0.812
741.03	0.779
741.21	0.792
741.39	0.777
741.57	0.791
741.76	0.802
741.94	0.803
742.12	0.772
742.31	0.777
742.49	0.795
742.67	0.815
742.85	0.826
743.04	0.827
743.22	0.835
743.40	0.877
743.58	0.862
743.77	0.878
743.95	0.911
744.13	0.955
744.31	0.938
744.50	0.933
744.68	0.933
744.86	0.911
745.04	0.921
745.23	0.983
745.41	0.966
745.59	0.968
745.77	0.936
745.96	0.924
746.14	0.937
746.32	0.942
746.50	0.931
746.69	0.913
746.87	0.922
747.05	0.914
747.23	0.841
747.42	0.831
747.60	0.852
747.78	0.858
747.96	0.889
748.14	0.843
748.33	0.864
748.51	0.861
748.69	0.854
748.87	0.876
749.06	0.872
749.24	0.874
749.42	0.862
749.60	0.848
749.78	0.852
749.97	0.807
750.15	0.802
750.33	0.808
750.51	0.830
750.69	0.837
750.88	0.846
751.06	0.853
751.24	0.871
751.42	0.861
751.60	0.855
751.79	0.921
751.97	0.966
752.15	0.967
752.33	0.937
752.51	0.997
752.69	1.008
752.88	0.975
753.06	1.026
753.24	1.009
753.42	1.038
753.60	1.194
753.78	1.060
753.97	1.073
754.15	1.086
754.33	1.105
754.51	0.998
754.69	0.985
754.87	1.007
755.06	0.939
755.24	0.939
755.42	0.948
755.60	0.853
755.78	0.863
755.96	0.817
756.15	0.815
756.33	0.820
756.51	0.835
756.69	0.825
756.87	0.794
757.05	0.808
757.23	0.797
757.42	0.769
757.60	0.768
757.78	0.757
757.96	0.754
758.14	0.741
758.32	0.727
758.50	0.738
758.69	0.736
758.87	0.729
759.05	0.731
759.23	0.738
759.41	0.739
759.59	0.737
759.77	0.756
759.95	0.780
760.13	0.826
760.32	0.824
760.50	0.818
760.68	0.835
760.86	0.836
761.04	0.815
761.22	0.817
761.40	0.860
761.58	0.857
761.76	0.834
761.95	0.818
762.13	0.776
762.31	0.777
762.49	0.753
762.67	0.772
762.85	0.785
763.03	0.781
763.21	0.767
763.39	0.749
763.57	0.751
763.75	0.747
763.94	0.735
764.12	0.737
764.30	0.761
764.48	0.763
764.66	0.730
764.84	0.726
765.02	0.759
765.20	0.764
765.38	0.746
765.56	0.753
765.74	0.791
765.92	0.791
766.10	0.800
766.28	0.791
766.46	0.816
766.65	0.817
766.83	0.808
767.01	0.793
767.19	0.800
767.37	0.801
767.55	0.789
767.73	0.768
767.91	0.769
768.09	0.756
768.27	0.746
768.45	0.736
768.63	0.741
768.81	0.742
768.99	0.721
769.17	0.742
769.35	0.753
769.53	0.750
769.71	0.733
769.89	0.739
770.07	0.743
770.25	0.728
770.43	0.708
770.61	0.730
770.79	0.735
770.97	0.742
771.15	0.714
771.33	0.716
771.51	0.719
771.69	0.729
771.87	0.738
772.05	0.743
772.24	0.753
772.42	0.761
772.60	0.740
772.78	0.797
772.96	0.822
773.14	0.819
773.32	0.802
773.49	0.812
773.67	0.808
773.85	0.789
774.03	0.776
774.21	0.805
774.39	0.815
774.57	0.835
774.75	0.769
774.93	0.766
775.11	0.788
775.29	0.791
775.47	0.790
775.65	0.801
775.83	0.817
776.01	0.838
776.19	0.796
776.37	0.796
776.55	0.796
776.73	0.790
776.91	0.785
777.09	0.769
777.27	0.767
777.45	0.755
777.63	0.736
777.81	0.735
777.99	0.724
778.17	0.722
778.35	0.702
778.53	0.692
778.71	0.699
778.89	0.688
779.07	0.681
779.24	0.685
779.42	0.686
779.60	0.702
779.78	0.696
779.96	0.698
780.14	0.704
780.32	0.725
780.50	0.706
780.68	0.703
780.86	0.696
781.04	0.711
781.22	0.716
781.40	0.723
781.58	0.713
781.75	0.707
781.93	0.693
782.11	0.695
782.29	0.681
782.47	0.685
782.65	0.673
782.83	0.697
783.01	0.689
783.19	0.683
783.37	0.672
783.55	0.676
783.72	0.692
783.90	0.704
784.08	0.696
784.26	0.707
784.44	0.724
784.62	0.727
784.80	0.698
784.98	0.706
785.16	0.710
785.33	0.725
785.51	0.712
785.69	0.700
785.87	0.698
786.05	0.707
786.23	0.704
786.41	0.698
786.59	0.706
786.77	0.706
786.94	0.693
787.12	0.697
787.30	0.696
787.48	0.694
787.66	0.684
787.84	0.684
788.02	0.674
788.19	0.673
788.37	0.665
788.55	0.666
788.73	0.666
788.91	0.661
789.09	0.648
789.27	0.638
789.44	0.647
789.62	0.652
789.80	0.662
789.98	0.685
790.16	0.670
790.34	0.665
790.51	0.651
790.69	0.668
790.87	0.674
791.05	0.668
791.23	0.663
791.41	0.664
791.58	0.669
791.76	0.649
791.94	0.623
792.12	0.633
792.30	0.636
792.48	0.635
792.65	0.629
792.83	0.635
793.01	0.641
793.19	0.639
793.37	0.626
793.54	0.624
793.72	0.634
793.90	0.633
794.08	0.622
794.26	0.621
794.43	0.628
794.61	0.614
794.79	0.605
794.97	0.603
795.15	0.610
795.32	0.612
795.50	0.603
795.68	0.597
795.86	0.601
796.04	0.602
796.21	0.599
796.39	0.597
796.57	0.609
796.75	0.615
796.92	0.617
797.10	0.621
797.28	0.622
797.46	0.626
797.64	0.630
797.81	0.637
797.99	0.641
798.17	0.645
798.35	0.639
798.52	0.641
798.70	0.636
798.88	0.645
799.06	0.644
799.23	0.646
799.41	0.651
799.59	0.643
799.77	0.633
799.94	0.641
800.12	0.648
800.30	0.667
800.48	0.669
800.65	0.671
800.83	0.660
801.01	0.653
801.19	0.656
801.36	0.652
801.54	0.656
801.72	0.665
801.90	0.652
802.07	0.649
802.25	0.633
802.43	0.618
802.60	0.615
802.78	0.621
802.96	0.626
803.14	0.620
803.31	0.621
803.49	0.621
803.67	0.616
803.84	0.621
804.02	0.613
804.20	0.616
804.38	0.620
804.55	0.618
804.73	0.606
804.91	0.605
805.08	0.615
805.26	0.610
805.44	0.672
805.61	0.674
805.79	0.674
805.97	0.675
806.15	0.667
806.32	0.662
806.50	0.669
806.68	0.668
806.85	0.660
807.03	0.653
807.21	0.668
807.38	0.605
807.56	0.596
807.74	0.604
807.91	0.610
808.09	0.612
808.27	0.630
808.44	0.652
808.62	0.658
808.80	0.660
808.97	0.655
809.15	0.649
809.33	0.663
809.50	0.671
809.68	0.657
809.86	0.663
810.03	0.692
810.21	0.674
810.39	0.659
810.56	0.667
810.74	0.688
810.91	0.756
811.09	0.745
811.27	0.766
811.44	0.771
811.62	0.775
811.80	0.759
811.97	0.730
812.15	0.730
812.33	0.725
812.50	0.713
812.68	0.702
812.85	0.648
813.03	0.651
813.21	0.622
813.38	0.615
813.56	0.617
813.74	0.627
813.91	0.636
814.09	0.663
814.26	0.657
814.44	0.659
814.62	0.651
814.79	0.654
814.97	0.656
815.14	0.660
815.32	0.663
815.50	0.679
815.67	0.681
815.85	0.669
816.02	0.657
816.20	0.665
816.38	0.677
816.55	0.684
816.73	0.684
816.90	0.694
817.08	0.722
817.26	0.728
817.43	0.710
817.61	0.733
817.78	0.752
817.96	0.736
818.13	0.725
818.31	0.724
818.49	0.736
818.66	0.727
818.84	0.714
819.01	0.693
819.19	0.696
819.36	0.697
819.54	0.672
819.71	0.711
819.89	0.722
820.07	0.734
820.24	0.729
820.42	0.727
820.59	0.746
820.77	0.766
820.94	0.760
821.12	0.777
821.29	0.791
821.47	0.788
821.64	0.730
821.82	0.741
822.00	0.738
822.17	0.737
822.35	0.730
822.52	0.733
822.70	0.724
822.87	0.732
823.05	0.713
823.22	0.724
823.40	0.748
823.57	0.770
823.75	0.755
823.92	0.774
824.10	0.788
824.27	0.827
824.45	0.817
824.62	0.874
824.80	0.886
824.97	0.899
825.15	0.886
825.32	0.900
825.50	0.898
825.67	0.909
825.85	0.894
826.02	0.908
826.20	0.919
826.37	1.022
826.55	0.957
826.72	1.122
826.90	1.183
827.07	1.232
827.25	1.183
827.42	1.309
827.60	1.402
827.77	1.510
827.95	1.499
828.12	1.617
828.30	1.347
828.47	1.427
828.65	1.137
828.82	1.172
829.00	1.206
829.17	1.266
829.34	1.267
829.52	1.285
829.69	-0.000
829.87	-0.000
830.04	-0.000
830.22	-0.000
830.39	-0.000
830.57	-0.000
830.74	-0.000
830.92	-0.000
831.09	-0.000
831.26	-0.000
831.44	-0.000
831.61	-0.000
831.79	-0.000
831.96	-0.000
832.14	-0.000
832.31	-0.000
832.49	-0.000
832.66	-0.000
832.83	-0.000
833.01	-0.000
833.18	-0.000
833.36	-0.000
833.53	-0.000
833.70	-0.000
833.88	-0.000
834.05	-0.000
834.23	-0.000
834.40	-0.000
834.58	-0.000
834.75	-0.000
834.92	-0.000
835.10	-0.000
835.27	-0.000
835.45	-0.000
835.62	-0.000
835.79	-0.000
835.97	-0.000
836.14	-0.000
836.32	-0.000
836.49	-0.000
836.66	-0.000
836.84	-0.000
837.01	-0.000
837.18	-0.000
837.36	-0.000
837.53	-0.000
837.71	-0.000
837.88	-0.000
838.05	-0.000
838.23	-0.000
838.40	-0.000
838.58	-0.000
838.75	-0.000
838.92	-0.000
839.10	-0.000
839.27	-0.000
839.44	-0.000
839.62	-0.000
839.79	-0.000
839.96	-0.000
840.14	-0.000
840.31	-0.000
840.48	-0.000
840.66	-0.000
840.83	-0.000
841.01	-0.000
841.18	-0.000
841.35	-0.000
841.53	-0.000
841.70	-0.000
841.87	-0.000
842.05	-0.000
842.22	-0.000
842.39	-0.000
842.57	-0.000
842.74	-0.000
842.91	-0.000
843.09	-0.000
843.26	-0.000
843.43	-0.000
843.60	-0.000
843.78	-0.000
843.95	-0.000
844.12	-0.000
844.30	-0.000
844.47	-0.000
844.64	-0.000
844.82	-0.000
844.99	-0.000
845.16	-0.000
845.34	-0.000
845.51	-0.000
845.68	-0.000
845.85	-0.000
846.03	-0.000
846.20	-0.000
846.37	-0.000
846.55	-0.000
846.72	-0.000
846.89	-0.000
847.06	-0.000
847.24	-0.000
847.41	-0.000
847.58	-0.000
847.76	-0.000
847.93	-0.000
848.10	-0.000
848.27	-0.000
848.45	-0.000
848.62	-0.000
848.79	-0.000
848.97	-0.000
849.14	-0.000
849.31	-0.000
849.48	-0.000
849.66	-0.000
849.83	-0.000
850.00	-0.000
850.17	-0.000
850.35	-0.000
850.52	-0.000
850.69	-0.000
850.86	-0.000
851.04	-0.000
851.21	-0.000
851.38	-0.000
851.55	-0.000
851.72	-0.000
851.90	-0.000
852.07	-0.000
852.24	-0.000
852.41	-0.000
852.59	-0.000
852.76	-0.000
852.93	-0.000
853.10	-0.000
853.28	-0.000
853.45	-0.000
853.62	-0.000
853.79	-0.000
853.96	-0.000
854.14	-0.000
854.31	-0.000
854.48	-0.000
854.65	-0.000
854.82	-0.000
855.00	-0.000
855.17	-0.000
855.34	-0.000
855.51	-0.000
855.68	-0.000
855.86	-0.000
856.03	-0.000
856.20	-0.000
856.37	-0.000
856.54	-0.000
856.72	-0.000
856.89	-0.000
857.06	-0.000
857.23	-0.000
857.40	-0.000
857.57	-0.000
857.75	-0.000
857.92	-0.000
858.09	-0.000
858.26	-0.000
858.43	-0.000
858.60	-0.000
858.78	-0.000
858.95	-0.000
859.12	-0.000
859.29	-0.000
859.46	-0.000
859.63	-0.000
859.81	-0.000
859.98	-0.000
860.15	-0.000
860.32	-0.000
860.49	-0.000
860.66	-0.000
860.83	-0.000
861.01	-0.000
861.18	-0.000
861.35	-0.000
861.52	-0.000
861.69	-0.000
861.86	-0.000
862.03	-0.000
862.21	-0.000
862.38	-0.000
862.55	-0.000
862.72	-0.000
862.89	-0.000
863.06	-0.000
863.23	-0.000
863.40	-0.000
863.58	-0.000
863.75	-0.000
863.92	-0.000
864.09	-0.000
864.26	-0.000
864.43	-0.000
864.60	-0.000
864.77	-0.000
864.94	-0.000
865.11	-0.000
865.29	-0.000
865.46	-0.000
865.63	-0.000
865.80	-0.000
865.97	-0.000
866.14	-0.000
866.31	-0.000
866.48	-0.000
866.65	-0.000
866.82	-0.000
866.99	-0.000
867.16	-0.000
867.34	-0.000
867.51	-0.000
867.68	-0.000
867.85	-0.000
868.02	-0.000
868.19	-0.000
868.36	-0.000
868.53	-0.000
868.70	-0.000
868.87	-0.000
869.04	-0.000
869.21	-0.000
869.38	-0.000
869.55	-0.000
869.72	-0.000
869.89	-0.000
870.06	-0.000
870.24	-0.000
870.41	-0.000
870.58	-0.000
870.75	-0.000
870.92	-0.000
871.09	-0.000
871.26	-0.000
871.43	-0.000
871.60	-0.000
871.77	-0.000
871.94	-0.000
872.11	-0.000
872.28	-0.000
872.45	-0.000
872.62	-0.000
872.79	-0.000
872.96	-0.000
873.13	-0.000
873.30	-0.000
873.47	-0.000
873.64	-0.000
873.81	-0.000
873.98	-0.000
874.15	-0.000
874.32	-0.000
874.49	-0.000
874.66	-0.000
874.83	-0.000
875.00	-0.000
875.17	-0.000
875.34	-0.000
875.51	-0.000
875.68	-0.000
875.85	-0.000
876.02	-0.000
876.19	-0.000
876.36	-0.000
876.53	-0.000
876.70	-0.000
876.87	-0.000
877.04	-0.000
877.21	-0.000
877.38	-0.000
877.55	-0.000
877.72	-0.000
877.89	-0.000
878.06	-0.000
878.23	-0.000
878.39	-0.000
878.56	-0.000
878.73	-0.000
878.90	-0.000
879.07	-0.000
879.24	-0.000
879.41	-0.000
879.58	-0.000
879.75	-0.000
879.92	-0.000
880.09	-0.000
880.26	-0.000
880.43	-0.000
880.60	-0.000
880.77	-0.000
880.94	-0.000
881.11	-0.000
881.27	-0.000
881.44	-0.000
881.61	-0.000
881.78	-0.000
881.95	-0.000
882.12	-0.000
882.29	-0.000
882.46	-0.000
882.63	-0.000
882.80	-0.000
882.97	-0.000
883.14	-0.000
883.30	-0.000
883.47	-0.000
883.64	-0.000
883.81	-0.000
883.98	-0.000
884.15	-0.000
884.32	-0.000
884.49	-0.000
884.66	-0.000
884.82	-0.000
884.99	-0.000
885.16	-0.000
885.33	-0.000
885.50	-0.000
885.67	-0.000
885.84	-0.000
886.01	-0.000
886.17	-0.000
886.34	-0.000
886.51	-0.000
886.68	-0.000
886.85	-0.000
887.02	-0.000
887.19	-0.000
887.36	-0.000
887.52	-0.000
887.69	-0.000
887.86	-0.000
888.03	-0.000
888.20	-0.000
888.37	-0.000
888.54	-0.000
888.70	-0.000
888.87	-0.000
889.04	-0.000
889.21	-0.000
889.38	-0.000
889.55	-0.000
889.71	-0.000
889.88	-0.000
890.05	-0.000
890.22	-0.000
890.39	-0.000
>>>>>End Processed Spectral Data<<<<<
