SpectraSuite Data File
++++++++++++++++++++++++++++++++++++
Date: Fri Jun 19 14:59:34 CEST 2015
User: introlabs
Dark Spectrum Present: Yes
Reference Spectrum Present: Yes
Number of Sampled Component Spectra: 1
Spectrometers: USB4H08886
Integration Time (usec): 745692 (USB4H08886)
Spectra Averaged: 5 (USB4H08886)
Boxcar Smoothing: 5 (USB4H08886)
Correct for Electrical Dark: Yes (USB4H08886)
Strobe/Lamp Enabled: No (USB4H08886)
Correct for Detector Non-linearity: Yes (USB4H08886)
Correct for Stray Light: Yes (USB4H08886)
Number of Pixels in Processed Spectrum: 3648
>>>>>Begin Processed Spectral Data<<<<<
178.14	-0.000
178.36	-0.000
178.57	-0.000
178.79	-0.000
179.01	-0.000
179.22	-0.000
179.44	-0.000
179.65	-0.000
179.87	-0.000
180.08	-0.000
180.30	-0.000
180.52	-0.000
180.73	-0.000
180.95	-0.000
181.16	-0.000
181.38	-0.000
181.59	-0.000
181.81	-0.000
182.03	-0.000
182.24	-0.000
182.46	-0.000
182.67	-0.000
182.89	-0.000
183.10	-0.000
183.32	-0.000
183.54	-0.000
183.75	-0.000
183.97	-0.000
184.18	-0.000
184.40	-0.000
184.61	-0.000
184.83	-0.000
185.04	-0.000
185.26	-0.000
185.48	-0.000
185.69	-0.000
185.91	-0.000
186.12	-0.000
186.34	-0.000
186.55	-0.000
186.77	-0.000
186.98	-0.000
187.20	-0.000
187.42	-0.000
187.63	-0.000
187.85	-0.000
188.06	-0.000
188.28	-0.000
188.49	-0.000
188.71	-0.000
188.92	-0.000
189.14	-0.000
189.36	-0.000
189.57	-0.000
189.79	-0.000
190.00	-0.000
190.22	-0.000
190.43	-0.000
190.65	-0.000
190.86	-0.000
191.08	-0.000
191.29	-0.000
191.51	-0.000
191.72	-0.000
191.94	-0.000
192.16	-0.000
192.37	-0.000
192.59	-0.000
192.80	-0.000
193.02	-0.000
193.23	-0.000
193.45	-0.000
193.66	-0.000
193.88	-0.000
194.09	-0.000
194.31	-0.000
194.52	-0.000
194.74	-0.000
194.95	-0.000
195.17	-0.000
195.38	-0.000
195.60	-0.000
195.81	-0.000
196.03	-0.000
196.25	-0.000
196.46	-0.000
196.68	-0.000
196.89	-0.000
197.11	-0.000
197.32	-0.000
197.54	-0.000
197.75	-0.000
197.97	-0.000
198.18	-0.000
198.40	-0.000
198.61	-0.000
198.83	-0.000
199.04	-0.000
199.26	-0.000
199.47	-0.000
199.69	-0.000
199.90	-0.000
200.12	-0.000
200.33	-0.000
200.55	-0.000
200.76	-0.000
200.98	-0.000
201.19	-0.000
201.41	-0.000
201.62	-0.000
201.84	-0.000
202.05	-0.000
202.27	-0.000
202.48	-0.000
202.70	-0.000
202.91	-0.000
203.13	-0.000
203.34	-0.000
203.56	-0.000
203.77	-0.000
203.99	-0.000
204.20	-0.000
204.42	-0.000
204.63	-0.000
204.85	-0.000
205.06	-0.000
205.28	-0.000
205.49	-0.000
205.71	-0.000
205.92	-0.000
206.14	-0.000
206.35	-0.000
206.56	-0.000
206.78	-0.000
206.99	-0.000
207.21	-0.000
207.42	-0.000
207.64	-0.000
207.85	-0.000
208.07	-0.000
208.28	-0.000
208.50	-0.000
208.71	-0.000
208.93	-0.000
209.14	-0.000
209.36	-0.000
209.57	-0.000
209.79	-0.000
210.00	-0.000
210.22	-0.000
210.43	-0.000
210.64	-0.000
210.86	-0.000
211.07	-0.000
211.29	-0.000
211.50	-0.000
211.72	-0.000
211.93	-0.000
212.15	-0.000
212.36	-0.000
212.58	-0.000
212.79	-0.000
213.01	-0.000
213.22	-0.000
213.43	-0.000
213.65	-0.000
213.86	-0.000
214.08	-0.000
214.29	-0.000
214.51	-0.000
214.72	-0.000
214.94	-0.000
215.15	-0.000
215.36	-0.000
215.58	-0.000
215.79	-0.000
216.01	-0.000
216.22	-0.000
216.44	-0.000
216.65	-0.000
216.87	-0.000
217.08	-0.000
217.29	-0.000
217.51	-0.000
217.72	-0.000
217.94	-0.000
218.15	-0.000
218.37	-0.000
218.58	-0.000
218.80	-0.000
219.01	-0.000
219.22	-0.000
219.44	-0.000
219.65	-0.000
219.87	-0.000
220.08	-0.000
220.30	-0.000
220.51	-0.000
220.72	-0.000
220.94	-0.000
221.15	-0.000
221.37	-0.000
221.58	-0.000
221.79	-0.000
222.01	-0.000
222.22	-0.000
222.44	-0.000
222.65	-0.000
222.87	-0.000
223.08	-0.000
223.29	-0.000
223.51	-0.000
223.72	-0.000
223.94	-0.000
224.15	-0.000
224.36	-0.000
224.58	-0.000
224.79	-0.000
225.01	-0.000
225.22	-0.000
225.44	-0.000
225.65	-0.000
225.86	-0.000
226.08	-0.000
226.29	-0.000
226.51	-0.000
226.72	-0.000
226.93	-0.000
227.15	-0.000
227.36	-0.000
227.58	-0.000
227.79	-0.000
228.00	-0.000
228.22	-0.000
228.43	-0.000
228.65	-0.000
228.86	-0.000
229.07	-0.000
229.29	-0.000
229.50	-0.000
229.72	-0.000
229.93	-0.000
230.14	-0.000
230.36	-0.000
230.57	-0.000
230.78	-0.000
231.00	-0.000
231.21	-0.000
231.43	-0.000
231.64	-0.000
231.85	-0.000
232.07	-0.000
232.28	-0.000
232.50	-0.000
232.71	-0.000
232.92	-0.000
233.14	-0.000
233.35	-0.000
233.56	-0.000
233.78	-0.000
233.99	-0.000
234.21	-0.000
234.42	-0.000
234.63	-0.000
234.85	-0.000
235.06	-0.000
235.27	-0.000
235.49	-0.000
235.70	-0.000
235.91	-0.000
236.13	-0.000
236.34	-0.000
236.56	-0.000
236.77	-0.000
236.98	-0.000
237.20	-0.000
237.41	-0.000
237.62	-0.000
237.84	-0.000
238.05	-0.000
238.26	-0.000
238.48	-0.000
238.69	-0.000
238.91	-0.000
239.12	-0.000
239.33	-0.000
239.55	-0.000
239.76	-0.000
239.97	-0.000
240.19	-0.000
240.40	-0.000
240.61	-0.000
240.83	-0.000
241.04	-0.000
241.25	-0.000
241.47	-0.000
241.68	-0.000
241.89	-0.000
242.11	-0.000
242.32	-0.000
242.53	-0.000
242.75	-0.000
242.96	-0.000
243.17	-0.000
243.39	-0.000
243.60	-0.000
243.81	-0.000
244.03	-0.000
244.24	-0.000
244.45	-0.000
244.67	-0.000
244.88	-0.000
245.09	-0.000
245.31	-0.000
245.52	-0.000
245.73	-0.000
245.95	-0.000
246.16	-0.000
246.37	-0.000
246.59	-0.000
246.80	-0.000
247.01	-0.000
247.23	-0.000
247.44	-0.000
247.65	-0.000
247.87	-0.000
248.08	-0.000
248.29	-0.000
248.51	-0.000
248.72	-0.000
248.93	-0.000
249.15	-0.000
249.36	-0.000
249.57	-0.000
249.78	-0.000
250.00	-0.000
250.21	-0.000
250.42	-0.000
250.64	-0.000
250.85	-0.000
251.06	-0.000
251.28	-0.000
251.49	-0.000
251.70	-0.000
251.92	-0.000
252.13	-0.000
252.34	-0.000
252.55	-0.000
252.77	-0.000
252.98	-0.000
253.19	-0.000
253.41	-0.000
253.62	-0.000
253.83	-0.000
254.05	-0.000
254.26	-0.000
254.47	-0.000
254.68	-0.000
254.90	-0.000
255.11	-0.000
255.32	-0.000
255.54	-0.000
255.75	-0.000
255.96	-0.000
256.17	-0.000
256.39	-0.000
256.60	-0.000
256.81	-0.000
257.03	-0.000
257.24	-0.000
257.45	-0.000
257.66	-0.000
257.88	-0.000
258.09	-0.000
258.30	-0.000
258.51	-0.000
258.73	-0.000
258.94	-0.000
259.15	-0.000
259.37	-0.000
259.58	-0.000
259.79	-0.000
260.00	-0.000
260.22	-0.000
260.43	-0.000
260.64	-0.000
260.85	-0.000
261.07	-0.000
261.28	-0.000
261.49	-0.000
261.71	-0.000
261.92	-0.000
262.13	-0.000
262.34	-0.000
262.56	-0.000
262.77	-0.000
262.98	-0.000
263.19	-0.000
263.41	-0.000
263.62	-0.000
263.83	-0.000
264.04	-0.000
264.26	-0.000
264.47	-0.000
264.68	-0.000
264.89	-0.000
265.11	-0.000
265.32	-0.000
265.53	-0.000
265.74	-0.000
265.96	-0.000
266.17	-0.000
266.38	-0.000
266.59	-0.000
266.81	-0.000
267.02	-0.000
267.23	-0.000
267.44	-0.000
267.65	-0.000
267.87	-0.000
268.08	-0.000
268.29	-0.000
268.50	-0.000
268.72	-0.000
268.93	-0.000
269.14	-0.000
269.35	-0.000
269.57	-0.000
269.78	-0.000
269.99	-0.000
270.20	-0.000
270.41	-0.000
270.63	-0.000
270.84	-0.000
271.05	-0.000
271.26	-0.000
271.48	-0.000
271.69	-0.000
271.90	-0.000
272.11	-0.000
272.32	-0.000
272.54	-0.000
272.75	-0.000
272.96	-0.000
273.17	-0.000
273.39	-0.000
273.60	-0.000
273.81	-0.000
274.02	-0.000
274.23	-0.000
274.45	-0.000
274.66	-0.000
274.87	-0.000
275.08	-0.000
275.29	-0.000
275.51	-0.000
275.72	-0.000
275.93	-0.000
276.14	-0.000
276.35	-0.000
276.57	-0.000
276.78	-0.000
276.99	-0.000
277.20	-0.000
277.41	-0.000
277.63	-0.000
277.84	-0.000
278.05	-0.000
278.26	-0.000
278.47	-0.000
278.69	-0.000
278.90	-0.000
279.11	-0.000
279.32	-0.000
279.53	-0.000
279.74	-0.000
279.96	-0.000
280.17	-0.000
280.38	-0.000
280.59	-0.000
280.80	-0.000
281.02	-0.000
281.23	-0.000
281.44	-0.000
281.65	-0.000
281.86	-0.000
282.07	-0.000
282.29	-0.000
282.50	-0.000
282.71	-0.000
282.92	-0.000
283.13	-0.000
283.35	-0.000
283.56	-0.000
283.77	-0.000
283.98	-0.000
284.19	-0.000
284.40	-0.000
284.62	-0.000
284.83	-0.000
285.04	-0.000
285.25	-0.000
285.46	-0.000
285.67	-0.000
285.88	-0.000
286.10	-0.000
286.31	-0.000
286.52	-0.000
286.73	-0.000
286.94	-0.000
287.15	-0.000
287.37	-0.000
287.58	-0.000
287.79	-0.000
288.00	-0.000
288.21	-0.000
288.42	-0.000
288.63	-0.000
288.85	-0.000
289.06	-0.000
289.27	-0.000
289.48	-0.000
289.69	-0.000
289.90	-0.000
290.11	-0.000
290.33	-0.000
290.54	-0.000
290.75	-0.000
290.96	-0.000
291.17	-0.000
291.38	-0.000
291.59	-0.000
291.81	-0.000
292.02	-0.000
292.23	-0.000
292.44	-0.000
292.65	-0.000
292.86	-0.000
293.07	-0.000
293.28	-0.000
293.50	-0.000
293.71	-0.000
293.92	-0.000
294.13	-0.000
294.34	-0.000
294.55	-0.000
294.76	-0.000
294.97	-0.000
295.19	-0.000
295.40	-0.000
295.61	-0.000
295.82	-0.000
296.03	-0.000
296.24	-0.000
296.45	2.125
296.66	1.775
296.87	1.793
297.09	1.863
297.30	2.097
297.51	1.719
297.72	1.683
297.93	1.770
298.14	1.750
298.35	1.705
298.56	1.692
298.77	1.802
298.99	1.763
299.20	1.738
299.41	1.713
299.62	1.660
299.83	1.657
300.04	1.599
300.25	1.599
300.46	1.639
300.67	1.614
300.88	1.564
301.10	1.574
301.31	1.651
301.52	1.592
301.73	1.538
301.94	1.543
302.15	1.553
302.36	1.511
302.57	1.443
302.78	1.449
302.99	1.488
303.20	1.517
303.41	1.421
303.63	1.403
303.84	1.405
304.05	1.401
304.26	1.339
304.47	1.347
304.68	1.345
304.89	1.335
305.10	1.297
305.31	1.283
305.52	1.317
305.73	1.312
305.94	1.273
306.15	1.268
306.37	1.292
306.58	1.302
306.79	1.274
307.00	1.298
307.21	1.342
307.42	1.330
307.63	1.299
307.84	1.270
308.05	1.305
308.26	1.304
308.47	1.282
308.68	1.277
308.89	1.274
309.10	1.268
309.31	1.227
309.52	1.218
309.73	1.233
309.95	1.226
310.16	1.194
310.37	1.184
310.58	1.200
310.79	1.197
311.00	1.193
311.21	1.195
311.42	1.195
311.63	1.189
311.84	1.168
312.05	1.167
312.26	1.188
312.47	1.201
312.68	1.178
312.89	1.165
313.10	1.171
313.31	1.146
313.52	1.149
313.73	1.151
313.94	1.153
314.15	1.139
314.36	1.119
314.57	1.113
314.78	1.100
314.99	1.095
315.21	1.083
315.42	1.088
315.63	1.099
315.84	1.075
316.05	1.062
316.26	1.071
316.47	1.088
316.68	1.084
316.89	1.064
317.10	1.085
317.31	1.090
317.52	1.090
317.73	1.069
317.94	1.069
318.15	1.112
318.36	1.114
318.57	1.095
318.78	1.081
318.99	1.114
319.20	1.113
319.41	1.080
319.62	1.080
319.83	1.094
320.04	1.090
320.25	1.077
320.46	1.044
320.67	1.045
320.88	1.041
321.09	1.029
321.30	1.016
321.51	1.029
321.72	1.028
321.93	1.014
322.14	1.004
322.35	1.029
322.56	1.031
322.77	1.018
322.98	1.028
323.19	1.037
323.40	1.044
323.61	1.022
323.82	1.017
324.03	1.022
324.24	1.019
324.45	1.007
324.66	0.989
324.87	0.986
325.08	0.987
325.29	0.968
325.50	0.961
325.71	0.964
325.92	0.974
326.13	0.961
326.34	0.960
326.55	0.967
326.76	0.966
326.97	0.955
327.18	0.949
327.39	0.973
327.60	0.973
327.80	0.973
328.01	0.972
328.22	0.971
328.43	0.975
328.64	0.964
328.85	0.969
329.06	0.973
329.27	0.972
329.48	0.969
329.69	0.952
329.90	0.962
330.11	0.956
330.32	0.948
330.53	0.942
330.74	0.941
330.95	0.940
331.16	0.925
331.37	0.931
331.58	0.931
331.79	0.930
332.00	0.920
332.21	0.915
332.42	0.916
332.63	0.909
332.83	0.904
333.04	0.907
333.25	0.919
333.46	0.919
333.67	0.904
333.88	0.908
334.09	0.917
334.30	0.914
334.51	0.904
334.72	0.900
334.93	0.903
335.14	0.902
335.35	0.895
335.56	0.889
335.77	0.896
335.98	0.895
336.18	0.888
336.39	0.880
336.60	0.884
336.81	0.883
337.02	0.882
337.23	0.886
337.44	0.888
337.65	0.889
337.86	0.880
338.07	0.875
338.28	0.880
338.49	0.877
338.70	0.871
338.91	0.878
339.11	0.886
339.32	0.883
339.53	0.872
339.74	0.870
339.95	0.866
340.16	0.865
340.37	0.859
340.58	0.857
340.79	0.861
341.00	0.861
341.21	0.850
341.41	0.850
341.62	0.852
341.83	0.851
342.04	0.847
342.25	0.858
342.46	0.862
342.67	0.859
342.88	0.852
343.09	0.851
343.30	0.858
343.50	0.862
343.71	0.852
343.92	0.850
344.13	0.855
344.34	0.854
344.55	0.837
344.76	0.837
344.97	0.842
345.18	0.841
345.38	0.839
345.59	0.834
345.80	0.833
346.01	0.830
346.22	0.827
346.43	0.820
346.64	0.829
346.85	0.828
347.06	0.821
347.26	0.820
347.47	0.825
347.68	0.819
347.89	0.815
348.10	0.809
348.31	0.815
348.52	0.815
348.73	0.813
348.93	0.810
349.14	0.812
349.35	0.812
349.56	0.807
349.77	0.802
349.98	0.807
350.19	0.805
350.39	0.801
350.60	0.797
350.81	0.812
351.02	0.810
351.23	0.806
351.44	0.808
351.65	0.811
351.86	0.808
352.06	0.806
352.27	0.806
352.48	0.807
352.69	0.807
352.90	0.802
353.11	0.789
353.31	0.797
353.52	0.793
353.73	0.786
353.94	0.788
354.15	0.793
354.36	0.793
354.57	0.786
354.77	0.788
354.98	0.786
355.19	0.785
355.40	0.785
355.61	0.790
355.82	0.795
356.02	0.794
356.23	0.786
356.44	0.787
356.65	0.790
356.86	0.791
357.07	0.785
357.27	0.788
357.48	0.791
357.69	0.786
357.90	0.770
358.11	0.767
358.32	0.770
358.52	0.773
358.73	0.764
358.94	0.767
359.15	0.771
359.36	0.770
359.56	0.766
359.77	0.763
359.98	0.770
360.19	0.771
360.40	0.767
360.61	0.768
360.81	0.766
361.02	0.766
361.23	0.758
361.44	0.756
361.65	0.756
361.85	0.756
362.06	0.755
362.27	0.756
362.48	0.757
362.69	0.759
362.89	0.753
363.10	0.755
363.31	0.761
363.52	0.763
363.73	0.759
363.93	0.759
364.14	0.761
364.35	0.763
364.56	0.752
364.77	0.754
364.97	0.755
365.18	0.755
365.39	0.750
365.60	0.746
365.81	0.747
366.01	0.746
366.22	0.743
366.43	0.743
366.64	0.744
366.84	0.750
367.05	0.747
367.26	0.746
367.47	0.748
367.68	0.749
367.88	0.747
368.09	0.745
368.30	0.747
368.51	0.747
368.71	0.747
368.92	0.751
369.13	0.748
369.34	0.747
369.55	0.747
369.75	0.746
369.96	0.753
370.17	0.753
370.38	0.749
370.58	0.748
370.79	0.753
371.00	0.751
371.21	0.743
371.41	0.748
371.62	0.752
371.83	0.748
372.04	0.746
372.24	0.739
372.45	0.739
372.66	0.740
372.87	0.737
373.07	0.734
373.28	0.736
373.49	0.739
373.70	0.730
373.90	0.729
374.11	0.738
374.32	0.737
374.53	0.736
374.73	0.737
374.94	0.740
375.15	0.740
375.36	0.738
375.56	0.746
375.77	0.746
375.98	0.746
376.19	0.743
376.39	0.737
376.60	0.740
376.81	0.740
377.02	0.739
377.22	0.738
377.43	0.737
377.64	0.736
377.84	0.728
378.05	0.732
378.26	0.739
378.47	0.738
378.67	0.735
378.88	0.733
379.09	0.734
379.30	0.734
379.50	0.732
379.71	0.733
379.92	0.737
380.12	0.736
380.33	0.729
380.54	0.724
380.75	0.731
380.95	0.731
381.16	0.729
381.37	0.728
381.57	0.730
381.78	0.731
381.99	0.731
382.20	0.730
382.40	0.732
382.61	0.733
382.82	0.730
383.02	0.723
383.23	0.727
383.44	0.727
383.64	0.726
383.85	0.728
384.06	0.731
384.27	0.729
384.47	0.727
384.68	0.728
384.89	0.734
385.09	0.733
385.30	0.732
385.51	0.731
385.71	0.733
385.92	0.735
386.13	0.732
386.33	0.735
386.54	0.736
386.75	0.735
386.95	0.731
387.16	0.726
387.37	0.729
387.58	0.729
387.78	0.727
387.99	0.725
388.20	0.727
388.40	0.724
388.61	0.719
388.82	0.722
389.02	0.724
389.23	0.724
389.44	0.723
389.64	0.723
389.85	0.736
390.06	0.734
390.26	0.735
390.47	0.734
390.68	0.736
390.88	0.735
391.09	0.731
391.30	0.730
391.50	0.730
391.71	0.730
391.92	0.728
392.12	0.719
392.33	0.721
392.53	0.721
392.74	0.721
392.95	0.720
393.15	0.722
393.36	0.724
393.57	0.722
393.77	0.725
393.98	0.726
394.19	0.726
394.39	0.725
394.60	0.726
394.81	0.728
395.01	0.726
395.22	0.725
395.43	0.726
395.63	0.731
395.84	0.732
396.04	0.728
396.25	0.730
396.46	0.732
396.66	0.731
396.87	0.728
397.08	0.725
397.28	0.727
397.49	0.728
397.69	0.724
397.90	0.719
398.11	0.721
398.31	0.722
398.52	0.718
398.73	0.720
398.93	0.719
399.14	0.718
399.34	0.718
399.55	0.719
399.76	0.719
399.96	0.720
400.17	0.719
400.37	0.717
400.58	0.724
400.79	0.725
400.99	0.723
401.20	0.729
401.41	0.731
401.61	0.731
401.82	0.737
402.02	0.737
402.23	0.738
402.44	0.738
402.64	0.739
402.85	0.733
403.05	0.732
403.26	0.730
403.47	0.724
403.67	0.723
403.88	0.723
404.08	0.717
404.29	0.716
404.50	0.715
404.70	0.716
404.91	0.714
405.11	0.712
405.32	0.712
405.52	0.712
405.73	0.712
405.94	0.711
406.14	0.714
406.35	0.715
406.55	0.715
406.76	0.713
406.97	0.713
407.17	0.716
407.38	0.716
407.58	0.714
407.79	0.718
407.99	0.721
408.20	0.721
408.41	0.717
408.61	0.714
408.82	0.716
409.02	0.716
409.23	0.713
409.43	0.712
409.64	0.713
409.84	0.713
410.05	0.710
410.26	0.708
410.46	0.707
410.67	0.707
410.87	0.709
411.08	0.710
411.28	0.712
411.49	0.714
411.69	0.711
411.90	0.712
412.11	0.714
412.31	0.715
412.52	0.714
412.72	0.714
412.93	0.715
413.13	0.714
413.34	0.710
413.54	0.712
413.75	0.715
413.95	0.714
414.16	0.710
414.37	0.713
414.57	0.713
414.78	0.715
414.98	0.714
415.19	0.714
415.39	0.712
415.60	0.714
415.80	0.713
416.01	0.710
416.21	0.712
416.42	0.713
416.62	0.708
416.83	0.708
417.03	0.708
417.24	0.707
417.44	0.705
417.65	0.705
417.86	0.705
418.06	0.703
418.27	0.701
418.47	0.703
418.68	0.703
418.88	0.703
419.09	0.702
419.29	0.703
419.50	0.704
419.70	0.703
419.91	0.702
420.11	0.699
420.32	0.702
420.52	0.701
420.73	0.700
420.93	0.700
421.14	0.703
421.34	0.701
421.55	0.697
421.75	0.698
421.96	0.699
422.16	0.699
422.37	0.699
422.57	0.696
422.78	0.697
422.98	0.694
423.19	0.692
423.39	0.691
423.60	0.694
423.80	0.696
424.01	0.694
424.21	0.697
424.42	0.697
424.62	0.697
424.83	0.696
425.03	0.696
425.23	0.698
425.44	0.698
425.64	0.698
425.85	0.696
426.05	0.697
426.26	0.697
426.46	0.693
426.67	0.693
426.87	0.697
427.08	0.698
427.28	0.696
427.49	0.696
427.69	0.698
427.90	0.696
428.10	0.693
428.31	0.694
428.51	0.695
428.71	0.694
428.92	0.695
429.12	0.692
429.33	0.693
429.53	0.697
429.74	0.702
429.94	0.702
430.15	0.701
430.35	0.701
430.56	0.698
430.76	0.697
430.96	0.698
431.17	0.695
431.37	0.693
431.58	0.691
431.78	0.687
431.99	0.680
432.19	0.682
432.40	0.684
432.60	0.685
432.80	0.687
433.01	0.685
433.21	0.685
433.42	0.687
433.62	0.688
433.83	0.688
434.03	0.690
434.23	0.693
434.44	0.692
434.64	0.689
434.85	0.694
435.05	0.695
435.26	0.696
435.46	0.694
435.66	0.694
435.87	0.694
436.07	0.694
436.28	0.689
436.48	0.686
436.69	0.686
436.89	0.686
437.09	0.680
437.30	0.679
437.50	0.679
437.71	0.690
437.91	0.689
438.11	0.690
438.32	0.695
438.52	0.695
438.73	0.694
438.93	0.692
439.13	0.691
439.34	0.695
439.54	0.692
439.75	0.692
439.95	0.682
440.15	0.687
440.36	0.685
440.56	0.682
440.77	0.683
440.97	0.684
441.17	0.683
441.38	0.684
441.58	0.682
441.79	0.681
441.99	0.680
442.19	0.679
442.40	0.677
442.60	0.676
442.81	0.675
443.01	0.675
443.21	0.675
443.42	0.674
443.62	0.673
443.82	0.673
444.03	0.675
444.23	0.674
444.44	0.675
444.64	0.674
444.84	0.675
445.05	0.675
445.25	0.672
445.45	0.672
445.66	0.674
445.86	0.673
446.06	0.675
446.27	0.674
446.47	0.676
446.68	0.675
446.88	0.674
447.08	0.673
447.29	0.675
447.49	0.674
447.69	0.674
447.90	0.672
448.10	0.676
448.30	0.673
448.51	0.674
448.71	0.672
448.91	0.674
449.12	0.672
449.32	0.673
449.52	0.672
449.73	0.676
449.93	0.676
450.14	0.677
450.34	0.676
450.54	0.678
450.75	0.675
450.95	0.675
451.15	0.675
451.36	0.677
451.56	0.674
451.76	0.673
451.97	0.670
452.17	0.671
452.37	0.669
452.58	0.666
452.78	0.666
452.98	0.667
453.19	0.666
453.39	0.667
453.59	0.665
453.79	0.666
454.00	0.666
454.20	0.665
454.40	0.666
454.61	0.667
454.81	0.668
455.01	0.667
455.22	0.667
455.42	0.669
455.62	0.666
455.83	0.666
456.03	0.669
456.23	0.670
456.44	0.670
456.64	0.669
456.84	0.669
457.04	0.670
457.25	0.669
457.45	0.666
457.65	0.665
457.86	0.667
458.06	0.666
458.26	0.661
458.47	0.661
458.67	0.662
458.87	0.662
459.07	0.660
459.28	0.661
459.48	0.663
459.68	0.663
459.89	0.662
460.09	0.660
460.29	0.662
460.49	0.663
460.70	0.662
460.90	0.662
461.10	0.663
461.31	0.662
461.51	0.660
461.71	0.662
461.91	0.664
462.12	0.664
462.32	0.664
462.52	0.664
462.72	0.667
462.93	0.667
463.13	0.666
463.33	0.667
463.53	0.668
463.74	0.668
463.94	0.663
464.14	0.663
464.35	0.664
464.55	0.664
464.75	0.661
464.95	0.659
465.16	0.661
465.36	0.659
465.56	0.658
465.76	0.657
465.97	0.657
466.17	0.658
466.37	0.656
466.57	0.657
466.78	0.658
466.98	0.658
467.18	0.656
467.38	0.655
467.59	0.657
467.79	0.658
467.99	0.657
468.19	0.659
468.39	0.662
468.60	0.661
468.80	0.660
469.00	0.661
469.20	0.662
469.41	0.662
469.61	0.662
469.81	0.662
470.01	0.661
470.22	0.661
470.42	0.659
470.62	0.657
470.82	0.658
471.02	0.659
471.23	0.657
471.43	0.657
471.63	0.659
471.83	0.658
472.04	0.657
472.24	0.656
472.44	0.661
472.64	0.661
472.84	0.660
473.05	0.659
473.25	0.662
473.45	0.661
473.65	0.659
473.85	0.660
474.06	0.661
474.26	0.661
474.46	0.662
474.66	0.658
474.86	0.659
475.07	0.659
475.27	0.657
475.47	0.654
475.67	0.655
475.87	0.657
476.08	0.654
476.28	0.655
476.48	0.656
476.68	0.654
476.88	0.652
477.09	0.654
477.29	0.656
477.49	0.656
477.69	0.655
477.89	0.655
478.09	0.654
478.30	0.657
478.50	0.654
478.70	0.654
478.90	0.654
479.10	0.657
479.31	0.657
479.51	0.655
479.71	0.656
479.91	0.656
480.11	0.655
480.31	0.656
480.52	0.654
480.72	0.654
480.92	0.653
481.12	0.652
481.32	0.650
481.52	0.648
481.72	0.648
481.93	0.652
482.13	0.652
482.33	0.652
482.53	0.650
482.73	0.651
482.93	0.652
483.14	0.651
483.34	0.650
483.54	0.651
483.74	0.651
483.94	0.650
484.14	0.646
484.34	0.645
484.55	0.646
484.75	0.646
484.95	0.644
485.15	0.644
485.35	0.644
485.55	0.644
485.75	0.641
485.96	0.642
486.16	0.643
486.36	0.643
486.56	0.641
486.76	0.641
486.96	0.641
487.16	0.640
487.36	0.639
487.57	0.638
487.77	0.639
487.97	0.639
488.17	0.638
488.37	0.637
488.57	0.637
488.77	0.637
488.97	0.636
489.18	0.635
489.38	0.638
489.58	0.639
489.78	0.638
489.98	0.638
490.18	0.638
490.38	0.639
490.58	0.638
490.78	0.638
490.98	0.640
491.19	0.640
491.39	0.639
491.59	0.638
491.79	0.641
491.99	0.641
492.19	0.640
492.39	0.643
492.59	0.643
492.79	0.644
492.99	0.645
493.20	0.645
493.40	0.645
493.60	0.646
493.80	0.645
494.00	0.643
494.20	0.643
494.40	0.643
494.60	0.640
494.80	0.644
495.00	0.643
495.20	0.642
495.40	0.641
495.61	0.643
495.81	0.642
496.01	0.646
496.21	0.647
496.41	0.646
496.61	0.646
496.81	0.646
497.01	0.641
497.21	0.640
497.41	0.641
497.61	0.640
497.81	0.637
498.01	0.638
498.21	0.636
498.41	0.633
498.61	0.634
498.82	0.636
499.02	0.638
499.22	0.639
499.42	0.638
499.62	0.639
499.82	0.640
500.02	0.641
500.22	0.639
500.42	0.641
500.62	0.642
500.82	0.642
501.02	0.640
501.22	0.640
501.42	0.640
501.62	0.642
501.82	0.641
502.02	0.642
502.22	0.641
502.42	0.642
502.62	0.640
502.82	0.640
503.02	0.641
503.22	0.641
503.42	0.639
503.63	0.639
503.83	0.636
504.03	0.635
504.23	0.634
504.43	0.635
504.63	0.636
504.83	0.635
505.03	0.634
505.23	0.635
505.43	0.637
505.63	0.637
505.83	0.637
506.03	0.639
506.23	0.641
506.43	0.642
506.63	0.641
506.83	0.639
507.03	0.641
507.23	0.642
507.43	0.640
507.63	0.641
507.83	0.641
508.03	0.642
508.23	0.641
508.43	0.639
508.63	0.640
508.83	0.641
509.03	0.642
509.23	0.641
509.43	0.642
509.63	0.642
509.83	0.640
510.03	0.643
510.23	0.644
510.43	0.645
510.63	0.645
510.83	0.645
511.03	0.647
511.23	0.644
511.43	0.644
511.63	0.646
511.83	0.648
512.03	0.648
512.22	0.644
512.42	0.644
512.62	0.645
512.82	0.644
513.02	0.644
513.22	0.644
513.42	0.645
513.62	0.648
513.82	0.645
514.02	0.645
514.22	0.646
514.42	0.646
514.62	0.646
514.82	0.646
515.02	0.648
515.22	0.651
515.42	0.650
515.62	0.652
515.82	0.651
516.02	0.653
516.22	0.652
516.42	0.653
516.62	0.656
516.82	0.657
517.01	0.655
517.21	0.655
517.41	0.659
517.61	0.659
517.81	0.656
518.01	0.655
518.21	0.654
518.41	0.654
518.61	0.652
518.81	0.652
519.01	0.653
519.21	0.653
519.41	0.652
519.61	0.646
519.81	0.649
520.00	0.649
520.20	0.650
520.40	0.653
520.60	0.653
520.80	0.652
521.00	0.653
521.20	0.654
521.40	0.659
521.60	0.660
521.80	0.659
522.00	0.659
522.20	0.662
522.39	0.661
522.59	0.658
522.79	0.659
522.99	0.662
523.19	0.660
523.39	0.657
523.59	0.655
523.79	0.658
523.99	0.660
524.19	0.659
524.38	0.658
524.58	0.660
524.78	0.660
524.98	0.659
525.18	0.661
525.38	0.662
525.58	0.662
525.78	0.660
525.98	0.658
526.18	0.659
526.37	0.658
526.57	0.661
526.77	0.660
526.97	0.660
527.17	0.660
527.37	0.656
527.57	0.658
527.77	0.660
527.96	0.660
528.16	0.659
528.36	0.660
528.56	0.662
528.76	0.659
528.96	0.658
529.16	0.659
529.36	0.663
529.55	0.663
529.75	0.660
529.95	0.660
530.15	0.661
530.35	0.663
530.55	0.660
530.75	0.661
530.94	0.662
531.14	0.662
531.34	0.661
531.54	0.659
531.74	0.662
531.94	0.665
532.13	0.664
532.33	0.665
532.53	0.664
532.73	0.664
532.93	0.662
533.13	0.663
533.33	0.664
533.52	0.664
533.72	0.667
533.92	0.666
534.12	0.665
534.32	0.665
534.52	0.664
534.71	0.665
534.91	0.669
535.11	0.670
535.31	0.668
535.51	0.670
535.71	0.672
535.90	0.669
536.10	0.670
536.30	0.671
536.50	0.672
536.70	0.672
536.89	0.671
537.09	0.670
537.29	0.670
537.49	0.671
537.69	0.669
537.89	0.669
538.08	0.668
538.28	0.666
538.48	0.666
538.68	0.667
538.88	0.669
539.07	0.668
539.27	0.666
539.47	0.666
539.67	0.667
539.87	0.668
540.06	0.666
540.26	0.668
540.46	0.670
540.66	0.668
540.86	0.666
541.05	0.665
541.25	0.667
541.45	0.667
541.65	0.666
541.84	0.668
542.04	0.668
542.24	0.669
542.44	0.667
542.64	0.667
542.83	0.670
543.03	0.670
543.23	0.668
543.43	0.669
543.62	0.670
543.82	0.670
544.02	0.669
544.22	0.668
544.42	0.672
544.61	0.672
544.81	0.670
545.01	0.668
545.21	0.670
545.40	0.671
545.60	0.669
545.80	0.672
546.00	0.673
546.19	0.673
546.39	0.672
546.59	0.670
546.79	0.672
546.98	0.672
547.18	0.672
547.38	0.673
547.58	0.676
547.77	0.676
547.97	0.672
548.17	0.675
548.37	0.674
548.56	0.674
548.76	0.674
548.96	0.675
549.16	0.677
549.35	0.676
549.55	0.673
549.75	0.674
549.95	0.677
550.14	0.678
550.34	0.675
550.54	0.680
550.73	0.684
550.93	0.685
551.13	0.681
551.33	0.681
551.52	0.681
551.72	0.683
551.92	0.681
552.12	0.681
552.31	0.682
552.51	0.682
552.71	0.677
552.90	0.677
553.10	0.678
553.30	0.678
553.50	0.677
553.69	0.679
553.89	0.679
554.09	0.679
554.28	0.676
554.48	0.677
554.68	0.679
554.87	0.679
555.07	0.676
555.27	0.676
555.47	0.677
555.66	0.677
555.86	0.675
556.06	0.678
556.25	0.679
556.45	0.686
556.65	0.685
556.84	0.688
557.04	0.691
557.24	0.692
557.43	0.692
557.63	0.696
557.83	0.698
558.02	0.698
558.22	0.702
558.42	0.702
558.61	0.695
558.81	0.695
559.01	0.692
559.21	0.692
559.40	0.693
559.60	0.693
559.80	0.689
559.99	0.690
560.19	0.692
560.39	0.686
560.58	0.684
560.78	0.684
560.97	0.688
561.17	0.686
561.37	0.684
561.56	0.685
561.76	0.686
561.96	0.686
562.15	0.683
562.35	0.685
562.55	0.687
562.74	0.687
562.94	0.685
563.14	0.683
563.33	0.684
563.53	0.683
563.73	0.680
563.92	0.681
564.12	0.684
564.31	0.687
564.51	0.684
564.71	0.686
564.90	0.688
565.10	0.689
565.30	0.691
565.49	0.693
565.69	0.696
565.89	0.696
566.08	0.694
566.28	0.696
566.47	0.698
566.67	0.697
566.87	0.694
567.06	0.697
567.26	0.703
567.46	0.699
567.65	0.698
567.85	0.700
568.04	0.703
568.24	0.702
568.44	0.699
568.63	0.697
568.83	0.698
569.02	0.697
569.22	0.692
569.42	0.689
569.61	0.691
569.81	0.690
570.00	0.687
570.20	0.688
570.40	0.690
570.59	0.690
570.79	0.688
570.98	0.686
571.18	0.687
571.38	0.687
571.57	0.684
571.77	0.682
571.96	0.686
572.16	0.683
572.35	0.678
572.55	0.679
572.75	0.677
572.94	0.677
573.14	0.675
573.33	0.675
573.53	0.676
573.73	0.675
573.92	0.673
574.12	0.671
574.31	0.674
574.51	0.675
574.70	0.672
574.90	0.674
575.09	0.676
575.29	0.676
575.49	0.674
575.68	0.674
575.88	0.676
576.07	0.677
576.27	0.675
576.46	0.674
576.66	0.673
576.86	0.672
577.05	0.669
577.25	0.667
577.44	0.669
577.64	0.668
577.83	0.667
578.03	0.668
578.22	0.667
578.42	0.667
578.61	0.664
578.81	0.665
579.00	0.665
579.20	0.665
579.40	0.664
579.59	0.663
579.79	0.663
579.98	0.663
580.18	0.662
580.37	0.663
580.57	0.664
580.76	0.669
580.96	0.668
581.15	0.669
581.35	0.671
581.54	0.670
581.74	0.670
581.93	0.671
582.13	0.672
582.32	0.669
582.52	0.667
582.71	0.666
582.91	0.662
583.10	0.661
583.30	0.660
583.49	0.659
583.69	0.663
583.88	0.664
584.08	0.663
584.27	0.665
584.47	0.668
584.66	0.669
584.86	0.668
585.05	0.671
585.25	0.673
585.44	0.673
585.64	0.671
585.83	0.668
586.03	0.668
586.22	0.666
586.42	0.662
586.61	0.664
586.81	0.666
587.00	0.666
587.20	0.663
587.39	0.663
587.59	0.665
587.78	0.666
587.98	0.666
588.17	0.667
588.37	0.670
588.56	0.672
588.76	0.668
588.95	0.668
589.15	0.672
589.34	0.675
589.54	0.674
589.73	0.675
589.92	0.678
590.12	0.679
590.31	0.677
590.51	0.682
590.70	0.683
590.90	0.684
591.09	0.682
591.29	0.680
591.48	0.680
591.68	0.681
591.87	0.679
592.06	0.679
592.26	0.681
592.45	0.681
592.65	0.674
592.84	0.674
593.04	0.677
593.23	0.678
593.43	0.676
593.62	0.675
593.81	0.675
594.01	0.675
594.20	0.672
594.40	0.671
594.59	0.673
594.79	0.674
594.98	0.673
595.17	0.671
595.37	0.672
595.56	0.674
595.76	0.674
595.95	0.675
596.14	0.678
596.34	0.680
596.53	0.679
596.73	0.680
596.92	0.681
597.12	0.683
597.31	0.683
597.50	0.682
597.70	0.684
597.89	0.684
598.09	0.680
598.28	0.682
598.47	0.684
598.67	0.682
598.86	0.678
599.06	0.681
599.25	0.681
599.44	0.679
599.64	0.677
599.83	0.675
600.03	0.677
600.22	0.678
600.41	0.678
600.61	0.675
600.80	0.678
601.00	0.678
601.19	0.674
601.38	0.672
601.58	0.675
601.77	0.676
601.96	0.679
602.16	0.678
602.35	0.687
602.55	0.684
602.74	0.685
602.93	0.687
603.13	0.692
603.32	0.694
603.51	0.693
603.71	0.696
603.90	0.698
604.09	0.699
604.29	0.696
604.48	0.691
604.68	0.692
604.87	0.691
605.06	0.688
605.26	0.685
605.45	0.685
605.64	0.684
605.84	0.679
606.03	0.678
606.22	0.676
606.42	0.675
606.61	0.672
606.80	0.672
607.00	0.673
607.19	0.673
607.38	0.672
607.58	0.673
607.77	0.676
607.96	0.675
608.16	0.674
608.35	0.679
608.54	0.682
608.74	0.684
608.93	0.689
609.12	0.692
609.32	0.695
609.51	0.698
609.70	0.697
609.90	0.699
610.09	0.704
610.28	0.709
610.48	0.702
610.67	0.704
610.86	0.705
611.06	0.700
611.25	0.697
611.44	0.698
611.64	0.698
611.83	0.701
612.02	0.697
612.21	0.696
612.41	0.695
612.60	0.694
612.79	0.690
612.99	0.690
613.18	0.692
613.37	0.690
613.57	0.687
613.76	0.688
613.95	0.686
614.14	0.685
614.34	0.683
614.53	0.683
614.72	0.687
614.92	0.687
615.11	0.684
615.30	0.681
615.49	0.683
615.69	0.686
615.88	0.682
616.07	0.683
616.26	0.686
616.46	0.687
616.65	0.684
616.84	0.683
617.04	0.684
617.23	0.688
617.42	0.689
617.61	0.692
617.81	0.693
618.00	0.695
618.19	0.693
618.38	0.697
618.58	0.700
618.77	0.701
618.96	0.701
619.15	0.703
619.35	0.704
619.54	0.704
619.73	0.700
619.92	0.702
620.12	0.706
620.31	0.707
620.50	0.701
620.69	0.702
620.89	0.704
621.08	0.705
621.27	0.705
621.46	0.703
621.66	0.707
621.85	0.707
622.04	0.703
622.23	0.704
622.43	0.704
622.62	0.704
622.81	0.703
623.00	0.702
623.19	0.706
623.39	0.705
623.58	0.703
623.77	0.702
623.96	0.704
624.16	0.704
624.35	0.699
624.54	0.702
624.73	0.706
624.92	0.704
625.12	0.701
625.31	0.700
625.50	0.704
625.69	0.703
625.88	0.700
626.08	0.699
626.27	0.700
626.46	0.701
626.65	0.698
626.84	0.697
627.04	0.702
627.23	0.703
627.42	0.699
627.61	0.701
627.80	0.703
628.00	0.703
628.19	0.702
628.38	0.706
628.57	0.708
628.76	0.708
628.96	0.705
629.15	0.706
629.34	0.709
629.53	0.710
629.72	0.704
629.91	0.705
630.11	0.710
630.30	0.709
630.49	0.711
630.68	0.711
630.87	0.714
631.06	0.716
631.26	0.711
631.45	0.713
631.64	0.720
631.83	0.723
632.02	0.720
632.21	0.719
632.41	0.726
632.60	0.721
632.79	0.719
632.98	0.719
633.17	0.719
633.36	0.721
633.55	0.718
633.75	0.715
633.94	0.716
634.13	0.716
634.32	0.714
634.51	0.708
634.70	0.710
634.89	0.710
635.09	0.707
635.28	0.708
635.47	0.708
635.66	0.711
635.85	0.706
636.04	0.708
636.23	0.712
636.43	0.713
636.62	0.712
636.81	0.711
637.00	0.714
637.19	0.717
637.38	0.713
637.57	0.714
637.76	0.715
637.95	0.716
638.15	0.712
638.34	0.708
638.53	0.711
638.72	0.713
638.91	0.710
639.10	0.708
639.29	0.708
639.48	0.709
639.67	0.709
639.87	0.708
640.06	0.714
640.25	0.713
640.44	0.715
640.63	0.715
640.82	0.718
641.01	0.719
641.20	0.718
641.39	0.720
641.58	0.722
641.78	0.720
641.97	0.716
642.16	0.730
642.35	0.731
642.54	0.730
642.73	0.724
642.92	0.723
643.11	0.726
643.30	0.725
643.49	0.720
643.68	0.723
643.87	0.725
644.06	0.725
644.25	0.704
644.45	0.707
644.64	0.708
644.83	0.708
645.02	0.706
645.21	0.706
645.40	0.707
645.59	0.707
645.78	0.701
645.97	0.704
646.16	0.705
646.35	0.706
646.54	0.703
646.73	0.704
646.92	0.706
647.11	0.704
647.30	0.700
647.49	0.702
647.68	0.703
647.88	0.702
648.07	0.695
648.26	0.699
648.45	0.700
648.64	0.697
648.83	0.696
649.02	0.698
649.21	0.709
649.40	0.708
649.59	0.703
649.78	0.703
649.97	0.717
650.16	0.716
650.35	0.709
650.54	0.711
650.73	0.719
650.92	0.715
651.11	0.709
651.30	0.707
651.49	0.711
651.68	0.711
651.87	0.709
652.06	0.698
652.25	0.701
652.44	0.704
652.63	0.703
652.82	0.704
653.01	0.705
653.20	0.703
653.39	0.691
653.58	0.689
653.77	0.689
653.96	0.684
654.15	0.676
654.34	0.674
654.53	0.669
654.72	0.663
654.91	0.653
655.10	0.649
655.29	0.647
655.48	0.644
655.67	0.640
655.86	0.636
656.05	0.635
656.24	0.635
656.43	0.629
656.62	0.628
656.81	0.628
657.00	0.625
657.19	0.622
657.38	0.620
657.57	0.619
657.76	0.621
657.95	0.618
658.14	0.621
658.33	0.623
658.51	0.629
658.70	0.629
658.89	0.631
659.08	0.640
659.27	0.648
659.46	0.649
659.65	0.656
659.84	0.660
660.03	0.664
660.22	0.665
660.41	0.670
660.60	0.669
660.79	0.670
660.98	0.676
661.17	0.675
661.36	0.675
661.55	0.675
661.74	0.673
661.92	0.675
662.11	0.677
662.30	0.675
662.49	0.669
662.68	0.667
662.87	0.671
663.06	0.664
663.25	0.665
663.44	0.665
663.63	0.666
663.82	0.664
664.01	0.659
664.20	0.658
664.38	0.659
664.57	0.660
664.76	0.660
664.95	0.661
665.14	0.666
665.33	0.661
665.52	0.668
665.71	0.672
665.90	0.673
666.09	0.674
666.28	0.672
666.46	0.671
666.65	0.671
666.84	0.669
667.03	0.663
667.22	0.661
667.41	0.664
667.60	0.654
667.79	0.647
667.98	0.648
668.16	0.650
668.35	0.649
668.54	0.646
668.73	0.646
668.92	0.647
669.11	0.647
669.30	0.641
669.49	0.638
669.67	0.640
669.86	0.642
670.05	0.640
670.24	0.637
670.43	0.635
670.62	0.634
670.81	0.629
671.00	0.630
671.18	0.630
671.37	0.629
671.56	0.627
671.75	0.626
671.94	0.623
672.13	0.620
672.32	0.616
672.50	0.615
672.69	0.615
672.88	0.616
673.07	0.612
673.26	0.614
673.45	0.615
673.63	0.615
673.82	0.612
674.01	0.614
674.20	0.613
674.39	0.613
674.58	0.612
674.76	0.612
674.95	0.610
675.14	0.610
675.33	0.606
675.52	0.604
675.71	0.604
675.89	0.603
676.08	0.599
676.27	0.599
676.46	0.600
676.65	0.599
676.84	0.598
677.02	0.600
677.21	0.603
677.40	0.602
677.59	0.599
677.78	0.600
677.96	0.602
678.15	0.602
678.34	0.599
678.53	0.600
678.72	0.600
678.90	0.597
679.09	0.593
679.28	0.589
679.47	0.589
679.66	0.589
679.84	0.586
680.03	0.583
680.22	0.581
680.41	0.583
680.60	0.579
680.78	0.578
680.97	0.581
681.16	0.582
681.35	0.581
681.53	0.580
681.72	0.581
681.91	0.582
682.10	0.581
682.29	0.584
682.47	0.581
682.66	0.581
682.85	0.579
683.04	0.577
683.22	0.576
683.41	0.578
683.60	0.577
683.79	0.578
683.97	0.577
684.16	0.576
684.35	0.572
684.54	0.573
684.72	0.573
684.91	0.575
685.10	0.573
685.29	0.574
685.47	0.572
685.66	0.570
685.85	0.567
686.04	0.567
686.22	0.569
686.41	0.573
686.60	0.570
686.79	0.572
686.97	0.573
687.16	0.575
687.35	0.572
687.54	0.576
687.72	0.580
687.91	0.580
688.10	0.581
688.29	0.580
688.47	0.578
688.66	0.577
688.85	0.573
689.03	0.571
689.22	0.575
689.41	0.575
689.60	0.571
689.78	0.568
689.97	0.568
690.16	0.565
690.34	0.562
690.53	0.562
690.72	0.562
690.91	0.560
691.09	0.558
691.28	0.552
691.47	0.550
691.65	0.549
691.84	0.547
692.03	0.546
692.21	0.543
692.40	0.543
692.59	0.541
692.77	0.539
692.96	0.541
693.15	0.542
693.34	0.540
693.52	0.539
693.71	0.540
693.90	0.541
694.08	0.542
694.27	0.544
694.46	0.553
694.64	0.554
694.83	0.553
695.02	0.552
695.20	0.553
695.39	0.553
695.58	0.553
695.76	0.554
695.95	0.553
696.14	0.551
696.32	0.549
696.51	0.540
696.70	0.540
696.88	0.541
697.07	0.540
697.26	0.541
697.44	0.542
697.63	0.540
697.81	0.538
698.00	0.538
698.19	0.537
698.37	0.537
698.56	0.537
698.75	0.536
698.93	0.536
699.12	0.536
699.31	0.535
699.49	0.534
699.68	0.534
699.87	0.537
700.05	0.538
700.24	0.537
700.42	0.538
700.61	0.538
700.80	0.536
700.98	0.536
701.17	0.537
701.36	0.536
701.54	0.536
701.73	0.537
701.91	0.535
702.10	0.534
702.29	0.532
702.47	0.530
702.66	0.532
702.84	0.533
703.03	0.531
703.22	0.533
703.40	0.533
703.59	0.534
703.77	0.533
703.96	0.533
704.15	0.534
704.33	0.534
704.52	0.533
704.70	0.533
704.89	0.532
705.08	0.532
705.26	0.528
705.45	0.528
705.63	0.528
705.82	0.525
706.00	0.523
706.19	0.523
706.38	0.522
706.56	0.523
706.75	0.520
706.93	0.519
707.12	0.520
707.30	0.520
707.49	0.517
707.68	0.516
707.86	0.515
708.05	0.515
708.23	0.512
708.42	0.513
708.60	0.516
708.79	0.516
708.98	0.514
709.16	0.513
709.35	0.515
709.53	0.519
709.72	0.517
709.90	0.519
710.09	0.520
710.27	0.523
710.46	0.526
710.64	0.524
710.83	0.526
711.02	0.528
711.20	0.526
711.39	0.524
711.57	0.522
711.76	0.524
711.94	0.522
712.13	0.523
712.31	0.523
712.50	0.519
712.68	0.516
712.87	0.518
713.05	0.517
713.24	0.518
713.42	0.518
713.61	0.518
713.79	0.519
713.98	0.518
714.16	0.519
714.35	0.519
714.54	0.519
714.72	0.519
714.91	0.517
715.09	0.523
715.28	0.526
715.46	0.526
715.65	0.524
715.83	0.524
716.02	0.527
716.20	0.524
716.39	0.523
716.57	0.524
716.76	0.526
716.94	0.526
717.12	0.519
717.31	0.519
717.49	0.522
717.68	0.524
717.86	0.524
718.05	0.525
718.23	0.527
718.42	0.530
718.60	0.531
718.79	0.538
718.97	0.540
719.16	0.541
719.34	0.539
719.53	0.538
719.71	0.538
719.90	0.539
720.08	0.536
720.27	0.537
720.45	0.536
720.63	0.535
720.82	0.529
721.00	0.532
721.19	0.535
721.37	0.534
721.56	0.534
721.74	0.537
721.93	0.545
722.11	0.553
722.30	0.552
722.48	0.557
722.66	0.558
722.85	0.559
723.03	0.559
723.22	0.557
723.40	0.560
723.59	0.560
723.77	0.565
723.95	0.558
724.14	0.558
724.32	0.559
724.51	0.557
724.69	0.559
724.88	0.559
725.06	0.558
725.24	0.560
725.43	0.562
725.61	0.563
725.80	0.557
725.98	0.555
726.16	0.551
726.35	0.557
726.53	0.557
726.72	0.556
726.90	0.565
727.09	0.565
727.27	0.570
727.45	0.566
727.64	0.576
727.82	0.584
728.01	0.589
728.19	0.586
728.37	0.591
728.56	0.594
728.74	0.600
728.92	0.588
729.11	0.591
729.29	0.589
729.48	0.591
729.66	0.581
729.84	0.580
730.03	0.583
730.21	0.584
730.40	0.574
730.58	0.576
730.76	0.575
730.95	0.579
731.13	0.579
731.31	0.593
731.50	0.601
731.68	0.605
731.86	0.603
732.05	0.616
732.23	0.620
732.42	0.624
732.60	0.628
732.78	0.635
732.97	0.651
733.15	0.659
733.33	0.648
733.52	0.656
733.70	0.667
733.88	0.675
734.07	0.662
734.25	0.689
734.43	0.697
734.62	0.699
734.80	0.694
734.98	0.684
735.17	0.691
735.35	0.695
735.53	0.684
735.72	0.687
735.90	0.705
736.08	0.721
736.27	0.698
736.45	0.705
736.63	0.716
736.82	0.723
737.00	0.722
737.18	0.729
737.37	0.757
737.55	0.776
737.73	0.767
737.92	0.771
738.10	0.769
738.28	0.787
738.46	0.777
738.65	0.790
738.83	0.808
739.01	0.864
739.20	0.856
739.38	0.842
739.56	0.834
739.75	0.839
739.93	0.807
740.11	0.833
740.29	0.831
740.48	0.839
740.66	0.819
740.84	0.817
741.03	0.779
741.21	0.787
741.39	0.770
741.57	0.783
741.76	0.798
741.94	0.802
742.12	0.767
742.31	0.771
742.49	0.787
742.67	0.806
742.85	0.817
743.04	0.822
743.22	0.835
743.40	0.887
743.58	0.871
743.77	0.891
743.95	0.927
744.13	0.977
744.31	0.961
744.50	0.955
744.68	0.955
744.86	0.932
745.04	0.943
745.23	1.000
745.41	0.979
745.59	0.982
745.77	0.947
745.96	0.937
746.14	0.945
746.32	0.943
746.50	0.935
746.69	0.921
746.87	0.925
747.05	0.912
747.23	0.845
747.42	0.829
747.60	0.850
747.78	0.852
747.96	0.877
748.14	0.836
748.33	0.862
748.51	0.855
748.69	0.847
748.87	0.871
749.06	0.863
749.24	0.860
749.42	0.849
749.60	0.839
749.78	0.846
749.97	0.803
750.15	0.799
750.33	0.802
750.51	0.828
750.69	0.831
750.88	0.842
751.06	0.852
751.24	0.879
751.42	0.869
751.60	0.859
751.79	0.923
751.97	0.969
752.15	0.967
752.33	0.934
752.51	0.991
752.69	1.009
752.88	0.976
753.06	1.021
753.24	0.993
753.42	1.032
753.60	1.183
753.78	1.055
753.97	1.073
754.15	1.088
754.33	1.119
754.51	1.004
754.69	0.988
754.87	1.013
755.06	0.947
755.24	0.951
755.42	0.958
755.60	0.865
755.78	0.872
755.96	0.821
756.15	0.821
756.33	0.826
756.51	0.844
756.69	0.833
756.87	0.802
757.05	0.818
757.23	0.804
757.42	0.774
757.60	0.774
757.78	0.763
757.96	0.762
758.14	0.748
758.32	0.731
758.50	0.740
758.69	0.738
758.87	0.730
759.05	0.734
759.23	0.741
759.41	0.740
759.59	0.733
759.77	0.752
759.95	0.778
760.13	0.824
760.32	0.824
760.50	0.823
760.68	0.844
760.86	0.845
761.04	0.821
761.22	0.823
761.40	0.869
761.58	0.871
761.76	0.849
761.95	0.830
762.13	0.786
762.31	0.787
762.49	0.760
762.67	0.778
762.85	0.791
763.03	0.788
763.21	0.771
763.39	0.754
763.57	0.755
763.75	0.753
763.94	0.743
764.12	0.745
764.30	0.767
764.48	0.769
764.66	0.733
764.84	0.732
765.02	0.766
765.20	0.773
765.38	0.752
765.56	0.756
765.74	0.790
765.92	0.788
766.10	0.792
766.28	0.788
766.46	0.812
766.65	0.811
766.83	0.798
767.01	0.783
767.19	0.787
767.37	0.789
767.55	0.779
767.73	0.760
767.91	0.763
768.09	0.750
768.27	0.740
768.45	0.731
768.63	0.739
768.81	0.741
768.99	0.717
769.17	0.740
769.35	0.751
769.53	0.750
769.71	0.734
769.89	0.740
770.07	0.747
770.25	0.730
770.43	0.709
770.61	0.729
770.79	0.735
770.97	0.744
771.15	0.716
771.33	0.720
771.51	0.720
771.69	0.733
771.87	0.743
772.05	0.747
772.24	0.753
772.42	0.764
772.60	0.744
772.78	0.797
772.96	0.825
773.14	0.822
773.32	0.801
773.49	0.809
773.67	0.802
773.85	0.782
774.03	0.773
774.21	0.803
774.39	0.814
774.57	0.837
774.75	0.773
774.93	0.765
775.11	0.782
775.29	0.790
775.47	0.789
775.65	0.796
775.83	0.810
776.01	0.831
776.19	0.790
776.37	0.789
776.55	0.786
776.73	0.783
776.91	0.782
777.09	0.766
777.27	0.761
777.45	0.751
777.63	0.733
777.81	0.728
777.99	0.716
778.17	0.716
778.35	0.699
778.53	0.686
778.71	0.689
778.89	0.677
779.07	0.669
779.24	0.676
779.42	0.677
779.60	0.695
779.78	0.693
779.96	0.696
780.14	0.701
780.32	0.719
780.50	0.706
780.68	0.707
780.86	0.700
781.04	0.716
781.22	0.721
781.40	0.732
781.58	0.721
781.75	0.716
781.93	0.701
782.11	0.701
782.29	0.688
782.47	0.687
782.65	0.677
782.83	0.704
783.01	0.696
783.19	0.687
783.37	0.673
783.55	0.675
783.72	0.689
783.90	0.699
784.08	0.695
784.26	0.706
784.44	0.725
784.62	0.725
784.80	0.694
784.98	0.701
785.16	0.707
785.33	0.721
785.51	0.710
785.69	0.699
785.87	0.697
786.05	0.705
786.23	0.704
786.41	0.701
786.59	0.705
786.77	0.706
786.94	0.693
787.12	0.697
787.30	0.699
787.48	0.698
787.66	0.686
787.84	0.687
788.02	0.678
788.19	0.674
788.37	0.663
788.55	0.664
788.73	0.665
788.91	0.661
789.09	0.643
789.27	0.632
789.44	0.643
789.62	0.650
789.80	0.657
789.98	0.681
790.16	0.666
790.34	0.662
790.51	0.651
790.69	0.668
790.87	0.673
791.05	0.672
791.23	0.669
791.41	0.668
791.58	0.672
791.76	0.654
791.94	0.627
792.12	0.636
792.30	0.638
792.48	0.636
792.65	0.631
792.83	0.637
793.01	0.642
793.19	0.639
793.37	0.625
793.54	0.622
793.72	0.633
793.90	0.632
794.08	0.622
794.26	0.623
794.43	0.632
794.61	0.617
794.79	0.605
794.97	0.604
795.15	0.610
795.32	0.613
795.50	0.603
795.68	0.597
795.86	0.601
796.04	0.604
796.21	0.598
796.39	0.597
796.57	0.608
796.75	0.615
796.92	0.618
797.10	0.621
797.28	0.625
797.46	0.629
797.64	0.631
797.81	0.638
797.99	0.640
798.17	0.644
798.35	0.635
798.52	0.640
798.70	0.637
798.88	0.644
799.06	0.643
799.23	0.645
799.41	0.650
799.59	0.643
799.77	0.633
799.94	0.640
800.12	0.650
800.30	0.668
800.48	0.667
800.65	0.667
800.83	0.658
801.01	0.652
801.19	0.653
801.36	0.650
801.54	0.652
801.72	0.661
801.90	0.650
802.07	0.645
802.25	0.631
802.43	0.616
802.60	0.611
802.78	0.617
802.96	0.621
803.14	0.614
803.31	0.613
803.49	0.614
803.67	0.610
803.84	0.615
804.02	0.607
804.20	0.611
804.38	0.614
804.55	0.616
804.73	0.604
804.91	0.604
805.08	0.616
805.26	0.611
805.44	0.673
805.61	0.676
805.79	0.674
805.97	0.676
806.15	0.668
806.32	0.665
806.50	0.669
806.68	0.668
806.85	0.661
807.03	0.653
807.21	0.668
807.38	0.603
807.56	0.593
807.74	0.603
807.91	0.607
808.09	0.609
808.27	0.627
808.44	0.653
808.62	0.662
808.80	0.663
808.97	0.659
809.15	0.655
809.33	0.671
809.50	0.677
809.68	0.663
809.86	0.672
810.03	0.701
810.21	0.680
810.39	0.662
810.56	0.668
810.74	0.689
810.91	0.755
811.09	0.745
811.27	0.766
811.44	0.771
811.62	0.774
811.80	0.758
811.97	0.728
812.15	0.727
812.33	0.724
812.50	0.709
812.68	0.702
812.85	0.649
813.03	0.651
813.21	0.621
813.38	0.615
813.56	0.617
813.74	0.625
813.91	0.633
814.09	0.662
814.26	0.653
814.44	0.658
814.62	0.644
814.79	0.648
814.97	0.652
815.14	0.654
815.32	0.659
815.50	0.673
815.67	0.678
815.85	0.670
816.02	0.659
816.20	0.668
816.38	0.679
816.55	0.687
816.73	0.688
816.90	0.695
817.08	0.724
817.26	0.727
817.43	0.710
817.61	0.731
817.78	0.751
817.96	0.734
818.13	0.724
818.31	0.724
818.49	0.737
818.66	0.726
818.84	0.716
819.01	0.698
819.19	0.702
819.36	0.704
819.54	0.676
819.71	0.713
819.89	0.726
820.07	0.738
820.24	0.732
820.42	0.732
820.59	0.750
820.77	0.769
820.94	0.761
821.12	0.779
821.29	0.796
821.47	0.798
821.64	0.739
821.82	0.750
822.00	0.748
822.17	0.748
822.35	0.740
822.52	0.741
822.70	0.733
822.87	0.741
823.05	0.720
823.22	0.730
823.40	0.750
823.57	0.771
823.75	0.753
823.92	0.774
824.10	0.787
824.27	0.822
824.45	0.814
824.62	0.869
824.80	0.884
824.97	0.900
825.15	0.887
825.32	0.901
825.50	0.903
825.67	0.916
825.85	0.896
826.02	0.916
826.20	0.933
826.37	1.054
826.55	0.976
826.72	1.141
826.90	1.198
827.07	1.247
827.25	1.196
827.42	1.309
827.60	1.411
827.77	1.561
827.95	1.519
828.12	1.591
828.30	1.314
828.47	1.405
828.65	1.130
828.82	1.165
829.00	1.199
829.17	1.261
829.34	1.273
829.52	1.298
829.69	-0.000
829.87	-0.000
830.04	-0.000
830.22	-0.000
830.39	-0.000
830.57	-0.000
830.74	-0.000
830.92	-0.000
831.09	-0.000
831.26	-0.000
831.44	-0.000
831.61	-0.000
831.79	-0.000
831.96	-0.000
832.14	-0.000
832.31	-0.000
832.49	-0.000
832.66	-0.000
832.83	-0.000
833.01	-0.000
833.18	-0.000
833.36	-0.000
833.53	-0.000
833.70	-0.000
833.88	-0.000
834.05	-0.000
834.23	-0.000
834.40	-0.000
834.58	-0.000
834.75	-0.000
834.92	-0.000
835.10	-0.000
835.27	-0.000
835.45	-0.000
835.62	-0.000
835.79	-0.000
835.97	-0.000
836.14	-0.000
836.32	-0.000
836.49	-0.000
836.66	-0.000
836.84	-0.000
837.01	-0.000
837.18	-0.000
837.36	-0.000
837.53	-0.000
837.71	-0.000
837.88	-0.000
838.05	-0.000
838.23	-0.000
838.40	-0.000
838.58	-0.000
838.75	-0.000
838.92	-0.000
839.10	-0.000
839.27	-0.000
839.44	-0.000
839.62	-0.000
839.79	-0.000
839.96	-0.000
840.14	-0.000
840.31	-0.000
840.48	-0.000
840.66	-0.000
840.83	-0.000
841.01	-0.000
841.18	-0.000
841.35	-0.000
841.53	-0.000
841.70	-0.000
841.87	-0.000
842.05	-0.000
842.22	-0.000
842.39	-0.000
842.57	-0.000
842.74	-0.000
842.91	-0.000
843.09	-0.000
843.26	-0.000
843.43	-0.000
843.60	-0.000
843.78	-0.000
843.95	-0.000
844.12	-0.000
844.30	-0.000
844.47	-0.000
844.64	-0.000
844.82	-0.000
844.99	-0.000
845.16	-0.000
845.34	-0.000
845.51	-0.000
845.68	-0.000
845.85	-0.000
846.03	-0.000
846.20	-0.000
846.37	-0.000
846.55	-0.000
846.72	-0.000
846.89	-0.000
847.06	-0.000
847.24	-0.000
847.41	-0.000
847.58	-0.000
847.76	-0.000
847.93	-0.000
848.10	-0.000
848.27	-0.000
848.45	-0.000
848.62	-0.000
848.79	-0.000
848.97	-0.000
849.14	-0.000
849.31	-0.000
849.48	-0.000
849.66	-0.000
849.83	-0.000
850.00	-0.000
850.17	-0.000
850.35	-0.000
850.52	-0.000
850.69	-0.000
850.86	-0.000
851.04	-0.000
851.21	-0.000
851.38	-0.000
851.55	-0.000
851.72	-0.000
851.90	-0.000
852.07	-0.000
852.24	-0.000
852.41	-0.000
852.59	-0.000
852.76	-0.000
852.93	-0.000
853.10	-0.000
853.28	-0.000
853.45	-0.000
853.62	-0.000
853.79	-0.000
853.96	-0.000
854.14	-0.000
854.31	-0.000
854.48	-0.000
854.65	-0.000
854.82	-0.000
855.00	-0.000
855.17	-0.000
855.34	-0.000
855.51	-0.000
855.68	-0.000
855.86	-0.000
856.03	-0.000
856.20	-0.000
856.37	-0.000
856.54	-0.000
856.72	-0.000
856.89	-0.000
857.06	-0.000
857.23	-0.000
857.40	-0.000
857.57	-0.000
857.75	-0.000
857.92	-0.000
858.09	-0.000
858.26	-0.000
858.43	-0.000
858.60	-0.000
858.78	-0.000
858.95	-0.000
859.12	-0.000
859.29	-0.000
859.46	-0.000
859.63	-0.000
859.81	-0.000
859.98	-0.000
860.15	-0.000
860.32	-0.000
860.49	-0.000
860.66	-0.000
860.83	-0.000
861.01	-0.000
861.18	-0.000
861.35	-0.000
861.52	-0.000
861.69	-0.000
861.86	-0.000
862.03	-0.000
862.21	-0.000
862.38	-0.000
862.55	-0.000
862.72	-0.000
862.89	-0.000
863.06	-0.000
863.23	-0.000
863.40	-0.000
863.58	-0.000
863.75	-0.000
863.92	-0.000
864.09	-0.000
864.26	-0.000
864.43	-0.000
864.60	-0.000
864.77	-0.000
864.94	-0.000
865.11	-0.000
865.29	-0.000
865.46	-0.000
865.63	-0.000
865.80	-0.000
865.97	-0.000
866.14	-0.000
866.31	-0.000
866.48	-0.000
866.65	-0.000
866.82	-0.000
866.99	-0.000
867.16	-0.000
867.34	-0.000
867.51	-0.000
867.68	-0.000
867.85	-0.000
868.02	-0.000
868.19	-0.000
868.36	-0.000
868.53	-0.000
868.70	-0.000
868.87	-0.000
869.04	-0.000
869.21	-0.000
869.38	-0.000
869.55	-0.000
869.72	-0.000
869.89	-0.000
870.06	-0.000
870.24	-0.000
870.41	-0.000
870.58	-0.000
870.75	-0.000
870.92	-0.000
871.09	-0.000
871.26	-0.000
871.43	-0.000
871.60	-0.000
871.77	-0.000
871.94	-0.000
872.11	-0.000
872.28	-0.000
872.45	-0.000
872.62	-0.000
872.79	-0.000
872.96	-0.000
873.13	-0.000
873.30	-0.000
873.47	-0.000
873.64	-0.000
873.81	-0.000
873.98	-0.000
874.15	-0.000
874.32	-0.000
874.49	-0.000
874.66	-0.000
874.83	-0.000
875.00	-0.000
875.17	-0.000
875.34	-0.000
875.51	-0.000
875.68	-0.000
875.85	-0.000
876.02	-0.000
876.19	-0.000
876.36	-0.000
876.53	-0.000
876.70	-0.000
876.87	-0.000
877.04	-0.000
877.21	-0.000
877.38	-0.000
877.55	-0.000
877.72	-0.000
877.89	-0.000
878.06	-0.000
878.23	-0.000
878.39	-0.000
878.56	-0.000
878.73	-0.000
878.90	-0.000
879.07	-0.000
879.24	-0.000
879.41	-0.000
879.58	-0.000
879.75	-0.000
879.92	-0.000
880.09	-0.000
880.26	-0.000
880.43	-0.000
880.60	-0.000
880.77	-0.000
880.94	-0.000
881.11	-0.000
881.27	-0.000
881.44	-0.000
881.61	-0.000
881.78	-0.000
881.95	-0.000
882.12	-0.000
882.29	-0.000
882.46	-0.000
882.63	-0.000
882.80	-0.000
882.97	-0.000
883.14	-0.000
883.30	-0.000
883.47	-0.000
883.64	-0.000
883.81	-0.000
883.98	-0.000
884.15	-0.000
884.32	-0.000
884.49	-0.000
884.66	-0.000
884.82	-0.000
884.99	-0.000
885.16	-0.000
885.33	-0.000
885.50	-0.000
885.67	-0.000
885.84	-0.000
886.01	-0.000
886.17	-0.000
886.34	-0.000
886.51	-0.000
886.68	-0.000
886.85	-0.000
887.02	-0.000
887.19	-0.000
887.36	-0.000
887.52	-0.000
887.69	-0.000
887.86	-0.000
888.03	-0.000
888.20	-0.000
888.37	-0.000
888.54	-0.000
888.70	-0.000
888.87	-0.000
889.04	-0.000
889.21	-0.000
889.38	-0.000
889.55	-0.000
889.71	-0.000
889.88	-0.000
890.05	-0.000
890.22	-0.000
890.39	-0.000
>>>>>End Processed Spectral Data<<<<<
