SpectraSuite Data File
++++++++++++++++++++++++++++++++++++
Date: Fri Jun 19 13:38:44 CEST 2015
User: introlabs
Dark Spectrum Present: Yes
Reference Spectrum Present: Yes
Number of Sampled Component Spectra: 1
Spectrometers: USB4H08886
Integration Time (usec): 745692 (USB4H08886)
Spectra Averaged: 5 (USB4H08886)
Boxcar Smoothing: 5 (USB4H08886)
Correct for Electrical Dark: Yes (USB4H08886)
Strobe/Lamp Enabled: No (USB4H08886)
Correct for Detector Non-linearity: Yes (USB4H08886)
Correct for Stray Light: Yes (USB4H08886)
Number of Pixels in Processed Spectrum: 3648
>>>>>Begin Processed Spectral Data<<<<<
178.14	-0.000
178.36	-0.000
178.57	-0.000
178.79	-0.000
179.01	-0.000
179.22	-0.000
179.44	-0.000
179.65	-0.000
179.87	-0.000
180.08	-0.000
180.30	-0.000
180.52	-0.000
180.73	-0.000
180.95	-0.000
181.16	-0.000
181.38	-0.000
181.59	-0.000
181.81	-0.000
182.03	-0.000
182.24	-0.000
182.46	-0.000
182.67	-0.000
182.89	-0.000
183.10	-0.000
183.32	-0.000
183.54	-0.000
183.75	-0.000
183.97	-0.000
184.18	-0.000
184.40	-0.000
184.61	-0.000
184.83	-0.000
185.04	-0.000
185.26	-0.000
185.48	-0.000
185.69	-0.000
185.91	-0.000
186.12	-0.000
186.34	-0.000
186.55	-0.000
186.77	-0.000
186.98	-0.000
187.20	-0.000
187.42	-0.000
187.63	-0.000
187.85	-0.000
188.06	-0.000
188.28	-0.000
188.49	-0.000
188.71	-0.000
188.92	-0.000
189.14	-0.000
189.36	-0.000
189.57	-0.000
189.79	-0.000
190.00	-0.000
190.22	-0.000
190.43	-0.000
190.65	-0.000
190.86	-0.000
191.08	-0.000
191.29	-0.000
191.51	-0.000
191.72	-0.000
191.94	-0.000
192.16	-0.000
192.37	-0.000
192.59	-0.000
192.80	-0.000
193.02	-0.000
193.23	-0.000
193.45	-0.000
193.66	-0.000
193.88	-0.000
194.09	-0.000
194.31	-0.000
194.52	-0.000
194.74	-0.000
194.95	-0.000
195.17	-0.000
195.38	-0.000
195.60	-0.000
195.81	-0.000
196.03	-0.000
196.25	-0.000
196.46	-0.000
196.68	-0.000
196.89	-0.000
197.11	-0.000
197.32	-0.000
197.54	-0.000
197.75	-0.000
197.97	-0.000
198.18	-0.000
198.40	-0.000
198.61	-0.000
198.83	-0.000
199.04	-0.000
199.26	-0.000
199.47	-0.000
199.69	-0.000
199.90	-0.000
200.12	-0.000
200.33	-0.000
200.55	-0.000
200.76	-0.000
200.98	-0.000
201.19	-0.000
201.41	-0.000
201.62	-0.000
201.84	-0.000
202.05	-0.000
202.27	-0.000
202.48	-0.000
202.70	-0.000
202.91	-0.000
203.13	-0.000
203.34	-0.000
203.56	-0.000
203.77	-0.000
203.99	-0.000
204.20	-0.000
204.42	-0.000
204.63	-0.000
204.85	-0.000
205.06	-0.000
205.28	-0.000
205.49	-0.000
205.71	-0.000
205.92	-0.000
206.14	-0.000
206.35	-0.000
206.56	-0.000
206.78	-0.000
206.99	-0.000
207.21	-0.000
207.42	-0.000
207.64	-0.000
207.85	-0.000
208.07	-0.000
208.28	-0.000
208.50	-0.000
208.71	-0.000
208.93	-0.000
209.14	-0.000
209.36	-0.000
209.57	-0.000
209.79	-0.000
210.00	-0.000
210.22	-0.000
210.43	-0.000
210.64	-0.000
210.86	-0.000
211.07	-0.000
211.29	-0.000
211.50	-0.000
211.72	-0.000
211.93	-0.000
212.15	-0.000
212.36	-0.000
212.58	-0.000
212.79	-0.000
213.01	-0.000
213.22	-0.000
213.43	-0.000
213.65	-0.000
213.86	-0.000
214.08	-0.000
214.29	-0.000
214.51	-0.000
214.72	-0.000
214.94	-0.000
215.15	-0.000
215.36	-0.000
215.58	-0.000
215.79	-0.000
216.01	-0.000
216.22	-0.000
216.44	-0.000
216.65	-0.000
216.87	-0.000
217.08	-0.000
217.29	-0.000
217.51	-0.000
217.72	-0.000
217.94	-0.000
218.15	-0.000
218.37	-0.000
218.58	-0.000
218.80	-0.000
219.01	-0.000
219.22	-0.000
219.44	-0.000
219.65	-0.000
219.87	-0.000
220.08	-0.000
220.30	-0.000
220.51	-0.000
220.72	-0.000
220.94	-0.000
221.15	-0.000
221.37	-0.000
221.58	-0.000
221.79	-0.000
222.01	-0.000
222.22	-0.000
222.44	-0.000
222.65	-0.000
222.87	-0.000
223.08	-0.000
223.29	-0.000
223.51	-0.000
223.72	-0.000
223.94	-0.000
224.15	-0.000
224.36	-0.000
224.58	-0.000
224.79	-0.000
225.01	-0.000
225.22	-0.000
225.44	-0.000
225.65	-0.000
225.86	-0.000
226.08	-0.000
226.29	-0.000
226.51	-0.000
226.72	-0.000
226.93	-0.000
227.15	-0.000
227.36	-0.000
227.58	-0.000
227.79	-0.000
228.00	-0.000
228.22	-0.000
228.43	-0.000
228.65	-0.000
228.86	-0.000
229.07	-0.000
229.29	-0.000
229.50	-0.000
229.72	-0.000
229.93	-0.000
230.14	-0.000
230.36	-0.000
230.57	-0.000
230.78	-0.000
231.00	-0.000
231.21	-0.000
231.43	-0.000
231.64	-0.000
231.85	-0.000
232.07	-0.000
232.28	-0.000
232.50	-0.000
232.71	-0.000
232.92	-0.000
233.14	-0.000
233.35	-0.000
233.56	-0.000
233.78	-0.000
233.99	-0.000
234.21	-0.000
234.42	-0.000
234.63	-0.000
234.85	-0.000
235.06	-0.000
235.27	-0.000
235.49	-0.000
235.70	-0.000
235.91	-0.000
236.13	-0.000
236.34	-0.000
236.56	-0.000
236.77	-0.000
236.98	-0.000
237.20	-0.000
237.41	-0.000
237.62	-0.000
237.84	-0.000
238.05	-0.000
238.26	-0.000
238.48	-0.000
238.69	-0.000
238.91	-0.000
239.12	-0.000
239.33	-0.000
239.55	-0.000
239.76	-0.000
239.97	-0.000
240.19	-0.000
240.40	-0.000
240.61	-0.000
240.83	-0.000
241.04	-0.000
241.25	-0.000
241.47	-0.000
241.68	-0.000
241.89	-0.000
242.11	-0.000
242.32	-0.000
242.53	-0.000
242.75	-0.000
242.96	-0.000
243.17	-0.000
243.39	-0.000
243.60	-0.000
243.81	-0.000
244.03	-0.000
244.24	-0.000
244.45	-0.000
244.67	-0.000
244.88	-0.000
245.09	-0.000
245.31	-0.000
245.52	-0.000
245.73	-0.000
245.95	-0.000
246.16	-0.000
246.37	-0.000
246.59	-0.000
246.80	-0.000
247.01	-0.000
247.23	-0.000
247.44	-0.000
247.65	-0.000
247.87	-0.000
248.08	-0.000
248.29	-0.000
248.51	-0.000
248.72	-0.000
248.93	-0.000
249.15	-0.000
249.36	-0.000
249.57	-0.000
249.78	-0.000
250.00	-0.000
250.21	-0.000
250.42	-0.000
250.64	-0.000
250.85	-0.000
251.06	-0.000
251.28	-0.000
251.49	-0.000
251.70	-0.000
251.92	-0.000
252.13	-0.000
252.34	-0.000
252.55	-0.000
252.77	-0.000
252.98	-0.000
253.19	-0.000
253.41	-0.000
253.62	-0.000
253.83	-0.000
254.05	-0.000
254.26	-0.000
254.47	-0.000
254.68	-0.000
254.90	-0.000
255.11	-0.000
255.32	-0.000
255.54	-0.000
255.75	-0.000
255.96	-0.000
256.17	-0.000
256.39	-0.000
256.60	-0.000
256.81	-0.000
257.03	-0.000
257.24	-0.000
257.45	-0.000
257.66	-0.000
257.88	-0.000
258.09	-0.000
258.30	-0.000
258.51	-0.000
258.73	-0.000
258.94	-0.000
259.15	-0.000
259.37	-0.000
259.58	-0.000
259.79	-0.000
260.00	-0.000
260.22	-0.000
260.43	-0.000
260.64	-0.000
260.85	-0.000
261.07	-0.000
261.28	-0.000
261.49	-0.000
261.71	-0.000
261.92	-0.000
262.13	-0.000
262.34	-0.000
262.56	-0.000
262.77	-0.000
262.98	-0.000
263.19	-0.000
263.41	-0.000
263.62	-0.000
263.83	-0.000
264.04	-0.000
264.26	-0.000
264.47	-0.000
264.68	-0.000
264.89	-0.000
265.11	-0.000
265.32	-0.000
265.53	-0.000
265.74	-0.000
265.96	-0.000
266.17	-0.000
266.38	-0.000
266.59	-0.000
266.81	-0.000
267.02	-0.000
267.23	-0.000
267.44	-0.000
267.65	-0.000
267.87	-0.000
268.08	-0.000
268.29	-0.000
268.50	-0.000
268.72	-0.000
268.93	-0.000
269.14	-0.000
269.35	-0.000
269.57	-0.000
269.78	-0.000
269.99	-0.000
270.20	-0.000
270.41	-0.000
270.63	-0.000
270.84	-0.000
271.05	-0.000
271.26	-0.000
271.48	-0.000
271.69	-0.000
271.90	-0.000
272.11	-0.000
272.32	-0.000
272.54	-0.000
272.75	-0.000
272.96	-0.000
273.17	-0.000
273.39	-0.000
273.60	-0.000
273.81	-0.000
274.02	-0.000
274.23	-0.000
274.45	-0.000
274.66	-0.000
274.87	-0.000
275.08	-0.000
275.29	-0.000
275.51	-0.000
275.72	-0.000
275.93	-0.000
276.14	-0.000
276.35	-0.000
276.57	-0.000
276.78	-0.000
276.99	-0.000
277.20	-0.000
277.41	-0.000
277.63	-0.000
277.84	-0.000
278.05	-0.000
278.26	-0.000
278.47	-0.000
278.69	-0.000
278.90	-0.000
279.11	-0.000
279.32	-0.000
279.53	-0.000
279.74	-0.000
279.96	-0.000
280.17	-0.000
280.38	-0.000
280.59	-0.000
280.80	-0.000
281.02	-0.000
281.23	-0.000
281.44	-0.000
281.65	-0.000
281.86	-0.000
282.07	-0.000
282.29	-0.000
282.50	-0.000
282.71	-0.000
282.92	-0.000
283.13	-0.000
283.35	-0.000
283.56	-0.000
283.77	-0.000
283.98	-0.000
284.19	-0.000
284.40	-0.000
284.62	-0.000
284.83	-0.000
285.04	-0.000
285.25	-0.000
285.46	-0.000
285.67	-0.000
285.88	-0.000
286.10	-0.000
286.31	-0.000
286.52	-0.000
286.73	-0.000
286.94	-0.000
287.15	-0.000
287.37	-0.000
287.58	-0.000
287.79	-0.000
288.00	-0.000
288.21	-0.000
288.42	-0.000
288.63	-0.000
288.85	-0.000
289.06	-0.000
289.27	-0.000
289.48	-0.000
289.69	-0.000
289.90	-0.000
290.11	-0.000
290.33	-0.000
290.54	-0.000
290.75	-0.000
290.96	-0.000
291.17	-0.000
291.38	-0.000
291.59	-0.000
291.81	-0.000
292.02	-0.000
292.23	-0.000
292.44	-0.000
292.65	-0.000
292.86	-0.000
293.07	-0.000
293.28	-0.000
293.50	-0.000
293.71	-0.000
293.92	-0.000
294.13	-0.000
294.34	-0.000
294.55	-0.000
294.76	-0.000
294.97	-0.000
295.19	-0.000
295.40	-0.000
295.61	-0.000
295.82	-0.000
296.03	-0.000
296.24	-0.000
296.45	-0.000
296.66	-0.000
296.87	-0.000
297.09	-0.000
297.30	-0.000
297.51	-0.000
297.72	2.665
297.93	-0.000
298.14	-0.000
298.35	2.962
298.56	2.641
298.77	-0.000
298.99	-0.000
299.20	-0.000
299.41	3.084
299.62	2.510
299.83	2.440
300.04	2.136
300.25	2.096
300.46	2.298
300.67	2.169
300.88	1.970
301.10	1.977
301.31	2.230
301.52	2.002
301.73	1.848
301.94	1.847
302.15	1.868
302.36	1.766
302.57	1.649
302.78	1.652
302.99	1.731
303.20	1.766
303.41	1.598
303.63	1.563
303.84	1.580
304.05	1.571
304.26	1.480
304.47	1.489
304.68	1.493
304.89	1.481
305.10	1.419
305.31	1.398
305.52	1.461
305.73	1.446
305.94	1.391
306.15	1.379
306.37	1.417
306.58	1.424
306.79	1.379
307.00	1.410
307.21	1.461
307.42	1.453
307.63	1.403
307.84	1.354
308.05	1.405
308.26	1.404
308.47	1.371
308.68	1.360
308.89	1.363
309.10	1.360
309.31	1.307
309.52	1.296
309.73	1.316
309.95	1.304
310.16	1.270
310.37	1.256
310.58	1.281
310.79	1.276
311.00	1.267
311.21	1.269
311.42	1.270
311.63	1.262
311.84	1.238
312.05	1.233
312.26	1.261
312.47	1.277
312.68	1.247
312.89	1.226
313.10	1.236
313.31	1.205
313.52	1.205
313.73	1.207
313.94	1.214
314.15	1.192
314.36	1.167
314.57	1.160
314.78	1.144
314.99	1.138
315.21	1.124
315.42	1.128
315.63	1.144
315.84	1.119
316.05	1.101
316.26	1.109
316.47	1.131
316.68	1.127
316.89	1.105
317.10	1.127
317.31	1.135
317.52	1.133
317.73	1.109
317.94	1.106
318.15	1.166
318.36	1.164
318.57	1.143
318.78	1.128
318.99	1.170
319.20	1.168
319.41	1.126
319.62	1.127
319.83	1.145
320.04	1.140
320.25	1.124
320.46	1.078
320.67	1.082
320.88	1.077
321.09	1.061
321.30	1.045
321.51	1.060
321.72	1.059
321.93	1.040
322.14	1.032
322.35	1.062
322.56	1.065
322.77	1.049
322.98	1.062
323.19	1.073
323.40	1.077
323.61	1.052
323.82	1.046
324.03	1.053
324.24	1.052
324.45	1.035
324.66	1.013
324.87	1.009
325.08	1.009
325.29	0.989
325.50	0.981
325.71	0.989
325.92	0.998
326.13	0.984
326.34	0.984
326.55	0.991
326.76	0.992
326.97	0.979
327.18	0.973
327.39	1.001
327.60	1.002
327.80	1.000
328.01	0.998
328.22	0.998
328.43	1.001
328.64	0.988
328.85	0.992
329.06	0.994
329.27	0.994
329.48	0.989
329.69	0.969
329.90	0.979
330.11	0.973
330.32	0.964
330.53	0.957
330.74	0.957
330.95	0.954
331.16	0.940
331.37	0.949
331.58	0.950
331.79	0.949
332.00	0.939
332.21	0.932
332.42	0.935
332.63	0.927
332.83	0.922
333.04	0.923
333.25	0.938
333.46	0.935
333.67	0.920
333.88	0.922
334.09	0.932
334.30	0.928
334.51	0.918
334.72	0.913
334.93	0.915
335.14	0.913
335.35	0.906
335.56	0.900
335.77	0.909
335.98	0.907
336.18	0.899
336.39	0.891
336.60	0.897
336.81	0.895
337.02	0.893
337.23	0.898
337.44	0.903
337.65	0.904
337.86	0.892
338.07	0.888
338.28	0.896
338.49	0.893
338.70	0.886
338.91	0.894
339.11	0.902
339.32	0.898
339.53	0.886
339.74	0.882
339.95	0.879
340.16	0.878
340.37	0.869
340.58	0.867
340.79	0.871
341.00	0.870
341.21	0.858
341.41	0.858
341.62	0.860
341.83	0.860
342.04	0.856
342.25	0.867
342.46	0.872
342.67	0.870
342.88	0.862
343.09	0.861
343.30	0.869
343.50	0.873
343.71	0.862
343.92	0.861
344.13	0.866
344.34	0.866
344.55	0.849
344.76	0.847
344.97	0.852
345.18	0.851
345.38	0.848
345.59	0.842
345.80	0.842
346.01	0.840
346.22	0.835
346.43	0.828
346.64	0.837
346.85	0.836
347.06	0.829
347.26	0.828
347.47	0.832
347.68	0.827
347.89	0.824
348.10	0.819
348.31	0.825
348.52	0.825
348.73	0.822
348.93	0.818
349.14	0.820
349.35	0.820
349.56	0.813
349.77	0.809
349.98	0.816
350.19	0.813
350.39	0.807
350.60	0.803
350.81	0.819
351.02	0.818
351.23	0.813
351.44	0.817
351.65	0.820
351.86	0.819
352.06	0.816
352.27	0.816
352.48	0.818
352.69	0.817
352.90	0.813
353.11	0.799
353.31	0.806
353.52	0.804
353.73	0.794
353.94	0.795
354.15	0.802
354.36	0.802
354.57	0.793
354.77	0.796
354.98	0.795
355.19	0.794
355.40	0.794
355.61	0.800
355.82	0.803
356.02	0.803
356.23	0.795
356.44	0.797
356.65	0.800
356.86	0.800
357.07	0.793
357.27	0.797
357.48	0.799
357.69	0.794
357.90	0.778
358.11	0.775
358.32	0.780
358.52	0.783
358.73	0.772
358.94	0.775
359.15	0.781
359.36	0.781
359.56	0.776
359.77	0.772
359.98	0.780
360.19	0.779
360.40	0.775
360.61	0.775
360.81	0.774
361.02	0.774
361.23	0.765
361.44	0.764
361.65	0.764
361.85	0.764
362.06	0.762
362.27	0.764
362.48	0.766
362.69	0.769
362.89	0.762
363.10	0.764
363.31	0.769
363.52	0.773
363.73	0.767
363.93	0.769
364.14	0.770
364.35	0.771
364.56	0.761
364.77	0.762
364.97	0.766
365.18	0.766
365.39	0.760
365.60	0.756
365.81	0.756
366.01	0.756
366.22	0.752
366.43	0.752
366.64	0.755
366.84	0.760
367.05	0.757
367.26	0.755
367.47	0.757
367.68	0.757
367.88	0.754
368.09	0.752
368.30	0.755
368.51	0.755
368.71	0.753
368.92	0.757
369.13	0.755
369.34	0.755
369.55	0.753
369.75	0.753
369.96	0.761
370.17	0.761
370.38	0.757
370.58	0.756
370.79	0.763
371.00	0.762
371.21	0.753
371.41	0.758
371.62	0.762
371.83	0.758
372.04	0.755
372.24	0.748
372.45	0.750
372.66	0.750
372.87	0.747
373.07	0.743
373.28	0.743
373.49	0.746
373.70	0.736
373.90	0.735
374.11	0.745
374.32	0.744
374.53	0.743
374.73	0.743
374.94	0.746
375.15	0.746
375.36	0.743
375.56	0.752
375.77	0.752
375.98	0.752
376.19	0.749
376.39	0.742
376.60	0.746
376.81	0.746
377.02	0.744
377.22	0.743
377.43	0.743
377.64	0.742
377.84	0.733
378.05	0.738
378.26	0.745
378.47	0.744
378.67	0.740
378.88	0.738
379.09	0.738
379.30	0.738
379.50	0.735
379.71	0.737
379.92	0.740
380.12	0.739
380.33	0.731
380.54	0.726
380.75	0.733
380.95	0.733
381.16	0.731
381.37	0.731
381.57	0.733
381.78	0.733
381.99	0.733
382.20	0.732
382.40	0.736
382.61	0.736
382.82	0.732
383.02	0.726
383.23	0.729
383.44	0.729
383.64	0.727
383.85	0.729
384.06	0.733
384.27	0.730
384.47	0.728
384.68	0.729
384.89	0.735
385.09	0.734
385.30	0.733
385.51	0.732
385.71	0.736
385.92	0.736
386.13	0.734
386.33	0.736
386.54	0.737
386.75	0.736
386.95	0.731
387.16	0.726
387.37	0.728
387.58	0.728
387.78	0.726
387.99	0.723
388.20	0.726
388.40	0.723
388.61	0.718
388.82	0.722
389.02	0.724
389.23	0.724
389.44	0.722
389.64	0.722
389.85	0.734
390.06	0.734
390.26	0.735
390.47	0.734
390.68	0.736
390.88	0.734
391.09	0.730
391.30	0.729
391.50	0.730
391.71	0.730
391.92	0.728
392.12	0.720
392.33	0.721
392.53	0.720
392.74	0.719
392.95	0.719
393.15	0.721
393.36	0.723
393.57	0.720
393.77	0.723
393.98	0.725
394.19	0.724
394.39	0.723
394.60	0.724
394.81	0.726
395.01	0.724
395.22	0.721
395.43	0.722
395.63	0.727
395.84	0.728
396.04	0.724
396.25	0.725
396.46	0.727
396.66	0.726
396.87	0.722
397.08	0.720
397.28	0.722
397.49	0.724
397.69	0.720
397.90	0.714
398.11	0.716
398.31	0.716
398.52	0.712
398.73	0.713
398.93	0.712
399.14	0.712
399.34	0.710
399.55	0.711
399.76	0.711
399.96	0.712
400.17	0.710
400.37	0.709
400.58	0.716
400.79	0.717
400.99	0.714
401.20	0.720
401.41	0.722
401.61	0.723
401.82	0.728
402.02	0.728
402.23	0.729
402.44	0.729
402.64	0.728
402.85	0.723
403.05	0.722
403.26	0.721
403.47	0.714
403.67	0.713
403.88	0.714
404.08	0.707
404.29	0.705
404.50	0.705
404.70	0.706
404.91	0.705
405.11	0.701
405.32	0.702
405.52	0.703
405.73	0.703
405.94	0.701
406.14	0.704
406.35	0.707
406.55	0.706
406.76	0.703
406.97	0.704
407.17	0.707
407.38	0.707
407.58	0.704
407.79	0.707
407.99	0.710
408.20	0.710
408.41	0.705
408.61	0.703
408.82	0.704
409.02	0.704
409.23	0.701
409.43	0.700
409.64	0.702
409.84	0.701
410.05	0.698
410.26	0.696
410.46	0.696
410.67	0.696
410.87	0.697
411.08	0.699
411.28	0.701
411.49	0.703
411.69	0.700
411.90	0.702
412.11	0.703
412.31	0.704
412.52	0.702
412.72	0.703
412.93	0.704
413.13	0.703
413.34	0.699
413.54	0.701
413.75	0.703
413.95	0.702
414.16	0.699
414.37	0.702
414.57	0.703
414.78	0.705
414.98	0.703
415.19	0.704
415.39	0.702
415.60	0.704
415.80	0.703
416.01	0.700
416.21	0.703
416.42	0.702
416.62	0.697
416.83	0.697
417.03	0.697
417.24	0.697
417.44	0.694
417.65	0.693
417.86	0.694
418.06	0.693
418.27	0.690
418.47	0.692
418.68	0.693
418.88	0.693
419.09	0.691
419.29	0.692
419.50	0.692
419.70	0.691
419.91	0.690
420.11	0.688
420.32	0.690
420.52	0.689
420.73	0.687
420.93	0.688
421.14	0.690
421.34	0.689
421.55	0.686
421.75	0.687
421.96	0.688
422.16	0.688
422.37	0.687
422.57	0.684
422.78	0.686
422.98	0.683
423.19	0.680
423.39	0.679
423.60	0.683
423.80	0.684
424.01	0.683
424.21	0.685
424.42	0.686
424.62	0.686
424.83	0.685
425.03	0.686
425.23	0.688
425.44	0.688
425.64	0.689
425.85	0.687
426.05	0.688
426.26	0.689
426.46	0.684
426.67	0.683
426.87	0.688
427.08	0.688
427.28	0.686
427.49	0.687
427.69	0.689
427.90	0.687
428.10	0.684
428.31	0.684
428.51	0.685
428.71	0.685
428.92	0.686
429.12	0.683
429.33	0.685
429.53	0.689
429.74	0.693
429.94	0.692
430.15	0.692
430.35	0.692
430.56	0.689
430.76	0.689
430.96	0.690
431.17	0.687
431.37	0.685
431.58	0.682
431.78	0.679
431.99	0.672
432.19	0.674
432.40	0.676
432.60	0.677
432.80	0.679
433.01	0.677
433.21	0.677
433.42	0.679
433.62	0.679
433.83	0.679
434.03	0.681
434.23	0.685
434.44	0.684
434.64	0.682
434.85	0.687
435.05	0.688
435.26	0.688
435.46	0.687
435.66	0.688
435.87	0.688
436.07	0.687
436.28	0.683
436.48	0.680
436.69	0.679
436.89	0.679
437.09	0.672
437.30	0.671
437.50	0.672
437.71	0.684
437.91	0.682
438.11	0.684
438.32	0.689
438.52	0.689
438.73	0.688
438.93	0.686
439.13	0.685
439.34	0.689
439.54	0.687
439.75	0.687
439.95	0.677
440.15	0.681
440.36	0.679
440.56	0.676
440.77	0.677
440.97	0.677
441.17	0.677
441.38	0.678
441.58	0.675
441.79	0.675
441.99	0.674
442.19	0.673
442.40	0.671
442.60	0.670
442.81	0.668
443.01	0.668
443.21	0.670
443.42	0.669
443.62	0.668
443.82	0.668
444.03	0.669
444.23	0.669
444.44	0.669
444.64	0.668
444.84	0.670
445.05	0.669
445.25	0.667
445.45	0.668
445.66	0.670
445.86	0.669
446.06	0.670
446.27	0.669
446.47	0.672
446.68	0.671
446.88	0.669
447.08	0.669
447.29	0.671
447.49	0.671
447.69	0.670
447.90	0.669
448.10	0.673
448.30	0.670
448.51	0.672
448.71	0.670
448.91	0.672
449.12	0.671
449.32	0.673
449.52	0.672
449.73	0.675
449.93	0.674
450.14	0.675
450.34	0.674
450.54	0.677
450.75	0.674
450.95	0.672
451.15	0.672
451.36	0.674
451.56	0.671
451.76	0.670
451.97	0.667
452.17	0.668
452.37	0.666
452.58	0.663
452.78	0.662
452.98	0.665
453.19	0.665
453.39	0.666
453.59	0.665
453.79	0.666
454.00	0.667
454.20	0.666
454.40	0.667
454.61	0.669
454.81	0.670
455.01	0.668
455.22	0.669
455.42	0.670
455.62	0.668
455.83	0.667
456.03	0.670
456.23	0.670
456.44	0.671
456.64	0.669
456.84	0.669
457.04	0.670
457.25	0.669
457.45	0.666
457.65	0.665
457.86	0.667
458.06	0.665
458.26	0.661
458.47	0.661
458.67	0.662
458.87	0.663
459.07	0.661
459.28	0.662
459.48	0.665
459.68	0.665
459.89	0.664
460.09	0.662
460.29	0.663
460.49	0.664
460.70	0.663
460.90	0.663
461.10	0.664
461.31	0.663
461.51	0.660
461.71	0.662
461.91	0.664
462.12	0.663
462.32	0.663
462.52	0.664
462.72	0.667
462.93	0.668
463.13	0.667
463.33	0.667
463.53	0.668
463.74	0.668
463.94	0.663
464.14	0.663
464.35	0.665
464.55	0.666
464.75	0.663
464.95	0.661
465.16	0.662
465.36	0.661
465.56	0.659
465.76	0.659
465.97	0.660
466.17	0.661
466.37	0.658
466.57	0.659
466.78	0.660
466.98	0.660
467.18	0.658
467.38	0.658
467.59	0.659
467.79	0.661
467.99	0.660
468.19	0.661
468.39	0.664
468.60	0.665
468.80	0.662
469.00	0.664
469.20	0.665
469.41	0.665
469.61	0.664
469.81	0.664
470.01	0.663
470.22	0.664
470.42	0.661
470.62	0.660
470.82	0.662
471.02	0.661
471.23	0.659
471.43	0.659
471.63	0.662
471.83	0.661
472.04	0.659
472.24	0.658
472.44	0.664
472.64	0.664
472.84	0.662
473.05	0.662
473.25	0.665
473.45	0.664
473.65	0.662
473.85	0.662
474.06	0.664
474.26	0.663
474.46	0.664
474.66	0.661
474.86	0.662
475.07	0.661
475.27	0.659
475.47	0.656
475.67	0.657
475.87	0.659
476.08	0.656
476.28	0.657
476.48	0.659
476.68	0.657
476.88	0.654
477.09	0.655
477.29	0.657
477.49	0.657
477.69	0.657
477.89	0.657
478.09	0.656
478.30	0.658
478.50	0.655
478.70	0.654
478.90	0.655
479.10	0.658
479.31	0.659
479.51	0.657
479.71	0.657
479.91	0.658
480.11	0.657
480.31	0.658
480.52	0.657
480.72	0.657
480.92	0.656
481.12	0.654
481.32	0.652
481.52	0.650
481.72	0.650
481.93	0.654
482.13	0.654
482.33	0.654
482.53	0.651
482.73	0.652
482.93	0.653
483.14	0.653
483.34	0.651
483.54	0.653
483.74	0.652
483.94	0.651
484.14	0.647
484.34	0.646
484.55	0.647
484.75	0.647
484.95	0.645
485.15	0.644
485.35	0.644
485.55	0.644
485.75	0.641
485.96	0.642
486.16	0.643
486.36	0.642
486.56	0.640
486.76	0.641
486.96	0.641
487.16	0.641
487.36	0.639
487.57	0.639
487.77	0.640
487.97	0.641
488.17	0.639
488.37	0.639
488.57	0.639
488.77	0.640
488.97	0.638
489.18	0.638
489.38	0.640
489.58	0.641
489.78	0.640
489.98	0.639
490.18	0.639
490.38	0.640
490.58	0.638
490.78	0.639
490.98	0.641
491.19	0.641
491.39	0.640
491.59	0.639
491.79	0.642
491.99	0.642
492.19	0.641
492.39	0.645
492.59	0.645
492.79	0.647
492.99	0.646
493.20	0.646
493.40	0.647
493.60	0.649
493.80	0.647
494.00	0.645
494.20	0.646
494.40	0.646
494.60	0.643
494.80	0.647
495.00	0.647
495.20	0.645
495.40	0.644
495.61	0.646
495.81	0.645
496.01	0.649
496.21	0.650
496.41	0.649
496.61	0.650
496.81	0.649
497.01	0.644
497.21	0.643
497.41	0.644
497.61	0.644
497.81	0.641
498.01	0.642
498.21	0.640
498.41	0.637
498.61	0.637
498.82	0.638
499.02	0.641
499.22	0.641
499.42	0.640
499.62	0.641
499.82	0.642
500.02	0.644
500.22	0.642
500.42	0.644
500.62	0.644
500.82	0.645
501.02	0.643
501.22	0.643
501.42	0.643
501.62	0.645
501.82	0.644
502.02	0.645
502.22	0.644
502.42	0.646
502.62	0.643
502.82	0.644
503.02	0.645
503.22	0.644
503.42	0.642
503.63	0.643
503.83	0.641
504.03	0.640
504.23	0.638
504.43	0.639
504.63	0.640
504.83	0.640
505.03	0.639
505.23	0.640
505.43	0.641
505.63	0.642
505.83	0.641
506.03	0.643
506.23	0.645
506.43	0.645
506.63	0.644
506.83	0.643
507.03	0.644
507.23	0.645
507.43	0.642
507.63	0.643
507.83	0.643
508.03	0.643
508.23	0.643
508.43	0.641
508.63	0.643
508.83	0.644
509.03	0.645
509.23	0.644
509.43	0.645
509.63	0.645
509.83	0.644
510.03	0.647
510.23	0.648
510.43	0.649
510.63	0.649
510.83	0.649
511.03	0.651
511.23	0.648
511.43	0.648
511.63	0.649
511.83	0.652
512.03	0.652
512.22	0.648
512.42	0.648
512.62	0.649
512.82	0.649
513.02	0.648
513.22	0.648
513.42	0.650
513.62	0.652
513.82	0.650
514.02	0.649
514.22	0.650
514.42	0.651
514.62	0.651
514.82	0.651
515.02	0.653
515.22	0.656
515.42	0.655
515.62	0.657
515.82	0.656
516.02	0.658
516.22	0.657
516.42	0.659
516.62	0.661
516.82	0.662
517.01	0.661
517.21	0.660
517.41	0.663
517.61	0.663
517.81	0.659
518.01	0.659
518.21	0.659
518.41	0.658
518.61	0.657
518.81	0.656
519.01	0.657
519.21	0.656
519.41	0.655
519.61	0.650
519.81	0.652
520.00	0.653
520.20	0.653
520.40	0.656
520.60	0.656
520.80	0.656
521.00	0.657
521.20	0.658
521.40	0.663
521.60	0.664
521.80	0.663
522.00	0.662
522.20	0.665
522.39	0.664
522.59	0.660
522.79	0.662
522.99	0.665
523.19	0.664
523.39	0.662
523.59	0.660
523.79	0.663
523.99	0.666
524.19	0.665
524.38	0.664
524.58	0.666
524.78	0.667
524.98	0.664
525.18	0.666
525.38	0.667
525.58	0.667
525.78	0.663
525.98	0.662
526.18	0.662
526.37	0.662
526.57	0.664
526.77	0.664
526.97	0.664
527.17	0.664
527.37	0.660
527.57	0.663
527.77	0.665
527.96	0.666
528.16	0.664
528.36	0.665
528.56	0.667
528.76	0.665
528.96	0.663
529.16	0.664
529.36	0.667
529.55	0.668
529.75	0.664
529.95	0.664
530.15	0.666
530.35	0.669
530.55	0.666
530.75	0.667
530.94	0.668
531.14	0.669
531.34	0.667
531.54	0.665
531.74	0.669
531.94	0.673
532.13	0.670
532.33	0.671
532.53	0.669
532.73	0.669
532.93	0.666
533.13	0.667
533.33	0.668
533.52	0.669
533.72	0.671
533.92	0.669
534.12	0.667
534.32	0.667
534.52	0.665
534.71	0.668
534.91	0.672
535.11	0.674
535.31	0.672
535.51	0.674
535.71	0.675
535.90	0.673
536.10	0.673
536.30	0.676
536.50	0.677
536.70	0.677
536.89	0.675
537.09	0.674
537.29	0.675
537.49	0.676
537.69	0.674
537.89	0.674
538.08	0.674
538.28	0.672
538.48	0.671
538.68	0.673
538.88	0.675
539.07	0.674
539.27	0.672
539.47	0.671
539.67	0.672
539.87	0.673
540.06	0.671
540.26	0.673
540.46	0.675
540.66	0.673
540.86	0.670
541.05	0.670
541.25	0.672
541.45	0.672
541.65	0.670
541.84	0.672
542.04	0.673
542.24	0.673
542.44	0.672
542.64	0.674
542.83	0.677
543.03	0.678
543.23	0.675
543.43	0.676
543.62	0.678
543.82	0.678
544.02	0.677
544.22	0.677
544.42	0.681
544.61	0.681
544.81	0.677
545.01	0.675
545.21	0.677
545.40	0.678
545.60	0.676
545.80	0.679
546.00	0.679
546.19	0.678
546.39	0.677
546.59	0.674
546.79	0.675
546.98	0.675
547.18	0.675
547.38	0.676
547.58	0.678
547.77	0.678
547.97	0.673
548.17	0.675
548.37	0.676
548.56	0.676
548.76	0.675
548.96	0.677
549.16	0.680
549.35	0.679
549.55	0.677
549.75	0.678
549.95	0.682
550.14	0.682
550.34	0.681
550.54	0.686
550.73	0.690
550.93	0.691
551.13	0.688
551.33	0.687
551.52	0.688
551.72	0.689
551.92	0.686
552.12	0.687
552.31	0.688
552.51	0.688
552.71	0.683
552.90	0.682
553.10	0.683
553.30	0.683
553.50	0.682
553.69	0.683
553.89	0.684
554.09	0.685
554.28	0.681
554.48	0.683
554.68	0.685
554.87	0.685
555.07	0.682
555.27	0.682
555.47	0.683
555.66	0.684
555.86	0.682
556.06	0.685
556.25	0.686
556.45	0.694
556.65	0.691
556.84	0.694
557.04	0.697
557.24	0.699
557.43	0.698
557.63	0.701
557.83	0.703
558.02	0.703
558.22	0.707
558.42	0.708
558.61	0.701
558.81	0.701
559.01	0.697
559.21	0.696
559.40	0.697
559.60	0.697
559.80	0.693
559.99	0.695
560.19	0.697
560.39	0.690
560.58	0.688
560.78	0.688
560.97	0.691
561.17	0.691
561.37	0.689
561.56	0.689
561.76	0.692
561.96	0.692
562.15	0.689
562.35	0.692
562.55	0.694
562.74	0.694
562.94	0.692
563.14	0.691
563.33	0.691
563.53	0.692
563.73	0.689
563.92	0.691
564.12	0.694
564.31	0.696
564.51	0.693
564.71	0.695
564.90	0.698
565.10	0.699
565.30	0.701
565.49	0.703
565.69	0.706
565.89	0.706
566.08	0.702
566.28	0.703
566.47	0.705
566.67	0.703
566.87	0.700
567.06	0.701
567.26	0.708
567.46	0.703
567.65	0.702
567.85	0.702
568.04	0.706
568.24	0.705
568.44	0.702
568.63	0.700
568.83	0.703
569.02	0.701
569.22	0.696
569.42	0.692
569.61	0.695
569.81	0.693
570.00	0.691
570.20	0.692
570.40	0.694
570.59	0.694
570.79	0.692
570.98	0.689
571.18	0.691
571.38	0.691
571.57	0.687
571.77	0.685
571.96	0.688
572.16	0.686
572.35	0.680
572.55	0.681
572.75	0.679
572.94	0.679
573.14	0.677
573.33	0.677
573.53	0.678
573.73	0.678
573.92	0.676
574.12	0.674
574.31	0.677
574.51	0.678
574.70	0.674
574.90	0.676
575.09	0.678
575.29	0.678
575.49	0.676
575.68	0.676
575.88	0.678
576.07	0.680
576.27	0.677
576.46	0.676
576.66	0.676
576.86	0.675
577.05	0.672
577.25	0.671
577.44	0.672
577.64	0.672
577.83	0.670
578.03	0.670
578.22	0.670
578.42	0.669
578.61	0.667
578.81	0.668
579.00	0.668
579.20	0.668
579.40	0.667
579.59	0.665
579.79	0.666
579.98	0.665
580.18	0.665
580.37	0.665
580.57	0.667
580.76	0.672
580.96	0.670
581.15	0.672
581.35	0.673
581.54	0.673
581.74	0.673
581.93	0.674
582.13	0.675
582.32	0.673
582.52	0.671
582.71	0.671
582.91	0.667
583.10	0.666
583.30	0.665
583.49	0.664
583.69	0.668
583.88	0.669
584.08	0.668
584.27	0.670
584.47	0.673
584.66	0.674
584.86	0.673
585.05	0.675
585.25	0.677
585.44	0.677
585.64	0.675
585.83	0.672
586.03	0.673
586.22	0.671
586.42	0.667
586.61	0.669
586.81	0.671
587.00	0.671
587.20	0.668
587.39	0.669
587.59	0.671
587.78	0.672
587.98	0.673
588.17	0.673
588.37	0.676
588.56	0.678
588.76	0.674
588.95	0.674
589.15	0.678
589.34	0.680
589.54	0.679
589.73	0.680
589.92	0.683
590.12	0.682
590.31	0.680
590.51	0.685
590.70	0.687
590.90	0.688
591.09	0.686
591.29	0.684
591.48	0.684
591.68	0.685
591.87	0.683
592.06	0.682
592.26	0.685
592.45	0.685
592.65	0.678
592.84	0.678
593.04	0.681
593.23	0.683
593.43	0.681
593.62	0.680
593.81	0.680
594.01	0.680
594.20	0.678
594.40	0.677
594.59	0.679
594.79	0.680
594.98	0.678
595.17	0.677
595.37	0.678
595.56	0.680
595.76	0.680
595.95	0.681
596.14	0.684
596.34	0.685
596.53	0.683
596.73	0.685
596.92	0.686
597.12	0.689
597.31	0.688
597.50	0.687
597.70	0.690
597.89	0.688
598.09	0.686
598.28	0.687
598.47	0.690
598.67	0.688
598.86	0.684
599.06	0.686
599.25	0.686
599.44	0.685
599.64	0.682
599.83	0.679
600.03	0.683
600.22	0.683
600.41	0.682
600.61	0.680
600.80	0.683
601.00	0.683
601.19	0.679
601.38	0.678
601.58	0.681
601.77	0.682
601.96	0.685
602.16	0.684
602.35	0.693
602.55	0.691
602.74	0.692
602.93	0.693
603.13	0.699
603.32	0.701
603.51	0.699
603.71	0.703
603.90	0.704
604.09	0.704
604.29	0.702
604.48	0.696
604.68	0.697
604.87	0.695
605.06	0.691
605.26	0.688
605.45	0.689
605.64	0.688
605.84	0.682
606.03	0.681
606.22	0.680
606.42	0.679
606.61	0.676
606.80	0.676
607.00	0.678
607.19	0.679
607.38	0.678
607.58	0.679
607.77	0.682
607.96	0.682
608.16	0.681
608.35	0.686
608.54	0.690
608.74	0.693
608.93	0.698
609.12	0.700
609.32	0.703
609.51	0.706
609.70	0.704
609.90	0.706
610.09	0.712
610.28	0.717
610.48	0.710
610.67	0.711
610.86	0.713
611.06	0.707
611.25	0.706
611.44	0.706
611.64	0.706
611.83	0.709
612.02	0.705
612.21	0.703
612.41	0.702
612.60	0.701
612.79	0.696
612.99	0.696
613.18	0.698
613.37	0.695
613.57	0.692
613.76	0.694
613.95	0.692
614.14	0.692
614.34	0.689
614.53	0.691
614.72	0.694
614.92	0.695
615.11	0.692
615.30	0.689
615.49	0.691
615.69	0.694
615.88	0.690
616.07	0.692
616.26	0.695
616.46	0.696
616.65	0.692
616.84	0.691
617.04	0.692
617.23	0.695
617.42	0.695
617.61	0.698
617.81	0.699
618.00	0.701
618.19	0.699
618.38	0.702
618.58	0.707
618.77	0.709
618.96	0.708
619.15	0.711
619.35	0.712
619.54	0.713
619.73	0.708
619.92	0.709
620.12	0.713
620.31	0.714
620.50	0.708
620.69	0.708
620.89	0.711
621.08	0.710
621.27	0.710
621.46	0.709
621.66	0.714
621.85	0.715
622.04	0.712
622.23	0.712
622.43	0.714
622.62	0.714
622.81	0.712
623.00	0.711
623.19	0.715
623.39	0.714
623.58	0.711
623.77	0.710
623.96	0.713
624.16	0.712
624.35	0.707
624.54	0.710
624.73	0.714
624.92	0.712
625.12	0.710
625.31	0.711
625.50	0.714
625.69	0.715
625.88	0.710
626.08	0.709
626.27	0.711
626.46	0.712
626.65	0.708
626.84	0.708
627.04	0.713
627.23	0.713
627.42	0.708
627.61	0.711
627.80	0.714
628.00	0.714
628.19	0.712
628.38	0.716
628.57	0.718
628.76	0.717
628.96	0.714
629.15	0.716
629.34	0.718
629.53	0.719
629.72	0.712
629.91	0.712
630.11	0.717
630.30	0.717
630.49	0.719
630.68	0.719
630.87	0.725
631.06	0.727
631.26	0.720
631.45	0.723
631.64	0.731
631.83	0.734
632.02	0.731
632.21	0.731
632.41	0.739
632.60	0.733
632.79	0.732
632.98	0.733
633.17	0.735
633.36	0.737
633.55	0.733
633.75	0.729
633.94	0.731
634.13	0.731
634.32	0.728
634.51	0.722
634.70	0.725
634.89	0.725
635.09	0.719
635.28	0.720
635.47	0.722
635.66	0.724
635.85	0.719
636.04	0.721
636.23	0.726
636.43	0.726
636.62	0.726
636.81	0.724
637.00	0.726
637.19	0.730
637.38	0.726
637.57	0.725
637.76	0.728
637.95	0.729
638.15	0.725
638.34	0.722
638.53	0.727
638.72	0.727
638.91	0.725
639.10	0.722
639.29	0.724
639.48	0.725
639.67	0.725
639.87	0.723
640.06	0.729
640.25	0.728
640.44	0.729
640.63	0.729
640.82	0.733
641.01	0.732
641.20	0.732
641.39	0.733
641.58	0.735
641.78	0.734
641.97	0.729
642.16	0.744
642.35	0.745
642.54	0.743
642.73	0.737
642.92	0.735
643.11	0.740
643.30	0.739
643.49	0.734
643.68	0.737
643.87	0.739
644.06	0.739
644.25	0.718
644.45	0.722
644.64	0.723
644.83	0.723
645.02	0.720
645.21	0.719
645.40	0.720
645.59	0.720
645.78	0.714
645.97	0.716
646.16	0.719
646.35	0.718
646.54	0.715
646.73	0.717
646.92	0.719
647.11	0.718
647.30	0.714
647.49	0.715
647.68	0.715
647.88	0.714
648.07	0.706
648.26	0.708
648.45	0.710
648.64	0.707
648.83	0.705
649.02	0.708
649.21	0.718
649.40	0.716
649.59	0.711
649.78	0.712
649.97	0.728
650.16	0.727
650.35	0.720
650.54	0.722
650.73	0.731
650.92	0.727
651.11	0.719
651.30	0.718
651.49	0.723
651.68	0.723
651.87	0.719
652.06	0.708
652.25	0.712
652.44	0.715
652.63	0.712
652.82	0.712
653.01	0.712
653.20	0.709
653.39	0.696
653.58	0.693
653.77	0.693
653.96	0.687
654.15	0.679
654.34	0.677
654.53	0.672
654.72	0.666
654.91	0.656
655.10	0.653
655.29	0.651
655.48	0.649
655.67	0.644
655.86	0.642
656.05	0.640
656.24	0.640
656.43	0.635
656.62	0.634
656.81	0.634
657.00	0.633
657.19	0.630
657.38	0.630
657.57	0.630
657.76	0.632
657.95	0.630
658.14	0.634
658.33	0.636
658.51	0.642
658.70	0.642
658.89	0.644
659.08	0.653
659.27	0.662
659.46	0.662
659.65	0.668
659.84	0.672
660.03	0.676
660.22	0.676
660.41	0.681
660.60	0.681
660.79	0.683
660.98	0.688
661.17	0.687
661.36	0.685
661.55	0.686
661.74	0.683
661.92	0.686
662.11	0.688
662.30	0.686
662.49	0.679
662.68	0.679
662.87	0.683
663.06	0.677
663.25	0.678
663.44	0.677
663.63	0.678
663.82	0.677
664.01	0.672
664.20	0.671
664.38	0.673
664.57	0.673
664.76	0.672
664.95	0.672
665.14	0.677
665.33	0.672
665.52	0.680
665.71	0.684
665.90	0.684
666.09	0.685
666.28	0.683
666.46	0.682
666.65	0.683
666.84	0.681
667.03	0.675
667.22	0.674
667.41	0.677
667.60	0.666
667.79	0.659
667.98	0.660
668.16	0.661
668.35	0.661
668.54	0.658
668.73	0.658
668.92	0.660
669.11	0.659
669.30	0.653
669.49	0.649
669.67	0.651
669.86	0.653
670.05	0.650
670.24	0.648
670.43	0.645
670.62	0.644
670.81	0.639
671.00	0.640
671.18	0.640
671.37	0.639
671.56	0.636
671.75	0.635
671.94	0.633
672.13	0.630
672.32	0.626
672.50	0.625
672.69	0.625
672.88	0.626
673.07	0.621
673.26	0.623
673.45	0.624
673.63	0.625
673.82	0.621
674.01	0.622
674.20	0.622
674.39	0.621
674.58	0.620
674.76	0.620
674.95	0.618
675.14	0.619
675.33	0.614
675.52	0.613
675.71	0.614
675.89	0.613
676.08	0.609
676.27	0.609
676.46	0.610
676.65	0.610
676.84	0.609
677.02	0.611
677.21	0.613
677.40	0.613
677.59	0.609
677.78	0.609
677.96	0.612
678.15	0.611
678.34	0.609
678.53	0.610
678.72	0.609
678.90	0.606
679.09	0.602
679.28	0.598
679.47	0.598
679.66	0.597
679.84	0.594
680.03	0.592
680.22	0.591
680.41	0.593
680.60	0.589
680.78	0.588
680.97	0.591
681.16	0.591
681.35	0.590
681.53	0.588
681.72	0.589
681.91	0.591
682.10	0.589
682.29	0.592
682.47	0.590
682.66	0.589
682.85	0.587
683.04	0.586
683.22	0.586
683.41	0.588
683.60	0.587
683.79	0.588
683.97	0.588
684.16	0.587
684.35	0.583
684.54	0.584
684.72	0.584
684.91	0.585
685.10	0.582
685.29	0.584
685.47	0.581
685.66	0.580
685.85	0.577
686.04	0.576
686.22	0.579
686.41	0.582
686.60	0.579
686.79	0.582
686.97	0.583
687.16	0.584
687.35	0.581
687.54	0.585
687.72	0.589
687.91	0.589
688.10	0.590
688.29	0.590
688.47	0.588
688.66	0.587
688.85	0.583
689.03	0.581
689.22	0.585
689.41	0.586
689.60	0.581
689.78	0.579
689.97	0.579
690.16	0.576
690.34	0.573
690.53	0.572
690.72	0.572
690.91	0.570
691.09	0.568
691.28	0.562
691.47	0.560
691.65	0.559
691.84	0.555
692.03	0.554
692.21	0.552
692.40	0.552
692.59	0.549
692.77	0.548
692.96	0.550
693.15	0.551
693.34	0.549
693.52	0.549
693.71	0.550
693.90	0.552
694.08	0.553
694.27	0.554
694.46	0.564
694.64	0.565
694.83	0.564
695.02	0.563
695.20	0.562
695.39	0.562
695.58	0.562
695.76	0.563
695.95	0.563
696.14	0.562
696.32	0.559
696.51	0.549
696.70	0.550
696.88	0.551
697.07	0.549
697.26	0.551
697.44	0.552
697.63	0.551
697.81	0.548
698.00	0.548
698.19	0.547
698.37	0.547
698.56	0.547
698.75	0.547
698.93	0.547
699.12	0.546
699.31	0.545
699.49	0.544
699.68	0.546
699.87	0.548
700.05	0.547
700.24	0.546
700.42	0.548
700.61	0.547
700.80	0.545
700.98	0.545
701.17	0.547
701.36	0.546
701.54	0.545
701.73	0.545
701.91	0.543
702.10	0.542
702.29	0.541
702.47	0.540
702.66	0.541
702.84	0.542
703.03	0.540
703.22	0.542
703.40	0.542
703.59	0.544
703.77	0.544
703.96	0.544
704.15	0.545
704.33	0.545
704.52	0.544
704.70	0.543
704.89	0.544
705.08	0.542
705.26	0.538
705.45	0.537
705.63	0.537
705.82	0.533
706.00	0.532
706.19	0.531
706.38	0.531
706.56	0.531
706.75	0.528
706.93	0.527
707.12	0.529
707.30	0.529
707.49	0.527
707.68	0.524
707.86	0.524
708.05	0.524
708.23	0.521
708.42	0.522
708.60	0.525
708.79	0.525
708.98	0.523
709.16	0.522
709.35	0.524
709.53	0.529
709.72	0.528
709.90	0.530
710.09	0.532
710.27	0.534
710.46	0.538
710.64	0.536
710.83	0.538
711.02	0.540
711.20	0.538
711.39	0.537
711.57	0.534
711.76	0.534
711.94	0.532
712.13	0.533
712.31	0.533
712.50	0.528
712.68	0.526
712.87	0.527
713.05	0.527
713.24	0.527
713.42	0.527
713.61	0.528
713.79	0.529
713.98	0.530
714.16	0.530
714.35	0.530
714.54	0.531
714.72	0.531
714.91	0.528
715.09	0.535
715.28	0.539
715.46	0.539
715.65	0.536
715.83	0.536
716.02	0.538
716.20	0.536
716.39	0.534
716.57	0.536
716.76	0.538
716.94	0.538
717.12	0.530
717.31	0.531
717.49	0.533
717.68	0.536
717.86	0.534
718.05	0.536
718.23	0.537
718.42	0.541
718.60	0.541
718.79	0.549
718.97	0.552
719.16	0.551
719.34	0.549
719.53	0.550
719.71	0.550
719.90	0.552
720.08	0.550
720.27	0.550
720.45	0.550
720.63	0.549
720.82	0.543
721.00	0.545
721.19	0.549
721.37	0.549
721.56	0.549
721.74	0.552
721.93	0.560
722.11	0.567
722.30	0.566
722.48	0.571
722.66	0.573
722.85	0.572
723.03	0.573
723.22	0.571
723.40	0.573
723.59	0.574
723.77	0.578
723.95	0.571
724.14	0.572
724.32	0.574
724.51	0.573
724.69	0.574
724.88	0.574
725.06	0.571
725.24	0.572
725.43	0.574
725.61	0.576
725.80	0.570
725.98	0.567
726.16	0.564
726.35	0.571
726.53	0.570
726.72	0.569
726.90	0.580
727.09	0.581
727.27	0.587
727.45	0.584
727.64	0.594
727.82	0.603
728.01	0.608
728.19	0.605
728.37	0.610
728.56	0.614
728.74	0.621
728.92	0.608
729.11	0.612
729.29	0.612
729.48	0.614
729.66	0.603
729.84	0.604
730.03	0.607
730.21	0.610
730.40	0.601
730.58	0.602
730.76	0.602
730.95	0.604
731.13	0.603
731.31	0.618
731.50	0.629
731.68	0.633
731.86	0.628
732.05	0.644
732.23	0.646
732.42	0.649
732.60	0.654
732.78	0.658
732.97	0.677
733.15	0.685
733.33	0.671
733.52	0.676
733.70	0.689
733.88	0.701
734.07	0.686
734.25	0.714
734.43	0.722
734.62	0.724
734.80	0.720
734.98	0.711
735.17	0.718
735.35	0.727
735.53	0.715
735.72	0.716
735.90	0.738
736.08	0.759
736.27	0.734
736.45	0.745
736.63	0.760
736.82	0.771
737.00	0.771
737.18	0.780
737.37	0.813
737.55	0.840
737.73	0.834
737.92	0.834
738.10	0.834
738.28	0.856
738.46	0.844
738.65	0.859
738.83	0.884
739.01	0.943
739.20	0.934
739.38	0.919
739.56	0.911
739.75	0.918
739.93	0.880
740.11	0.906
740.29	0.912
740.48	0.920
740.66	0.894
740.84	0.890
741.03	0.851
741.21	0.866
741.39	0.841
741.57	0.857
741.76	0.876
741.94	0.883
742.12	0.842
742.31	0.851
742.49	0.878
742.67	0.904
742.85	0.921
743.04	0.927
743.22	0.936
743.40	0.999
743.58	0.974
743.77	0.996
743.95	1.040
744.13	1.109
744.31	1.078
744.50	1.069
744.68	1.069
744.86	1.032
745.04	1.045
745.23	1.133
745.41	1.116
745.59	1.125
745.77	1.082
745.96	1.068
746.14	1.081
746.32	1.074
746.50	1.056
746.69	1.039
746.87	1.059
747.05	1.039
747.23	0.943
747.42	0.927
747.60	0.963
747.78	0.962
747.96	0.993
748.14	0.939
748.33	0.974
748.51	0.972
748.69	0.962
748.87	0.997
749.06	0.992
749.24	0.991
749.42	0.969
749.60	0.945
749.78	0.955
749.97	0.906
750.15	0.899
750.33	0.903
750.51	0.933
750.69	0.938
750.88	0.935
751.06	0.949
751.24	0.985
751.42	0.975
751.60	0.963
751.79	1.049
751.97	1.111
752.15	1.107
752.33	1.060
752.51	1.136
752.69	1.167
752.88	1.125
753.06	1.183
753.24	1.147
753.42	1.194
753.60	1.432
753.78	1.216
753.97	1.231
754.15	1.261
754.33	1.297
754.51	1.133
754.69	1.100
754.87	1.148
755.06	1.061
755.24	1.059
755.42	1.066
755.60	0.954
755.78	0.966
755.96	0.900
756.15	0.900
756.33	0.913
756.51	0.934
756.69	0.920
756.87	0.877
757.05	0.902
757.23	0.884
757.42	0.845
757.60	0.843
757.78	0.832
757.96	0.832
758.14	0.813
758.32	0.793
758.50	0.808
758.69	0.807
758.87	0.796
759.05	0.795
759.23	0.810
759.41	0.812
759.59	0.804
759.77	0.828
759.95	0.857
760.13	0.911
760.32	0.912
760.50	0.906
760.68	0.933
760.86	0.936
761.04	0.909
761.22	0.910
761.40	0.967
761.58	0.969
761.76	0.933
761.95	0.916
762.13	0.866
762.31	0.864
762.49	0.827
762.67	0.847
762.85	0.864
763.03	0.857
763.21	0.838
763.39	0.818
763.57	0.820
763.75	0.816
763.94	0.797
764.12	0.800
764.30	0.825
764.48	0.833
764.66	0.792
764.84	0.787
765.02	0.829
765.20	0.834
765.38	0.810
765.56	0.819
765.74	0.865
765.92	0.868
766.10	0.873
766.28	0.867
766.46	0.898
766.65	0.897
766.83	0.883
767.01	0.868
767.19	0.878
767.37	0.877
767.55	0.858
767.73	0.834
767.91	0.841
768.09	0.830
768.27	0.817
768.45	0.804
768.63	0.812
768.81	0.813
768.99	0.783
769.17	0.811
769.35	0.829
769.53	0.825
769.71	0.804
769.89	0.812
770.07	0.818
770.25	0.800
770.43	0.779
770.61	0.804
770.79	0.813
770.97	0.823
771.15	0.786
771.33	0.789
771.51	0.796
771.69	0.808
771.87	0.817
772.05	0.827
772.24	0.834
772.42	0.841
772.60	0.816
772.78	0.885
772.96	0.918
773.14	0.910
773.32	0.882
773.49	0.892
773.67	0.892
773.85	0.866
774.03	0.849
774.21	0.888
774.39	0.904
774.57	0.932
774.75	0.845
774.93	0.841
775.11	0.871
775.29	0.881
775.47	0.881
775.65	0.892
775.83	0.912
776.01	0.936
776.19	0.880
776.37	0.880
776.55	0.879
776.73	0.876
776.91	0.869
777.09	0.848
777.27	0.849
777.45	0.835
777.63	0.809
777.81	0.806
777.99	0.792
778.17	0.790
778.35	0.766
778.53	0.753
778.71	0.762
778.89	0.747
779.07	0.737
779.24	0.741
779.42	0.744
779.60	0.764
779.78	0.760
779.96	0.769
780.14	0.778
780.32	0.804
780.50	0.785
780.68	0.783
780.86	0.773
781.04	0.790
781.22	0.794
781.40	0.804
781.58	0.794
781.75	0.785
781.93	0.764
782.11	0.766
782.29	0.750
782.47	0.749
782.65	0.734
782.83	0.768
783.01	0.760
783.19	0.753
783.37	0.738
783.55	0.741
783.72	0.762
783.90	0.773
784.08	0.759
784.26	0.771
784.44	0.793
784.62	0.798
784.80	0.759
784.98	0.766
785.16	0.772
785.33	0.789
785.51	0.772
785.69	0.757
785.87	0.758
786.05	0.770
786.23	0.764
786.41	0.761
786.59	0.770
786.77	0.769
786.94	0.755
787.12	0.757
787.30	0.755
787.48	0.753
787.66	0.739
787.84	0.738
788.02	0.728
788.19	0.726
788.37	0.711
788.55	0.709
788.73	0.710
788.91	0.704
789.09	0.686
789.27	0.675
789.44	0.690
789.62	0.697
789.80	0.706
789.98	0.736
790.16	0.724
790.34	0.722
790.51	0.711
790.69	0.732
790.87	0.740
791.05	0.738
791.23	0.731
791.41	0.730
791.58	0.738
791.76	0.715
791.94	0.681
792.12	0.688
792.30	0.688
792.48	0.685
792.65	0.678
792.83	0.684
793.01	0.693
793.19	0.691
793.37	0.674
793.54	0.671
793.72	0.682
793.90	0.681
794.08	0.671
794.26	0.672
794.43	0.683
794.61	0.666
794.79	0.654
794.97	0.652
795.15	0.657
795.32	0.662
795.50	0.651
795.68	0.646
795.86	0.650
796.04	0.651
796.21	0.645
796.39	0.642
796.57	0.659
796.75	0.669
796.92	0.670
797.10	0.677
797.28	0.680
797.46	0.684
797.64	0.685
797.81	0.692
797.99	0.698
798.17	0.703
798.35	0.698
798.52	0.698
798.70	0.693
798.88	0.701
799.06	0.697
799.23	0.700
799.41	0.709
799.59	0.704
799.77	0.694
799.94	0.702
800.12	0.710
800.30	0.728
800.48	0.729
800.65	0.730
800.83	0.720
801.01	0.713
801.19	0.711
801.36	0.707
801.54	0.709
801.72	0.718
801.90	0.704
802.07	0.698
802.25	0.683
802.43	0.664
802.60	0.660
802.78	0.668
802.96	0.675
803.14	0.668
803.31	0.666
803.49	0.666
803.67	0.663
803.84	0.667
804.02	0.657
804.20	0.662
804.38	0.666
804.55	0.664
804.73	0.648
804.91	0.648
805.08	0.660
805.26	0.656
805.44	0.725
805.61	0.729
805.79	0.731
805.97	0.731
806.15	0.721
806.32	0.718
806.50	0.725
806.68	0.725
806.85	0.714
807.03	0.705
807.21	0.722
807.38	0.649
807.56	0.638
807.74	0.647
807.91	0.654
808.09	0.656
808.27	0.676
808.44	0.702
808.62	0.712
808.80	0.716
808.97	0.709
809.15	0.704
809.33	0.722
809.50	0.729
809.68	0.713
809.86	0.721
810.03	0.756
810.21	0.733
810.39	0.717
810.56	0.723
810.74	0.750
810.91	0.831
811.09	0.815
811.27	0.840
811.44	0.848
811.62	0.850
811.80	0.831
811.97	0.798
812.15	0.797
812.33	0.792
812.50	0.775
812.68	0.760
812.85	0.702
813.03	0.706
813.21	0.671
813.38	0.664
813.56	0.667
813.74	0.679
813.91	0.686
814.09	0.719
814.26	0.712
814.44	0.717
814.62	0.705
814.79	0.707
814.97	0.713
815.14	0.717
815.32	0.721
815.50	0.740
815.67	0.743
815.85	0.733
816.02	0.721
816.20	0.729
816.38	0.746
816.55	0.753
816.73	0.750
816.90	0.761
817.08	0.796
817.26	0.805
817.43	0.784
817.61	0.811
817.78	0.834
817.96	0.809
818.13	0.797
818.31	0.797
818.49	0.814
818.66	0.807
818.84	0.792
819.01	0.770
819.19	0.775
819.36	0.777
819.54	0.744
819.71	0.791
819.89	0.810
820.07	0.824
820.24	0.815
820.42	0.814
820.59	0.833
820.77	0.859
820.94	0.848
821.12	0.867
821.29	0.885
821.47	0.884
821.64	0.809
821.82	0.825
822.00	0.823
822.17	0.823
822.35	0.814
822.52	0.820
822.70	0.810
822.87	0.818
823.05	0.797
823.22	0.813
823.40	0.848
823.57	0.874
823.75	0.849
823.92	0.879
824.10	0.903
824.27	0.953
824.45	0.942
824.62	1.012
824.80	1.042
824.97	1.060
825.15	1.046
825.32	1.067
825.50	1.077
825.67	1.094
825.85	1.063
826.02	1.092
826.20	1.127
826.37	1.328
826.55	1.211
826.72	1.566
826.90	1.796
827.07	2.058
827.25	1.805
827.42	-0.000
827.60	-0.000
827.77	-0.000
827.95	-0.000
828.12	-0.000
828.30	-0.000
828.47	-0.000
828.65	1.914
828.82	2.356
829.00	-0.000
829.17	-0.000
829.34	-0.000
829.52	-0.000
829.69	-0.000
829.87	-0.000
830.04	-0.000
830.22	-0.000
830.39	-0.000
830.57	-0.000
830.74	-0.000
830.92	-0.000
831.09	-0.000
831.26	-0.000
831.44	-0.000
831.61	-0.000
831.79	-0.000
831.96	-0.000
832.14	-0.000
832.31	-0.000
832.49	-0.000
832.66	-0.000
832.83	-0.000
833.01	-0.000
833.18	-0.000
833.36	-0.000
833.53	-0.000
833.70	-0.000
833.88	-0.000
834.05	-0.000
834.23	-0.000
834.40	-0.000
834.58	-0.000
834.75	-0.000
834.92	-0.000
835.10	-0.000
835.27	-0.000
835.45	-0.000
835.62	-0.000
835.79	-0.000
835.97	-0.000
836.14	-0.000
836.32	-0.000
836.49	-0.000
836.66	-0.000
836.84	-0.000
837.01	-0.000
837.18	-0.000
837.36	-0.000
837.53	-0.000
837.71	-0.000
837.88	-0.000
838.05	-0.000
838.23	-0.000
838.40	-0.000
838.58	-0.000
838.75	-0.000
838.92	-0.000
839.10	-0.000
839.27	-0.000
839.44	-0.000
839.62	-0.000
839.79	-0.000
839.96	-0.000
840.14	-0.000
840.31	-0.000
840.48	-0.000
840.66	-0.000
840.83	-0.000
841.01	-0.000
841.18	-0.000
841.35	-0.000
841.53	-0.000
841.70	-0.000
841.87	-0.000
842.05	-0.000
842.22	-0.000
842.39	-0.000
842.57	-0.000
842.74	-0.000
842.91	-0.000
843.09	-0.000
843.26	-0.000
843.43	-0.000
843.60	-0.000
843.78	-0.000
843.95	-0.000
844.12	-0.000
844.30	-0.000
844.47	-0.000
844.64	-0.000
844.82	-0.000
844.99	-0.000
845.16	-0.000
845.34	-0.000
845.51	-0.000
845.68	-0.000
845.85	-0.000
846.03	-0.000
846.20	-0.000
846.37	-0.000
846.55	-0.000
846.72	-0.000
846.89	-0.000
847.06	-0.000
847.24	-0.000
847.41	-0.000
847.58	-0.000
847.76	-0.000
847.93	-0.000
848.10	-0.000
848.27	-0.000
848.45	-0.000
848.62	-0.000
848.79	-0.000
848.97	-0.000
849.14	-0.000
849.31	-0.000
849.48	-0.000
849.66	-0.000
849.83	-0.000
850.00	-0.000
850.17	-0.000
850.35	-0.000
850.52	-0.000
850.69	-0.000
850.86	-0.000
851.04	-0.000
851.21	-0.000
851.38	-0.000
851.55	-0.000
851.72	-0.000
851.90	-0.000
852.07	-0.000
852.24	-0.000
852.41	-0.000
852.59	-0.000
852.76	-0.000
852.93	-0.000
853.10	-0.000
853.28	-0.000
853.45	-0.000
853.62	-0.000
853.79	-0.000
853.96	-0.000
854.14	-0.000
854.31	-0.000
854.48	-0.000
854.65	-0.000
854.82	-0.000
855.00	-0.000
855.17	-0.000
855.34	-0.000
855.51	-0.000
855.68	-0.000
855.86	-0.000
856.03	-0.000
856.20	-0.000
856.37	-0.000
856.54	-0.000
856.72	-0.000
856.89	-0.000
857.06	-0.000
857.23	-0.000
857.40	-0.000
857.57	-0.000
857.75	-0.000
857.92	-0.000
858.09	-0.000
858.26	-0.000
858.43	-0.000
858.60	-0.000
858.78	-0.000
858.95	-0.000
859.12	-0.000
859.29	-0.000
859.46	-0.000
859.63	-0.000
859.81	-0.000
859.98	-0.000
860.15	-0.000
860.32	-0.000
860.49	-0.000
860.66	-0.000
860.83	-0.000
861.01	-0.000
861.18	-0.000
861.35	-0.000
861.52	-0.000
861.69	-0.000
861.86	-0.000
862.03	-0.000
862.21	-0.000
862.38	-0.000
862.55	-0.000
862.72	-0.000
862.89	-0.000
863.06	-0.000
863.23	-0.000
863.40	-0.000
863.58	-0.000
863.75	-0.000
863.92	-0.000
864.09	-0.000
864.26	-0.000
864.43	-0.000
864.60	-0.000
864.77	-0.000
864.94	-0.000
865.11	-0.000
865.29	-0.000
865.46	-0.000
865.63	-0.000
865.80	-0.000
865.97	-0.000
866.14	-0.000
866.31	-0.000
866.48	-0.000
866.65	-0.000
866.82	-0.000
866.99	-0.000
867.16	-0.000
867.34	-0.000
867.51	-0.000
867.68	-0.000
867.85	-0.000
868.02	-0.000
868.19	-0.000
868.36	-0.000
868.53	-0.000
868.70	-0.000
868.87	-0.000
869.04	-0.000
869.21	-0.000
869.38	-0.000
869.55	-0.000
869.72	-0.000
869.89	-0.000
870.06	-0.000
870.24	-0.000
870.41	-0.000
870.58	-0.000
870.75	-0.000
870.92	-0.000
871.09	-0.000
871.26	-0.000
871.43	-0.000
871.60	-0.000
871.77	-0.000
871.94	-0.000
872.11	-0.000
872.28	-0.000
872.45	-0.000
872.62	-0.000
872.79	-0.000
872.96	-0.000
873.13	-0.000
873.30	-0.000
873.47	-0.000
873.64	-0.000
873.81	-0.000
873.98	-0.000
874.15	-0.000
874.32	-0.000
874.49	-0.000
874.66	-0.000
874.83	-0.000
875.00	-0.000
875.17	-0.000
875.34	-0.000
875.51	-0.000
875.68	-0.000
875.85	-0.000
876.02	-0.000
876.19	-0.000
876.36	-0.000
876.53	-0.000
876.70	-0.000
876.87	-0.000
877.04	-0.000
877.21	-0.000
877.38	-0.000
877.55	-0.000
877.72	-0.000
877.89	-0.000
878.06	-0.000
878.23	-0.000
878.39	-0.000
878.56	-0.000
878.73	-0.000
878.90	-0.000
879.07	-0.000
879.24	-0.000
879.41	-0.000
879.58	-0.000
879.75	-0.000
879.92	-0.000
880.09	-0.000
880.26	-0.000
880.43	-0.000
880.60	-0.000
880.77	-0.000
880.94	-0.000
881.11	-0.000
881.27	-0.000
881.44	-0.000
881.61	-0.000
881.78	-0.000
881.95	-0.000
882.12	-0.000
882.29	-0.000
882.46	-0.000
882.63	-0.000
882.80	-0.000
882.97	-0.000
883.14	-0.000
883.30	-0.000
883.47	-0.000
883.64	-0.000
883.81	-0.000
883.98	-0.000
884.15	-0.000
884.32	-0.000
884.49	-0.000
884.66	-0.000
884.82	-0.000
884.99	-0.000
885.16	-0.000
885.33	-0.000
885.50	-0.000
885.67	-0.000
885.84	-0.000
886.01	-0.000
886.17	-0.000
886.34	-0.000
886.51	-0.000
886.68	-0.000
886.85	-0.000
887.02	-0.000
887.19	-0.000
887.36	-0.000
887.52	-0.000
887.69	-0.000
887.86	-0.000
888.03	-0.000
888.20	-0.000
888.37	-0.000
888.54	-0.000
888.70	-0.000
888.87	-0.000
889.04	-0.000
889.21	-0.000
889.38	-0.000
889.55	-0.000
889.71	-0.000
889.88	-0.000
890.05	-0.000
890.22	-0.000
890.39	-0.000
>>>>>End Processed Spectral Data<<<<<
