SpectraSuite Data File
++++++++++++++++++++++++++++++++++++
Date: Fri Jun 19 15:37:35 CEST 2015
User: introlabs
Dark Spectrum Present: Yes
Reference Spectrum Present: Yes
Number of Sampled Component Spectra: 1
Spectrometers: USB4H08886
Integration Time (usec): 745692 (USB4H08886)
Spectra Averaged: 5 (USB4H08886)
Boxcar Smoothing: 5 (USB4H08886)
Correct for Electrical Dark: Yes (USB4H08886)
Strobe/Lamp Enabled: No (USB4H08886)
Correct for Detector Non-linearity: Yes (USB4H08886)
Correct for Stray Light: Yes (USB4H08886)
Number of Pixels in Processed Spectrum: 3648
>>>>>Begin Processed Spectral Data<<<<<
178.14	-0.000
178.36	-0.000
178.57	-0.000
178.79	-0.000
179.01	-0.000
179.22	-0.000
179.44	-0.000
179.65	-0.000
179.87	-0.000
180.08	-0.000
180.30	-0.000
180.52	-0.000
180.73	-0.000
180.95	-0.000
181.16	-0.000
181.38	-0.000
181.59	-0.000
181.81	-0.000
182.03	-0.000
182.24	-0.000
182.46	-0.000
182.67	-0.000
182.89	-0.000
183.10	-0.000
183.32	-0.000
183.54	-0.000
183.75	-0.000
183.97	-0.000
184.18	-0.000
184.40	-0.000
184.61	-0.000
184.83	-0.000
185.04	-0.000
185.26	-0.000
185.48	-0.000
185.69	-0.000
185.91	-0.000
186.12	-0.000
186.34	-0.000
186.55	-0.000
186.77	-0.000
186.98	-0.000
187.20	-0.000
187.42	-0.000
187.63	-0.000
187.85	-0.000
188.06	-0.000
188.28	-0.000
188.49	-0.000
188.71	-0.000
188.92	-0.000
189.14	-0.000
189.36	-0.000
189.57	-0.000
189.79	-0.000
190.00	-0.000
190.22	-0.000
190.43	-0.000
190.65	-0.000
190.86	-0.000
191.08	-0.000
191.29	-0.000
191.51	-0.000
191.72	-0.000
191.94	-0.000
192.16	-0.000
192.37	-0.000
192.59	-0.000
192.80	-0.000
193.02	-0.000
193.23	-0.000
193.45	-0.000
193.66	-0.000
193.88	-0.000
194.09	-0.000
194.31	-0.000
194.52	-0.000
194.74	-0.000
194.95	-0.000
195.17	-0.000
195.38	-0.000
195.60	-0.000
195.81	-0.000
196.03	-0.000
196.25	-0.000
196.46	-0.000
196.68	-0.000
196.89	-0.000
197.11	-0.000
197.32	-0.000
197.54	-0.000
197.75	-0.000
197.97	-0.000
198.18	-0.000
198.40	-0.000
198.61	-0.000
198.83	-0.000
199.04	-0.000
199.26	-0.000
199.47	-0.000
199.69	-0.000
199.90	-0.000
200.12	-0.000
200.33	-0.000
200.55	-0.000
200.76	-0.000
200.98	-0.000
201.19	-0.000
201.41	-0.000
201.62	-0.000
201.84	-0.000
202.05	-0.000
202.27	-0.000
202.48	-0.000
202.70	-0.000
202.91	-0.000
203.13	-0.000
203.34	-0.000
203.56	-0.000
203.77	-0.000
203.99	-0.000
204.20	-0.000
204.42	-0.000
204.63	-0.000
204.85	-0.000
205.06	-0.000
205.28	-0.000
205.49	-0.000
205.71	-0.000
205.92	-0.000
206.14	-0.000
206.35	-0.000
206.56	-0.000
206.78	-0.000
206.99	-0.000
207.21	-0.000
207.42	-0.000
207.64	-0.000
207.85	-0.000
208.07	-0.000
208.28	-0.000
208.50	-0.000
208.71	-0.000
208.93	-0.000
209.14	-0.000
209.36	-0.000
209.57	-0.000
209.79	-0.000
210.00	-0.000
210.22	-0.000
210.43	-0.000
210.64	-0.000
210.86	-0.000
211.07	-0.000
211.29	-0.000
211.50	-0.000
211.72	-0.000
211.93	-0.000
212.15	-0.000
212.36	-0.000
212.58	-0.000
212.79	-0.000
213.01	-0.000
213.22	-0.000
213.43	-0.000
213.65	-0.000
213.86	-0.000
214.08	-0.000
214.29	-0.000
214.51	-0.000
214.72	-0.000
214.94	-0.000
215.15	-0.000
215.36	-0.000
215.58	-0.000
215.79	-0.000
216.01	-0.000
216.22	-0.000
216.44	-0.000
216.65	-0.000
216.87	-0.000
217.08	-0.000
217.29	-0.000
217.51	-0.000
217.72	-0.000
217.94	-0.000
218.15	-0.000
218.37	-0.000
218.58	-0.000
218.80	-0.000
219.01	-0.000
219.22	-0.000
219.44	-0.000
219.65	-0.000
219.87	-0.000
220.08	-0.000
220.30	-0.000
220.51	-0.000
220.72	-0.000
220.94	-0.000
221.15	-0.000
221.37	-0.000
221.58	-0.000
221.79	-0.000
222.01	-0.000
222.22	-0.000
222.44	-0.000
222.65	-0.000
222.87	-0.000
223.08	-0.000
223.29	-0.000
223.51	-0.000
223.72	-0.000
223.94	-0.000
224.15	-0.000
224.36	-0.000
224.58	-0.000
224.79	-0.000
225.01	-0.000
225.22	-0.000
225.44	-0.000
225.65	-0.000
225.86	-0.000
226.08	-0.000
226.29	-0.000
226.51	-0.000
226.72	-0.000
226.93	-0.000
227.15	-0.000
227.36	-0.000
227.58	-0.000
227.79	-0.000
228.00	-0.000
228.22	-0.000
228.43	-0.000
228.65	-0.000
228.86	-0.000
229.07	-0.000
229.29	-0.000
229.50	-0.000
229.72	-0.000
229.93	-0.000
230.14	-0.000
230.36	-0.000
230.57	-0.000
230.78	-0.000
231.00	-0.000
231.21	-0.000
231.43	-0.000
231.64	-0.000
231.85	-0.000
232.07	-0.000
232.28	-0.000
232.50	-0.000
232.71	-0.000
232.92	-0.000
233.14	-0.000
233.35	-0.000
233.56	-0.000
233.78	-0.000
233.99	-0.000
234.21	-0.000
234.42	-0.000
234.63	-0.000
234.85	-0.000
235.06	-0.000
235.27	-0.000
235.49	-0.000
235.70	-0.000
235.91	-0.000
236.13	-0.000
236.34	-0.000
236.56	-0.000
236.77	-0.000
236.98	-0.000
237.20	-0.000
237.41	-0.000
237.62	-0.000
237.84	-0.000
238.05	-0.000
238.26	-0.000
238.48	-0.000
238.69	-0.000
238.91	-0.000
239.12	-0.000
239.33	-0.000
239.55	-0.000
239.76	-0.000
239.97	-0.000
240.19	-0.000
240.40	-0.000
240.61	-0.000
240.83	-0.000
241.04	-0.000
241.25	-0.000
241.47	-0.000
241.68	-0.000
241.89	-0.000
242.11	-0.000
242.32	-0.000
242.53	-0.000
242.75	-0.000
242.96	-0.000
243.17	-0.000
243.39	-0.000
243.60	-0.000
243.81	-0.000
244.03	-0.000
244.24	-0.000
244.45	-0.000
244.67	-0.000
244.88	-0.000
245.09	-0.000
245.31	-0.000
245.52	-0.000
245.73	-0.000
245.95	-0.000
246.16	-0.000
246.37	-0.000
246.59	-0.000
246.80	-0.000
247.01	-0.000
247.23	-0.000
247.44	-0.000
247.65	-0.000
247.87	-0.000
248.08	-0.000
248.29	-0.000
248.51	-0.000
248.72	-0.000
248.93	-0.000
249.15	-0.000
249.36	-0.000
249.57	-0.000
249.78	-0.000
250.00	-0.000
250.21	-0.000
250.42	-0.000
250.64	-0.000
250.85	-0.000
251.06	-0.000
251.28	-0.000
251.49	-0.000
251.70	-0.000
251.92	-0.000
252.13	-0.000
252.34	-0.000
252.55	-0.000
252.77	-0.000
252.98	-0.000
253.19	-0.000
253.41	-0.000
253.62	-0.000
253.83	-0.000
254.05	-0.000
254.26	-0.000
254.47	-0.000
254.68	-0.000
254.90	-0.000
255.11	-0.000
255.32	-0.000
255.54	-0.000
255.75	-0.000
255.96	-0.000
256.17	-0.000
256.39	-0.000
256.60	-0.000
256.81	-0.000
257.03	-0.000
257.24	-0.000
257.45	-0.000
257.66	-0.000
257.88	-0.000
258.09	-0.000
258.30	-0.000
258.51	-0.000
258.73	-0.000
258.94	-0.000
259.15	-0.000
259.37	-0.000
259.58	-0.000
259.79	-0.000
260.00	-0.000
260.22	-0.000
260.43	-0.000
260.64	-0.000
260.85	-0.000
261.07	-0.000
261.28	-0.000
261.49	-0.000
261.71	-0.000
261.92	-0.000
262.13	-0.000
262.34	-0.000
262.56	-0.000
262.77	-0.000
262.98	-0.000
263.19	-0.000
263.41	-0.000
263.62	-0.000
263.83	-0.000
264.04	-0.000
264.26	-0.000
264.47	-0.000
264.68	-0.000
264.89	-0.000
265.11	-0.000
265.32	-0.000
265.53	-0.000
265.74	-0.000
265.96	-0.000
266.17	-0.000
266.38	-0.000
266.59	-0.000
266.81	-0.000
267.02	-0.000
267.23	-0.000
267.44	-0.000
267.65	-0.000
267.87	-0.000
268.08	-0.000
268.29	-0.000
268.50	-0.000
268.72	-0.000
268.93	-0.000
269.14	-0.000
269.35	-0.000
269.57	-0.000
269.78	-0.000
269.99	-0.000
270.20	-0.000
270.41	-0.000
270.63	-0.000
270.84	-0.000
271.05	-0.000
271.26	-0.000
271.48	-0.000
271.69	-0.000
271.90	-0.000
272.11	-0.000
272.32	-0.000
272.54	-0.000
272.75	-0.000
272.96	-0.000
273.17	-0.000
273.39	-0.000
273.60	-0.000
273.81	-0.000
274.02	-0.000
274.23	-0.000
274.45	-0.000
274.66	-0.000
274.87	-0.000
275.08	-0.000
275.29	-0.000
275.51	-0.000
275.72	-0.000
275.93	-0.000
276.14	-0.000
276.35	-0.000
276.57	-0.000
276.78	-0.000
276.99	-0.000
277.20	-0.000
277.41	-0.000
277.63	-0.000
277.84	-0.000
278.05	-0.000
278.26	-0.000
278.47	-0.000
278.69	-0.000
278.90	-0.000
279.11	-0.000
279.32	-0.000
279.53	-0.000
279.74	-0.000
279.96	-0.000
280.17	-0.000
280.38	-0.000
280.59	-0.000
280.80	-0.000
281.02	-0.000
281.23	-0.000
281.44	-0.000
281.65	-0.000
281.86	-0.000
282.07	-0.000
282.29	-0.000
282.50	-0.000
282.71	-0.000
282.92	-0.000
283.13	-0.000
283.35	-0.000
283.56	-0.000
283.77	-0.000
283.98	-0.000
284.19	-0.000
284.40	-0.000
284.62	-0.000
284.83	-0.000
285.04	-0.000
285.25	-0.000
285.46	-0.000
285.67	-0.000
285.88	-0.000
286.10	-0.000
286.31	-0.000
286.52	-0.000
286.73	-0.000
286.94	-0.000
287.15	-0.000
287.37	-0.000
287.58	-0.000
287.79	-0.000
288.00	-0.000
288.21	-0.000
288.42	-0.000
288.63	-0.000
288.85	-0.000
289.06	-0.000
289.27	-0.000
289.48	-0.000
289.69	-0.000
289.90	-0.000
290.11	-0.000
290.33	-0.000
290.54	-0.000
290.75	-0.000
290.96	-0.000
291.17	-0.000
291.38	-0.000
291.59	-0.000
291.81	-0.000
292.02	-0.000
292.23	-0.000
292.44	-0.000
292.65	-0.000
292.86	-0.000
293.07	-0.000
293.28	-0.000
293.50	-0.000
293.71	-0.000
293.92	-0.000
294.13	-0.000
294.34	-0.000
294.55	-0.000
294.76	-0.000
294.97	-0.000
295.19	-0.000
295.40	-0.000
295.61	-0.000
295.82	-0.000
296.03	-0.000
296.24	-0.000
296.45	2.021
296.66	1.730
296.87	1.770
297.09	1.843
297.30	2.024
297.51	1.706
297.72	1.667
297.93	1.738
298.14	1.699
298.35	1.667
298.56	1.649
298.77	1.760
298.99	1.731
299.20	1.698
299.41	1.666
299.62	1.612
299.83	1.594
300.04	1.551
300.25	1.544
300.46	1.575
300.67	1.551
300.88	1.509
301.10	1.509
301.31	1.568
301.52	1.515
301.73	1.465
301.94	1.472
302.15	1.491
302.36	1.450
302.57	1.399
302.78	1.401
302.99	1.434
303.20	1.452
303.41	1.371
303.63	1.355
303.84	1.361
304.05	1.363
304.26	1.309
304.47	1.310
304.68	1.306
304.89	1.297
305.10	1.267
305.31	1.256
305.52	1.295
305.73	1.290
305.94	1.255
306.15	1.243
306.37	1.261
306.58	1.270
306.79	1.245
307.00	1.271
307.21	1.307
307.42	1.298
307.63	1.266
307.84	1.234
308.05	1.265
308.26	1.263
308.47	1.246
308.68	1.242
308.89	1.237
309.10	1.236
309.31	1.196
309.52	1.187
309.73	1.198
309.95	1.196
310.16	1.169
310.37	1.158
310.58	1.175
310.79	1.173
311.00	1.171
311.21	1.174
311.42	1.173
311.63	1.172
311.84	1.156
312.05	1.154
312.26	1.172
312.47	1.184
312.68	1.163
312.89	1.146
313.10	1.152
313.31	1.124
313.52	1.127
313.73	1.127
313.94	1.128
314.15	1.111
314.36	1.093
314.57	1.087
314.78	1.076
314.99	1.072
315.21	1.063
315.42	1.068
315.63	1.081
315.84	1.060
316.05	1.050
316.26	1.058
316.47	1.073
316.68	1.069
316.89	1.050
317.10	1.067
317.31	1.071
317.52	1.071
317.73	1.052
317.94	1.049
318.15	1.088
318.36	1.087
318.57	1.071
318.78	1.062
318.99	1.095
319.20	1.095
319.41	1.065
319.62	1.067
319.83	1.080
320.04	1.073
320.25	1.064
320.46	1.032
320.67	1.034
320.88	1.030
321.09	1.017
321.30	1.001
321.51	1.015
321.72	1.014
321.93	0.999
322.14	0.991
322.35	1.019
322.56	1.019
322.77	1.007
322.98	1.019
323.19	1.024
323.40	1.030
323.61	1.012
323.82	1.006
324.03	1.010
324.24	1.009
324.45	0.997
324.66	0.978
324.87	0.974
325.08	0.975
325.29	0.956
325.50	0.950
325.71	0.953
325.92	0.962
326.13	0.950
326.34	0.951
326.55	0.956
326.76	0.956
326.97	0.946
327.18	0.940
327.39	0.964
327.60	0.966
327.80	0.967
328.01	0.966
328.22	0.964
328.43	0.966
328.64	0.956
328.85	0.960
329.06	0.961
329.27	0.961
329.48	0.958
329.69	0.939
329.90	0.948
330.11	0.942
330.32	0.936
330.53	0.929
330.74	0.928
330.95	0.927
331.16	0.913
331.37	0.921
331.58	0.919
331.79	0.919
332.00	0.912
332.21	0.905
332.42	0.908
332.63	0.900
332.83	0.898
333.04	0.901
333.25	0.912
333.46	0.911
333.67	0.898
333.88	0.902
334.09	0.911
334.30	0.908
334.51	0.900
334.72	0.895
334.93	0.897
335.14	0.895
335.35	0.890
335.56	0.885
335.77	0.892
335.98	0.890
336.18	0.884
336.39	0.877
336.60	0.880
336.81	0.879
337.02	0.879
337.23	0.884
337.44	0.885
337.65	0.886
337.86	0.877
338.07	0.873
338.28	0.878
338.49	0.876
338.70	0.869
338.91	0.876
339.11	0.882
339.32	0.879
339.53	0.868
339.74	0.866
339.95	0.862
340.16	0.860
340.37	0.853
340.58	0.850
340.79	0.854
341.00	0.854
341.21	0.844
341.41	0.844
341.62	0.844
341.83	0.845
342.04	0.840
342.25	0.851
342.46	0.854
342.67	0.853
342.88	0.847
343.09	0.846
343.30	0.853
343.50	0.856
343.71	0.846
343.92	0.845
344.13	0.849
344.34	0.849
344.55	0.834
344.76	0.833
344.97	0.836
345.18	0.835
345.38	0.833
345.59	0.827
345.80	0.824
346.01	0.824
346.22	0.820
346.43	0.814
346.64	0.821
346.85	0.820
347.06	0.814
347.26	0.815
347.47	0.817
347.68	0.813
347.89	0.810
348.10	0.805
348.31	0.810
348.52	0.810
348.73	0.808
348.93	0.806
349.14	0.807
349.35	0.808
349.56	0.802
349.77	0.799
349.98	0.804
350.19	0.801
350.39	0.796
350.60	0.794
350.81	0.808
351.02	0.808
351.23	0.803
351.44	0.805
351.65	0.806
351.86	0.804
352.06	0.802
352.27	0.801
352.48	0.802
352.69	0.801
352.90	0.796
353.11	0.782
353.31	0.788
353.52	0.784
353.73	0.777
353.94	0.779
354.15	0.785
354.36	0.785
354.57	0.778
354.77	0.780
354.98	0.780
355.19	0.778
355.40	0.778
355.61	0.783
355.82	0.788
356.02	0.788
356.23	0.781
356.44	0.782
356.65	0.784
356.86	0.784
357.07	0.780
357.27	0.782
357.48	0.785
357.69	0.781
357.90	0.766
358.11	0.763
358.32	0.765
358.52	0.768
358.73	0.759
358.94	0.761
359.15	0.765
359.36	0.765
359.56	0.761
359.77	0.759
359.98	0.765
360.19	0.765
360.40	0.761
360.61	0.763
360.81	0.761
361.02	0.761
361.23	0.753
361.44	0.752
361.65	0.753
361.85	0.753
362.06	0.751
362.27	0.754
362.48	0.754
362.69	0.757
362.89	0.751
363.10	0.753
363.31	0.757
363.52	0.761
363.73	0.756
363.93	0.756
364.14	0.757
364.35	0.758
364.56	0.749
364.77	0.750
364.97	0.752
365.18	0.752
365.39	0.747
365.60	0.745
365.81	0.744
366.01	0.744
366.22	0.741
366.43	0.741
366.64	0.742
366.84	0.747
367.05	0.744
367.26	0.744
367.47	0.745
367.68	0.745
367.88	0.742
368.09	0.740
368.30	0.742
368.51	0.741
368.71	0.740
368.92	0.744
369.13	0.742
369.34	0.741
369.55	0.740
369.75	0.741
369.96	0.747
370.17	0.747
370.38	0.745
370.58	0.744
370.79	0.749
371.00	0.747
371.21	0.739
371.41	0.745
371.62	0.748
371.83	0.744
372.04	0.742
372.24	0.735
372.45	0.735
372.66	0.736
372.87	0.733
373.07	0.730
373.28	0.730
373.49	0.734
373.70	0.725
373.90	0.724
374.11	0.732
374.32	0.732
374.53	0.731
374.73	0.732
374.94	0.734
375.15	0.734
375.36	0.732
375.56	0.740
375.77	0.740
375.98	0.741
376.19	0.738
376.39	0.732
376.60	0.735
376.81	0.736
377.02	0.733
377.22	0.733
377.43	0.732
377.64	0.732
377.84	0.724
378.05	0.728
378.26	0.733
378.47	0.733
378.67	0.730
378.88	0.726
379.09	0.727
379.30	0.727
379.50	0.725
379.71	0.728
379.92	0.731
380.12	0.730
380.33	0.723
380.54	0.719
380.75	0.726
380.95	0.727
381.16	0.726
381.37	0.726
381.57	0.727
381.78	0.728
381.99	0.727
382.20	0.726
382.40	0.728
382.61	0.728
382.82	0.725
383.02	0.719
383.23	0.721
383.44	0.721
383.64	0.719
383.85	0.722
384.06	0.725
384.27	0.723
384.47	0.721
384.68	0.722
384.89	0.728
385.09	0.727
385.30	0.727
385.51	0.726
385.71	0.730
385.92	0.730
386.13	0.729
386.33	0.731
386.54	0.732
386.75	0.731
386.95	0.728
387.16	0.723
387.37	0.726
387.58	0.725
387.78	0.724
387.99	0.721
388.20	0.723
388.40	0.720
388.61	0.716
388.82	0.720
389.02	0.722
389.23	0.722
389.44	0.721
389.64	0.721
389.85	0.732
390.06	0.732
390.26	0.732
390.47	0.732
390.68	0.734
390.88	0.733
391.09	0.729
391.30	0.728
391.50	0.728
391.71	0.728
391.92	0.725
392.12	0.718
392.33	0.719
392.53	0.720
392.74	0.720
392.95	0.720
393.15	0.722
393.36	0.724
393.57	0.722
393.77	0.725
393.98	0.727
394.19	0.727
394.39	0.726
394.60	0.728
394.81	0.729
395.01	0.727
395.22	0.726
395.43	0.727
395.63	0.731
395.84	0.732
396.04	0.729
396.25	0.731
396.46	0.733
396.66	0.731
396.87	0.729
397.08	0.726
397.28	0.729
397.49	0.730
397.69	0.726
397.90	0.721
398.11	0.723
398.31	0.723
398.52	0.719
398.73	0.721
398.93	0.720
399.14	0.719
399.34	0.718
399.55	0.719
399.76	0.719
399.96	0.720
400.17	0.719
400.37	0.718
400.58	0.725
400.79	0.727
400.99	0.724
401.20	0.730
401.41	0.732
401.61	0.733
401.82	0.738
402.02	0.738
402.23	0.740
402.44	0.739
402.64	0.738
402.85	0.732
403.05	0.731
403.26	0.730
403.47	0.725
403.67	0.724
403.88	0.724
404.08	0.718
404.29	0.717
404.50	0.716
404.70	0.717
404.91	0.716
405.11	0.714
405.32	0.714
405.52	0.715
405.73	0.715
405.94	0.713
406.14	0.715
406.35	0.718
406.55	0.717
406.76	0.715
406.97	0.716
407.17	0.718
407.38	0.718
407.58	0.717
407.79	0.719
407.99	0.722
408.20	0.723
408.41	0.719
408.61	0.717
408.82	0.718
409.02	0.717
409.23	0.715
409.43	0.714
409.64	0.715
409.84	0.715
410.05	0.712
410.26	0.710
410.46	0.709
410.67	0.709
410.87	0.710
411.08	0.712
411.28	0.713
411.49	0.715
411.69	0.713
411.90	0.714
412.11	0.715
412.31	0.716
412.52	0.715
412.72	0.716
412.93	0.717
413.13	0.715
413.34	0.712
413.54	0.714
413.75	0.715
413.95	0.714
414.16	0.712
414.37	0.715
414.57	0.715
414.78	0.717
414.98	0.715
415.19	0.716
415.39	0.714
415.60	0.716
415.80	0.716
416.01	0.714
416.21	0.716
416.42	0.716
416.62	0.711
416.83	0.711
417.03	0.711
417.24	0.711
417.44	0.709
417.65	0.708
417.86	0.708
418.06	0.706
418.27	0.704
418.47	0.706
418.68	0.706
418.88	0.706
419.09	0.704
419.29	0.705
419.50	0.705
419.70	0.705
419.91	0.703
420.11	0.701
420.32	0.703
420.52	0.703
420.73	0.702
420.93	0.703
421.14	0.705
421.34	0.704
421.55	0.701
421.75	0.701
421.96	0.702
422.16	0.702
422.37	0.701
422.57	0.698
422.78	0.699
422.98	0.696
423.19	0.694
423.39	0.692
423.60	0.695
423.80	0.696
424.01	0.695
424.21	0.697
424.42	0.698
424.62	0.698
424.83	0.697
425.03	0.698
425.23	0.699
425.44	0.700
425.64	0.700
425.85	0.699
426.05	0.699
426.26	0.700
426.46	0.696
426.67	0.695
426.87	0.700
427.08	0.701
427.28	0.699
427.49	0.700
427.69	0.700
427.90	0.699
428.10	0.696
428.31	0.697
428.51	0.699
428.71	0.698
428.92	0.699
429.12	0.696
429.33	0.696
429.53	0.700
429.74	0.704
429.94	0.704
430.15	0.703
430.35	0.703
430.56	0.700
430.76	0.698
430.96	0.699
431.17	0.697
431.37	0.694
431.58	0.692
431.78	0.689
431.99	0.682
432.19	0.684
432.40	0.687
432.60	0.687
432.80	0.689
433.01	0.687
433.21	0.687
433.42	0.689
433.62	0.689
433.83	0.689
434.03	0.692
434.23	0.694
434.44	0.693
434.64	0.690
434.85	0.695
435.05	0.696
435.26	0.696
435.46	0.695
435.66	0.695
435.87	0.695
436.07	0.694
436.28	0.690
436.48	0.687
436.69	0.687
436.89	0.687
437.09	0.681
437.30	0.680
437.50	0.680
437.71	0.691
437.91	0.689
438.11	0.690
438.32	0.694
438.52	0.694
438.73	0.694
438.93	0.692
439.13	0.691
439.34	0.695
439.54	0.692
439.75	0.692
439.95	0.683
440.15	0.687
440.36	0.686
440.56	0.683
440.77	0.683
440.97	0.683
441.17	0.682
441.38	0.683
441.58	0.680
441.79	0.680
441.99	0.679
442.19	0.678
442.40	0.674
442.60	0.675
442.81	0.673
443.01	0.673
443.21	0.674
443.42	0.674
443.62	0.673
443.82	0.672
444.03	0.673
444.23	0.673
444.44	0.674
444.64	0.673
444.84	0.674
445.05	0.674
445.25	0.672
445.45	0.671
445.66	0.673
445.86	0.672
446.06	0.674
446.27	0.673
446.47	0.676
446.68	0.674
446.88	0.673
447.08	0.673
447.29	0.675
447.49	0.675
447.69	0.675
447.90	0.673
448.10	0.676
448.30	0.673
448.51	0.674
448.71	0.672
448.91	0.674
449.12	0.673
449.32	0.675
449.52	0.673
449.73	0.677
449.93	0.676
450.14	0.677
450.34	0.676
450.54	0.678
450.75	0.675
450.95	0.674
451.15	0.673
451.36	0.676
451.56	0.672
451.76	0.671
451.97	0.668
452.17	0.669
452.37	0.667
452.58	0.664
452.78	0.664
452.98	0.666
453.19	0.666
453.39	0.666
453.59	0.665
453.79	0.665
454.00	0.666
454.20	0.665
454.40	0.664
454.61	0.666
454.81	0.667
455.01	0.666
455.22	0.666
455.42	0.668
455.62	0.666
455.83	0.667
456.03	0.670
456.23	0.670
456.44	0.671
456.64	0.670
456.84	0.670
457.04	0.671
457.25	0.670
457.45	0.667
457.65	0.665
457.86	0.665
458.06	0.664
458.26	0.661
458.47	0.660
458.67	0.661
458.87	0.660
459.07	0.658
459.28	0.661
459.48	0.662
459.68	0.663
459.89	0.662
460.09	0.661
460.29	0.662
460.49	0.663
460.70	0.662
460.90	0.662
461.10	0.663
461.31	0.662
461.51	0.659
461.71	0.660
461.91	0.662
462.12	0.662
462.32	0.660
462.52	0.661
462.72	0.664
462.93	0.664
463.13	0.663
463.33	0.664
463.53	0.665
463.74	0.664
463.94	0.661
464.14	0.661
464.35	0.662
464.55	0.662
464.75	0.660
464.95	0.658
465.16	0.659
465.36	0.658
465.56	0.657
465.76	0.656
465.97	0.656
466.17	0.656
466.37	0.654
466.57	0.655
466.78	0.656
466.98	0.656
467.18	0.654
467.38	0.652
467.59	0.653
467.79	0.654
467.99	0.654
468.19	0.655
468.39	0.658
468.60	0.658
468.80	0.656
469.00	0.658
469.20	0.659
469.41	0.659
469.61	0.659
469.81	0.660
470.01	0.660
470.22	0.660
470.42	0.658
470.62	0.656
470.82	0.658
471.02	0.657
471.23	0.654
471.43	0.655
471.63	0.658
471.83	0.657
472.04	0.655
472.24	0.654
472.44	0.659
472.64	0.660
472.84	0.658
473.05	0.657
473.25	0.660
473.45	0.659
473.65	0.658
473.85	0.658
474.06	0.660
474.26	0.659
474.46	0.661
474.66	0.658
474.86	0.658
475.07	0.658
475.27	0.657
475.47	0.654
475.67	0.654
475.87	0.656
476.08	0.653
476.28	0.654
476.48	0.655
476.68	0.654
476.88	0.651
477.09	0.652
477.29	0.654
477.49	0.654
477.69	0.653
477.89	0.654
478.09	0.653
478.30	0.655
478.50	0.652
478.70	0.651
478.90	0.651
479.10	0.654
479.31	0.655
479.51	0.654
479.71	0.654
479.91	0.654
480.11	0.653
480.31	0.653
480.52	0.652
480.72	0.652
480.92	0.652
481.12	0.650
481.32	0.647
481.52	0.645
481.72	0.646
481.93	0.649
482.13	0.650
482.33	0.649
482.53	0.648
482.73	0.648
482.93	0.649
483.14	0.649
483.34	0.649
483.54	0.650
483.74	0.649
483.94	0.648
484.14	0.644
484.34	0.644
484.55	0.644
484.75	0.644
484.95	0.642
485.15	0.641
485.35	0.641
485.55	0.640
485.75	0.638
485.96	0.639
486.16	0.640
486.36	0.639
486.56	0.637
486.76	0.638
486.96	0.638
487.16	0.637
487.36	0.636
487.57	0.635
487.77	0.636
487.97	0.637
488.17	0.635
488.37	0.634
488.57	0.634
488.77	0.635
488.97	0.633
489.18	0.633
489.38	0.636
489.58	0.636
489.78	0.636
489.98	0.635
490.18	0.635
490.38	0.635
490.58	0.634
490.78	0.635
490.98	0.636
491.19	0.637
491.39	0.636
491.59	0.635
491.79	0.638
491.99	0.638
492.19	0.638
492.39	0.641
492.59	0.641
492.79	0.644
492.99	0.644
493.20	0.645
493.40	0.645
493.60	0.646
493.80	0.645
494.00	0.642
494.20	0.643
494.40	0.642
494.60	0.639
494.80	0.643
495.00	0.642
495.20	0.640
495.40	0.639
495.61	0.640
495.81	0.639
496.01	0.643
496.21	0.643
496.41	0.643
496.61	0.644
496.81	0.642
497.01	0.638
497.21	0.637
497.41	0.638
497.61	0.637
497.81	0.635
498.01	0.636
498.21	0.634
498.41	0.632
498.61	0.632
498.82	0.633
499.02	0.635
499.22	0.636
499.42	0.635
499.62	0.636
499.82	0.636
500.02	0.637
500.22	0.636
500.42	0.638
500.62	0.638
500.82	0.639
501.02	0.637
501.22	0.637
501.42	0.637
501.62	0.639
501.82	0.639
502.02	0.639
502.22	0.638
502.42	0.640
502.62	0.638
502.82	0.638
503.02	0.638
503.22	0.638
503.42	0.636
503.63	0.636
503.83	0.634
504.03	0.633
504.23	0.632
504.43	0.632
504.63	0.633
504.83	0.633
505.03	0.632
505.23	0.634
505.43	0.636
505.63	0.637
505.83	0.637
506.03	0.638
506.23	0.640
506.43	0.641
506.63	0.640
506.83	0.638
507.03	0.640
507.23	0.640
507.43	0.638
507.63	0.638
507.83	0.637
508.03	0.638
508.23	0.637
508.43	0.635
508.63	0.637
508.83	0.637
509.03	0.639
509.23	0.638
509.43	0.639
509.63	0.639
509.83	0.638
510.03	0.640
510.23	0.642
510.43	0.642
510.63	0.643
510.83	0.643
511.03	0.644
511.23	0.642
511.43	0.641
511.63	0.642
511.83	0.644
512.03	0.644
512.22	0.642
512.42	0.641
512.62	0.642
512.82	0.641
513.02	0.641
513.22	0.641
513.42	0.642
513.62	0.645
513.82	0.644
514.02	0.644
514.22	0.645
514.42	0.645
514.62	0.645
514.82	0.645
515.02	0.647
515.22	0.650
515.42	0.649
515.62	0.651
515.82	0.650
516.02	0.651
516.22	0.651
516.42	0.652
516.62	0.654
516.82	0.655
517.01	0.653
517.21	0.652
517.41	0.656
517.61	0.656
517.81	0.652
518.01	0.652
518.21	0.651
518.41	0.650
518.61	0.649
518.81	0.649
519.01	0.650
519.21	0.650
519.41	0.650
519.61	0.645
519.81	0.647
520.00	0.647
520.20	0.648
520.40	0.651
520.60	0.651
520.80	0.650
521.00	0.651
521.20	0.651
521.40	0.655
521.60	0.656
521.80	0.655
522.00	0.655
522.20	0.658
522.39	0.657
522.59	0.655
522.79	0.656
522.99	0.658
523.19	0.656
523.39	0.654
523.59	0.652
523.79	0.655
523.99	0.657
524.19	0.656
524.38	0.655
524.58	0.656
524.78	0.657
524.98	0.655
525.18	0.658
525.38	0.659
525.58	0.660
525.78	0.657
525.98	0.656
526.18	0.655
526.37	0.655
526.57	0.656
526.77	0.656
526.97	0.656
527.17	0.656
527.37	0.652
527.57	0.655
527.77	0.655
527.96	0.656
528.16	0.654
528.36	0.655
528.56	0.656
528.76	0.654
528.96	0.653
529.16	0.654
529.36	0.657
529.55	0.657
529.75	0.654
529.95	0.655
530.15	0.656
530.35	0.660
530.55	0.658
530.75	0.658
530.94	0.660
531.14	0.661
531.34	0.659
531.54	0.658
531.74	0.661
531.94	0.664
532.13	0.662
532.33	0.664
532.53	0.661
532.73	0.661
532.93	0.660
533.13	0.661
533.33	0.661
533.52	0.661
533.72	0.664
533.92	0.662
534.12	0.660
534.32	0.661
534.52	0.659
534.71	0.661
534.91	0.664
535.11	0.666
535.31	0.664
535.51	0.665
535.71	0.667
535.90	0.665
536.10	0.666
536.30	0.668
536.50	0.668
536.70	0.668
536.89	0.666
537.09	0.665
537.29	0.666
537.49	0.666
537.69	0.665
537.89	0.665
538.08	0.666
538.28	0.664
538.48	0.665
538.68	0.666
538.88	0.668
539.07	0.668
539.27	0.667
539.47	0.666
539.67	0.667
539.87	0.668
540.06	0.666
540.26	0.666
540.46	0.668
540.66	0.664
540.86	0.662
541.05	0.662
541.25	0.663
541.45	0.664
541.65	0.662
541.84	0.664
542.04	0.665
542.24	0.666
542.44	0.665
542.64	0.666
542.83	0.669
543.03	0.669
543.23	0.667
543.43	0.668
543.62	0.669
543.82	0.668
544.02	0.667
544.22	0.667
544.42	0.670
544.61	0.671
544.81	0.668
545.01	0.667
545.21	0.669
545.40	0.669
545.60	0.667
545.80	0.671
546.00	0.671
546.19	0.670
546.39	0.670
546.59	0.667
546.79	0.668
546.98	0.668
547.18	0.668
547.38	0.668
547.58	0.671
547.77	0.671
547.97	0.667
548.17	0.669
548.37	0.669
548.56	0.669
548.76	0.669
548.96	0.670
549.16	0.672
549.35	0.672
549.55	0.670
549.75	0.670
549.95	0.673
550.14	0.674
550.34	0.672
550.54	0.677
550.73	0.681
550.93	0.681
551.13	0.679
551.33	0.677
551.52	0.677
551.72	0.678
551.92	0.677
552.12	0.678
552.31	0.678
552.51	0.679
552.71	0.674
552.90	0.674
553.10	0.675
553.30	0.675
553.50	0.674
553.69	0.676
553.89	0.676
554.09	0.676
554.28	0.673
554.48	0.674
554.68	0.676
554.87	0.676
555.07	0.673
555.27	0.673
555.47	0.675
555.66	0.675
555.86	0.674
556.06	0.676
556.25	0.677
556.45	0.685
556.65	0.683
556.84	0.686
557.04	0.689
557.24	0.691
557.43	0.691
557.63	0.694
557.83	0.696
558.02	0.696
558.22	0.700
558.42	0.701
558.61	0.694
558.81	0.695
559.01	0.690
559.21	0.690
559.40	0.690
559.60	0.690
559.80	0.687
559.99	0.688
560.19	0.691
560.39	0.685
560.58	0.683
560.78	0.683
560.97	0.686
561.17	0.685
561.37	0.683
561.56	0.684
561.76	0.685
561.96	0.684
562.15	0.681
562.35	0.683
562.55	0.683
562.74	0.683
562.94	0.682
563.14	0.680
563.33	0.681
563.53	0.681
563.73	0.679
563.92	0.680
564.12	0.683
564.31	0.685
564.51	0.683
564.71	0.685
564.90	0.687
565.10	0.688
565.30	0.691
565.49	0.692
565.69	0.694
565.89	0.694
566.08	0.691
566.28	0.693
566.47	0.695
566.67	0.694
566.87	0.692
567.06	0.694
567.26	0.700
567.46	0.696
567.65	0.696
567.85	0.697
568.04	0.700
568.24	0.700
568.44	0.697
568.63	0.696
568.83	0.696
569.02	0.695
569.22	0.690
569.42	0.686
569.61	0.688
569.81	0.687
570.00	0.685
570.20	0.686
570.40	0.687
570.59	0.687
570.79	0.685
570.98	0.683
571.18	0.685
571.38	0.685
571.57	0.682
571.77	0.680
571.96	0.684
572.16	0.681
572.35	0.676
572.55	0.677
572.75	0.675
572.94	0.675
573.14	0.673
573.33	0.673
573.53	0.673
573.73	0.672
573.92	0.670
574.12	0.668
574.31	0.671
574.51	0.672
574.70	0.669
574.90	0.671
575.09	0.673
575.29	0.673
575.49	0.670
575.68	0.671
575.88	0.672
576.07	0.674
576.27	0.672
576.46	0.670
576.66	0.669
576.86	0.668
577.05	0.667
577.25	0.665
577.44	0.666
577.64	0.666
577.83	0.664
578.03	0.665
578.22	0.665
578.42	0.664
578.61	0.662
578.81	0.663
579.00	0.663
579.20	0.662
579.40	0.661
579.59	0.659
579.79	0.660
579.98	0.659
580.18	0.658
580.37	0.659
580.57	0.660
580.76	0.665
580.96	0.663
581.15	0.664
581.35	0.666
581.54	0.666
581.74	0.666
581.93	0.668
582.13	0.668
582.32	0.666
582.52	0.664
582.71	0.663
582.91	0.659
583.10	0.658
583.30	0.657
583.49	0.656
583.69	0.660
583.88	0.660
584.08	0.659
584.27	0.662
584.47	0.665
584.66	0.666
584.86	0.666
585.05	0.668
585.25	0.670
585.44	0.671
585.64	0.669
585.83	0.666
586.03	0.667
586.22	0.665
586.42	0.661
586.61	0.663
586.81	0.664
587.00	0.664
587.20	0.661
587.39	0.662
587.59	0.664
587.78	0.665
587.98	0.665
588.17	0.666
588.37	0.668
588.56	0.670
588.76	0.666
588.95	0.666
589.15	0.670
589.34	0.673
589.54	0.671
589.73	0.672
589.92	0.676
590.12	0.676
590.31	0.674
590.51	0.680
590.70	0.681
590.90	0.681
591.09	0.680
591.29	0.678
591.48	0.678
591.68	0.679
591.87	0.677
592.06	0.676
592.26	0.679
592.45	0.678
592.65	0.672
592.84	0.671
593.04	0.674
593.23	0.676
593.43	0.674
593.62	0.673
593.81	0.673
594.01	0.672
594.20	0.670
594.40	0.668
594.59	0.669
594.79	0.670
594.98	0.669
595.17	0.668
595.37	0.669
595.56	0.671
595.76	0.672
595.95	0.673
596.14	0.675
596.34	0.677
596.53	0.676
596.73	0.678
596.92	0.680
597.12	0.683
597.31	0.683
597.50	0.682
597.70	0.683
597.89	0.682
598.09	0.679
598.28	0.681
598.47	0.683
598.67	0.682
598.86	0.678
599.06	0.679
599.25	0.679
599.44	0.676
599.64	0.674
599.83	0.671
600.03	0.675
600.22	0.674
600.41	0.674
600.61	0.672
600.80	0.674
601.00	0.674
601.19	0.670
601.38	0.669
601.58	0.672
601.77	0.673
601.96	0.675
602.16	0.675
602.35	0.684
602.55	0.682
602.74	0.683
602.93	0.685
603.13	0.690
603.32	0.692
603.51	0.693
603.71	0.697
603.90	0.698
604.09	0.699
604.29	0.696
604.48	0.691
604.68	0.692
604.87	0.690
605.06	0.686
605.26	0.683
605.45	0.683
605.64	0.682
605.84	0.677
606.03	0.676
606.22	0.675
606.42	0.674
606.61	0.671
606.80	0.671
607.00	0.672
607.19	0.672
607.38	0.671
607.58	0.672
607.77	0.673
607.96	0.674
608.16	0.672
608.35	0.676
608.54	0.679
608.74	0.681
608.93	0.686
609.12	0.690
609.32	0.692
609.51	0.695
609.70	0.694
609.90	0.697
610.09	0.701
610.28	0.705
610.48	0.700
610.67	0.701
610.86	0.702
611.06	0.696
611.25	0.694
611.44	0.695
611.64	0.695
611.83	0.698
612.02	0.695
612.21	0.693
612.41	0.692
612.60	0.692
612.79	0.688
612.99	0.689
613.18	0.691
613.37	0.688
613.57	0.685
613.76	0.687
613.95	0.684
614.14	0.683
614.34	0.681
614.53	0.681
614.72	0.683
614.92	0.684
615.11	0.681
615.30	0.677
615.49	0.678
615.69	0.680
615.88	0.676
616.07	0.678
616.26	0.680
616.46	0.681
616.65	0.678
616.84	0.676
617.04	0.677
617.23	0.681
617.42	0.682
617.61	0.686
617.81	0.687
618.00	0.689
618.19	0.688
618.38	0.692
618.58	0.695
618.77	0.697
618.96	0.697
619.15	0.700
619.35	0.701
619.54	0.700
619.73	0.697
619.92	0.698
620.12	0.703
620.31	0.704
620.50	0.699
620.69	0.698
620.89	0.701
621.08	0.701
621.27	0.701
621.46	0.700
621.66	0.704
621.85	0.703
622.04	0.700
622.23	0.700
622.43	0.700
622.62	0.700
622.81	0.700
623.00	0.699
623.19	0.702
623.39	0.701
623.58	0.698
623.77	0.696
623.96	0.700
624.16	0.699
624.35	0.695
624.54	0.697
624.73	0.701
624.92	0.698
625.12	0.696
625.31	0.697
625.50	0.700
625.69	0.700
625.88	0.698
626.08	0.696
626.27	0.698
626.46	0.699
626.65	0.696
626.84	0.696
627.04	0.701
627.23	0.702
627.42	0.698
627.61	0.699
627.80	0.702
628.00	0.702
628.19	0.700
628.38	0.703
628.57	0.705
628.76	0.705
628.96	0.702
629.15	0.702
629.34	0.704
629.53	0.705
629.72	0.699
629.91	0.700
630.11	0.705
630.30	0.705
630.49	0.708
630.68	0.708
630.87	0.710
631.06	0.712
631.26	0.708
631.45	0.709
631.64	0.716
631.83	0.718
632.02	0.716
632.21	0.714
632.41	0.720
632.60	0.715
632.79	0.713
632.98	0.715
633.17	0.715
633.36	0.717
633.55	0.713
633.75	0.709
633.94	0.710
634.13	0.710
634.32	0.708
634.51	0.703
634.70	0.705
634.89	0.705
635.09	0.701
635.28	0.701
635.47	0.701
635.66	0.705
635.85	0.701
636.04	0.703
636.23	0.707
636.43	0.708
636.62	0.707
636.81	0.705
637.00	0.707
637.19	0.710
637.38	0.707
637.57	0.708
637.76	0.709
637.95	0.710
638.15	0.707
638.34	0.704
638.53	0.706
638.72	0.708
638.91	0.705
639.10	0.704
639.29	0.704
639.48	0.706
639.67	0.706
639.87	0.704
640.06	0.710
640.25	0.709
640.44	0.711
640.63	0.712
640.82	0.714
641.01	0.715
641.20	0.715
641.39	0.716
641.58	0.717
641.78	0.715
641.97	0.712
642.16	0.724
642.35	0.725
642.54	0.723
642.73	0.718
642.92	0.717
643.11	0.720
643.30	0.719
643.49	0.715
643.68	0.718
643.87	0.719
644.06	0.720
644.25	0.701
644.45	0.703
644.64	0.704
644.83	0.705
645.02	0.702
645.21	0.702
645.40	0.703
645.59	0.703
645.78	0.698
645.97	0.700
646.16	0.701
646.35	0.702
646.54	0.699
646.73	0.701
646.92	0.703
647.11	0.701
647.30	0.697
647.49	0.698
647.68	0.698
647.88	0.696
648.07	0.689
648.26	0.694
648.45	0.695
648.64	0.692
648.83	0.689
649.02	0.691
649.21	0.701
649.40	0.700
649.59	0.696
649.78	0.697
649.97	0.710
650.16	0.710
650.35	0.704
650.54	0.707
650.73	0.714
650.92	0.711
651.11	0.704
651.30	0.702
651.49	0.706
651.68	0.707
651.87	0.704
652.06	0.694
652.25	0.697
652.44	0.701
652.63	0.701
652.82	0.703
653.01	0.704
653.20	0.703
653.39	0.692
653.58	0.690
653.77	0.689
653.96	0.684
654.15	0.676
654.34	0.675
654.53	0.669
654.72	0.662
654.91	0.651
655.10	0.647
655.29	0.644
655.48	0.642
655.67	0.637
655.86	0.634
656.05	0.632
656.24	0.632
656.43	0.627
656.62	0.626
656.81	0.625
657.00	0.622
657.19	0.619
657.38	0.618
657.57	0.616
657.76	0.618
657.95	0.615
658.14	0.617
658.33	0.619
658.51	0.624
658.70	0.623
658.89	0.625
659.08	0.635
659.27	0.643
659.46	0.644
659.65	0.650
659.84	0.654
660.03	0.658
660.22	0.660
660.41	0.665
660.60	0.664
660.79	0.666
660.98	0.671
661.17	0.671
661.36	0.669
661.55	0.671
661.74	0.670
661.92	0.673
662.11	0.675
662.30	0.673
662.49	0.666
662.68	0.665
662.87	0.668
663.06	0.663
663.25	0.664
663.44	0.664
663.63	0.665
663.82	0.663
664.01	0.657
664.20	0.656
664.38	0.658
664.57	0.659
664.76	0.658
664.95	0.658
665.14	0.662
665.33	0.658
665.52	0.665
665.71	0.669
665.90	0.668
666.09	0.670
666.28	0.668
666.46	0.666
666.65	0.667
666.84	0.665
667.03	0.660
667.22	0.658
667.41	0.662
667.60	0.652
667.79	0.645
667.98	0.646
668.16	0.647
668.35	0.646
668.54	0.643
668.73	0.644
668.92	0.644
669.11	0.644
669.30	0.638
669.49	0.634
669.67	0.636
669.86	0.638
670.05	0.635
670.24	0.633
670.43	0.631
670.62	0.630
670.81	0.625
671.00	0.626
671.18	0.626
671.37	0.625
671.56	0.623
671.75	0.622
671.94	0.619
672.13	0.617
672.32	0.613
672.50	0.612
672.69	0.612
672.88	0.613
673.07	0.609
673.26	0.610
673.45	0.610
673.63	0.610
673.82	0.607
674.01	0.609
674.20	0.608
674.39	0.608
674.58	0.607
674.76	0.607
674.95	0.606
675.14	0.606
675.33	0.603
675.52	0.601
675.71	0.601
675.89	0.601
676.08	0.597
676.27	0.597
676.46	0.598
676.65	0.597
676.84	0.597
677.02	0.598
677.21	0.599
677.40	0.598
677.59	0.597
677.78	0.597
677.96	0.599
678.15	0.598
678.34	0.596
678.53	0.597
678.72	0.597
678.90	0.593
679.09	0.590
679.28	0.587
679.47	0.586
679.66	0.586
679.84	0.582
680.03	0.580
680.22	0.578
680.41	0.580
680.60	0.577
680.78	0.576
680.97	0.578
681.16	0.578
681.35	0.578
681.53	0.577
681.72	0.578
681.91	0.581
682.10	0.579
682.29	0.582
682.47	0.579
682.66	0.578
682.85	0.577
683.04	0.575
683.22	0.574
683.41	0.575
683.60	0.574
683.79	0.575
683.97	0.574
684.16	0.573
684.35	0.569
684.54	0.571
684.72	0.572
684.91	0.572
685.10	0.571
685.29	0.572
685.47	0.569
685.66	0.568
685.85	0.565
686.04	0.564
686.22	0.566
686.41	0.569
686.60	0.566
686.79	0.569
686.97	0.570
687.16	0.571
687.35	0.569
687.54	0.573
687.72	0.576
687.91	0.576
688.10	0.578
688.29	0.577
688.47	0.575
688.66	0.575
688.85	0.572
689.03	0.569
689.22	0.573
689.41	0.574
689.60	0.569
689.78	0.567
689.97	0.567
690.16	0.564
690.34	0.561
690.53	0.560
690.72	0.561
690.91	0.559
691.09	0.557
691.28	0.551
691.47	0.549
691.65	0.548
691.84	0.545
692.03	0.544
692.21	0.542
692.40	0.541
692.59	0.539
692.77	0.538
692.96	0.539
693.15	0.539
693.34	0.537
693.52	0.537
693.71	0.537
693.90	0.538
694.08	0.539
694.27	0.540
694.46	0.549
694.64	0.550
694.83	0.549
695.02	0.548
695.20	0.548
695.39	0.548
695.58	0.548
695.76	0.549
695.95	0.548
696.14	0.547
696.32	0.545
696.51	0.536
696.70	0.536
696.88	0.537
697.07	0.536
697.26	0.537
697.44	0.539
697.63	0.537
697.81	0.535
698.00	0.534
698.19	0.533
698.37	0.533
698.56	0.533
698.75	0.532
698.93	0.532
699.12	0.532
699.31	0.531
699.49	0.530
699.68	0.531
699.87	0.534
700.05	0.534
700.24	0.534
700.42	0.535
700.61	0.535
700.80	0.533
700.98	0.534
701.17	0.534
701.36	0.533
701.54	0.533
701.73	0.534
701.91	0.532
702.10	0.531
702.29	0.530
702.47	0.529
702.66	0.531
702.84	0.532
703.03	0.530
703.22	0.532
703.40	0.531
703.59	0.532
703.77	0.531
703.96	0.532
704.15	0.532
704.33	0.532
704.52	0.531
704.70	0.530
704.89	0.530
705.08	0.529
705.26	0.525
705.45	0.525
705.63	0.525
705.82	0.521
706.00	0.520
706.19	0.519
706.38	0.519
706.56	0.519
706.75	0.517
706.93	0.516
707.12	0.517
707.30	0.517
707.49	0.515
707.68	0.513
707.86	0.513
708.05	0.513
708.23	0.511
708.42	0.511
708.60	0.512
708.79	0.512
708.98	0.512
709.16	0.510
709.35	0.513
709.53	0.517
709.72	0.516
709.90	0.517
710.09	0.518
710.27	0.520
710.46	0.524
710.64	0.523
710.83	0.525
711.02	0.525
711.20	0.525
711.39	0.524
711.57	0.521
711.76	0.521
711.94	0.520
712.13	0.521
712.31	0.521
712.50	0.517
712.68	0.515
712.87	0.516
713.05	0.516
713.24	0.516
713.42	0.516
713.61	0.516
713.79	0.516
713.98	0.516
714.16	0.516
714.35	0.516
714.54	0.517
714.72	0.517
714.91	0.515
715.09	0.521
715.28	0.524
715.46	0.524
715.65	0.523
715.83	0.522
716.02	0.524
716.20	0.521
716.39	0.521
716.57	0.522
716.76	0.524
716.94	0.524
717.12	0.517
717.31	0.518
717.49	0.520
717.68	0.522
717.86	0.522
718.05	0.523
718.23	0.526
718.42	0.527
718.60	0.528
718.79	0.536
718.97	0.538
719.16	0.538
719.34	0.536
719.53	0.536
719.71	0.535
719.90	0.536
720.08	0.534
720.27	0.534
720.45	0.534
720.63	0.532
720.82	0.527
721.00	0.529
721.19	0.532
721.37	0.531
721.56	0.532
721.74	0.536
721.93	0.544
722.11	0.550
722.30	0.550
722.48	0.553
722.66	0.554
722.85	0.553
723.03	0.554
723.22	0.553
723.40	0.555
723.59	0.555
723.77	0.559
723.95	0.552
724.14	0.554
724.32	0.556
724.51	0.557
724.69	0.558
724.88	0.560
725.06	0.557
725.24	0.560
725.43	0.561
725.61	0.564
725.80	0.558
725.98	0.556
726.16	0.552
726.35	0.557
726.53	0.556
726.72	0.555
726.90	0.564
727.09	0.565
727.27	0.570
727.45	0.567
727.64	0.575
727.82	0.581
728.01	0.586
728.19	0.585
728.37	0.589
728.56	0.591
728.74	0.598
728.92	0.588
729.11	0.590
729.29	0.588
729.48	0.591
729.66	0.582
729.84	0.584
730.03	0.587
730.21	0.589
730.40	0.581
730.58	0.583
730.76	0.582
730.95	0.584
731.13	0.584
731.31	0.598
731.50	0.606
731.68	0.609
731.86	0.605
732.05	0.619
732.23	0.621
732.42	0.623
732.60	0.627
732.78	0.633
732.97	0.649
733.15	0.654
733.33	0.644
733.52	0.649
733.70	0.657
733.88	0.665
734.07	0.652
734.25	0.676
734.43	0.684
734.62	0.688
734.80	0.684
734.98	0.676
735.17	0.681
735.35	0.687
735.53	0.678
735.72	0.681
735.90	0.699
736.08	0.717
736.27	0.696
736.45	0.704
736.63	0.713
736.82	0.721
737.00	0.721
737.18	0.734
737.37	0.760
737.55	0.781
737.73	0.777
737.92	0.780
738.10	0.775
738.28	0.793
738.46	0.780
738.65	0.792
738.83	0.813
739.01	0.862
739.20	0.854
739.38	0.838
739.56	0.832
739.75	0.837
739.93	0.808
740.11	0.832
740.29	0.829
740.48	0.838
740.66	0.820
740.84	0.811
741.03	0.776
741.21	0.783
741.39	0.768
741.57	0.780
741.76	0.793
741.94	0.797
742.12	0.765
742.31	0.772
742.49	0.786
742.67	0.809
742.85	0.826
743.04	0.833
743.22	0.841
743.40	0.886
743.58	0.869
743.77	0.886
743.95	0.915
744.13	0.963
744.31	0.946
744.50	0.942
744.68	0.937
744.86	0.909
745.04	0.921
745.23	0.980
745.41	0.963
745.59	0.965
745.77	0.931
745.96	0.925
746.14	0.928
746.32	0.926
746.50	0.918
746.69	0.904
746.87	0.910
747.05	0.894
747.23	0.828
747.42	0.816
747.60	0.837
747.78	0.841
747.96	0.866
748.14	0.831
748.33	0.855
748.51	0.851
748.69	0.846
748.87	0.875
749.06	0.871
749.24	0.872
749.42	0.859
749.60	0.843
749.78	0.848
749.97	0.804
750.15	0.797
750.33	0.795
750.51	0.816
750.69	0.821
750.88	0.822
751.06	0.830
751.24	0.850
751.42	0.845
751.60	0.841
751.79	0.906
751.97	0.947
752.15	0.947
752.33	0.925
752.51	0.979
752.69	0.984
752.88	0.958
753.06	1.004
753.24	0.988
753.42	1.018
753.60	1.163
753.78	1.040
753.97	1.050
754.15	1.061
754.33	1.082
754.51	0.979
754.69	0.973
754.87	1.002
755.06	0.939
755.24	0.938
755.42	0.945
755.60	0.855
755.78	0.862
755.96	0.818
756.15	0.820
756.33	0.823
756.51	0.842
756.69	0.830
756.87	0.800
757.05	0.814
757.23	0.799
757.42	0.768
757.60	0.767
757.78	0.756
757.96	0.756
758.14	0.741
758.32	0.728
758.50	0.738
758.69	0.736
758.87	0.729
759.05	0.733
759.23	0.741
759.41	0.744
759.59	0.737
759.77	0.756
759.95	0.778
760.13	0.821
760.32	0.823
760.50	0.816
760.68	0.835
760.86	0.834
761.04	0.810
761.22	0.812
761.40	0.850
761.58	0.852
761.76	0.831
761.95	0.816
762.13	0.777
762.31	0.777
762.49	0.751
762.67	0.770
762.85	0.780
763.03	0.778
763.21	0.763
763.39	0.745
763.57	0.744
763.75	0.738
763.94	0.727
764.12	0.727
764.30	0.748
764.48	0.750
764.66	0.716
764.84	0.714
765.02	0.745
765.20	0.752
765.38	0.738
765.56	0.745
765.74	0.780
765.92	0.777
766.10	0.783
766.28	0.775
766.46	0.801
766.65	0.801
766.83	0.789
767.01	0.775
767.19	0.780
767.37	0.780
767.55	0.770
767.73	0.753
767.91	0.756
768.09	0.748
768.27	0.740
768.45	0.730
768.63	0.735
768.81	0.740
768.99	0.718
769.17	0.738
769.35	0.746
769.53	0.747
769.71	0.730
769.89	0.738
770.07	0.741
770.25	0.725
770.43	0.706
770.61	0.726
770.79	0.729
770.97	0.736
771.15	0.712
771.33	0.715
771.51	0.714
771.69	0.722
771.87	0.729
772.05	0.734
772.24	0.737
772.42	0.746
772.60	0.728
772.78	0.783
772.96	0.805
773.14	0.802
773.32	0.784
773.49	0.791
773.67	0.791
773.85	0.775
774.03	0.767
774.21	0.798
774.39	0.805
774.57	0.827
774.75	0.762
774.93	0.758
775.11	0.777
775.29	0.785
775.47	0.789
775.65	0.797
775.83	0.808
776.01	0.829
776.19	0.788
776.37	0.790
776.55	0.787
776.73	0.783
776.91	0.779
777.09	0.763
777.27	0.759
777.45	0.745
777.63	0.727
777.81	0.724
777.99	0.709
778.17	0.707
778.35	0.689
778.53	0.678
778.71	0.683
778.89	0.674
779.07	0.664
779.24	0.669
779.42	0.670
779.60	0.686
779.78	0.684
779.96	0.688
780.14	0.695
780.32	0.714
780.50	0.700
780.68	0.698
780.86	0.691
781.04	0.707
781.22	0.711
781.40	0.719
781.58	0.706
781.75	0.701
781.93	0.687
782.11	0.688
782.29	0.675
782.47	0.673
782.65	0.662
782.83	0.686
783.01	0.679
783.19	0.673
783.37	0.664
783.55	0.669
783.72	0.684
783.90	0.692
784.08	0.687
784.26	0.699
784.44	0.720
784.62	0.725
784.80	0.696
784.98	0.701
785.16	0.706
785.33	0.716
785.51	0.705
785.69	0.693
785.87	0.694
786.05	0.704
786.23	0.701
786.41	0.695
786.59	0.699
786.77	0.699
786.94	0.689
787.12	0.693
787.30	0.693
787.48	0.691
787.66	0.680
787.84	0.679
788.02	0.667
788.19	0.665
788.37	0.655
788.55	0.656
788.73	0.655
788.91	0.651
789.09	0.635
789.27	0.627
789.44	0.637
789.62	0.643
789.80	0.652
789.98	0.675
790.16	0.661
790.34	0.658
790.51	0.647
790.69	0.664
790.87	0.669
791.05	0.668
791.23	0.662
791.41	0.661
791.58	0.664
791.76	0.646
791.94	0.620
792.12	0.628
792.30	0.629
792.48	0.628
792.65	0.623
792.83	0.627
793.01	0.633
793.19	0.633
793.37	0.620
793.54	0.619
793.72	0.629
793.90	0.627
794.08	0.617
794.26	0.621
794.43	0.627
794.61	0.612
794.79	0.604
794.97	0.602
795.15	0.606
795.32	0.609
795.50	0.599
795.68	0.594
795.86	0.596
796.04	0.598
796.21	0.591
796.39	0.589
796.57	0.601
796.75	0.609
796.92	0.611
797.10	0.613
797.28	0.616
797.46	0.621
797.64	0.621
797.81	0.629
797.99	0.632
798.17	0.635
798.35	0.631
798.52	0.634
798.70	0.628
798.88	0.636
799.06	0.636
799.23	0.637
799.41	0.643
799.59	0.639
799.77	0.629
799.94	0.636
800.12	0.646
800.30	0.662
800.48	0.662
800.65	0.663
800.83	0.653
801.01	0.645
801.19	0.647
801.36	0.643
801.54	0.643
801.72	0.653
801.90	0.641
802.07	0.637
802.25	0.622
802.43	0.606
802.60	0.604
802.78	0.611
802.96	0.616
803.14	0.610
803.31	0.611
803.49	0.612
803.67	0.607
803.84	0.611
804.02	0.602
804.20	0.605
804.38	0.609
804.55	0.607
804.73	0.592
804.91	0.592
805.08	0.603
805.26	0.597
805.44	0.658
805.61	0.664
805.79	0.664
805.97	0.665
806.15	0.658
806.32	0.654
806.50	0.661
806.68	0.663
806.85	0.657
807.03	0.647
807.21	0.661
807.38	0.599
807.56	0.588
807.74	0.597
807.91	0.604
808.09	0.606
808.27	0.625
808.44	0.649
808.62	0.655
808.80	0.657
808.97	0.655
809.15	0.651
809.33	0.665
809.50	0.672
809.68	0.659
809.86	0.666
810.03	0.694
810.21	0.677
810.39	0.660
810.56	0.669
810.74	0.688
810.91	0.755
811.09	0.744
811.27	0.763
811.44	0.766
811.62	0.769
811.80	0.750
811.97	0.724
812.15	0.724
812.33	0.719
812.50	0.706
812.68	0.695
812.85	0.642
813.03	0.644
813.21	0.616
813.38	0.612
813.56	0.615
813.74	0.627
813.91	0.635
814.09	0.660
814.26	0.653
814.44	0.654
814.62	0.647
814.79	0.650
814.97	0.655
815.14	0.658
815.32	0.660
815.50	0.673
815.67	0.672
815.85	0.662
816.02	0.654
816.20	0.662
816.38	0.676
816.55	0.678
816.73	0.678
816.90	0.688
817.08	0.713
817.26	0.718
817.43	0.701
817.61	0.722
817.78	0.740
817.96	0.722
818.13	0.713
818.31	0.711
818.49	0.722
818.66	0.716
818.84	0.702
819.01	0.685
819.19	0.689
819.36	0.691
819.54	0.667
819.71	0.705
819.89	0.716
820.07	0.728
820.24	0.723
820.42	0.723
820.59	0.738
820.77	0.760
820.94	0.753
821.12	0.769
821.29	0.782
821.47	0.784
821.64	0.726
821.82	0.735
822.00	0.732
822.17	0.733
822.35	0.730
822.52	0.729
822.70	0.718
822.87	0.727
823.05	0.712
823.22	0.724
823.40	0.743
823.57	0.764
823.75	0.752
823.92	0.774
824.10	0.786
824.27	0.821
824.45	0.820
824.62	0.875
824.80	0.886
824.97	0.896
825.15	0.891
825.32	0.908
825.50	0.906
825.67	0.918
825.85	0.896
826.02	0.911
826.20	0.928
826.37	1.031
826.55	0.963
826.72	1.141
826.90	1.206
827.07	1.250
827.25	1.198
827.42	1.335
827.60	1.418
827.77	1.562
827.95	1.587
828.12	1.656
828.30	1.368
828.47	1.448
828.65	1.145
828.82	1.184
829.00	1.235
829.17	1.333
829.34	1.354
829.52	1.433
829.69	-0.000
829.87	-0.000
830.04	-0.000
830.22	-0.000
830.39	-0.000
830.57	-0.000
830.74	-0.000
830.92	-0.000
831.09	-0.000
831.26	-0.000
831.44	-0.000
831.61	-0.000
831.79	-0.000
831.96	-0.000
832.14	-0.000
832.31	-0.000
832.49	-0.000
832.66	-0.000
832.83	-0.000
833.01	-0.000
833.18	-0.000
833.36	-0.000
833.53	-0.000
833.70	-0.000
833.88	-0.000
834.05	-0.000
834.23	-0.000
834.40	-0.000
834.58	-0.000
834.75	-0.000
834.92	-0.000
835.10	-0.000
835.27	-0.000
835.45	-0.000
835.62	-0.000
835.79	-0.000
835.97	-0.000
836.14	-0.000
836.32	-0.000
836.49	-0.000
836.66	-0.000
836.84	-0.000
837.01	-0.000
837.18	-0.000
837.36	-0.000
837.53	-0.000
837.71	-0.000
837.88	-0.000
838.05	-0.000
838.23	-0.000
838.40	-0.000
838.58	-0.000
838.75	-0.000
838.92	-0.000
839.10	-0.000
839.27	-0.000
839.44	-0.000
839.62	-0.000
839.79	-0.000
839.96	-0.000
840.14	-0.000
840.31	-0.000
840.48	-0.000
840.66	-0.000
840.83	-0.000
841.01	-0.000
841.18	-0.000
841.35	-0.000
841.53	-0.000
841.70	-0.000
841.87	-0.000
842.05	-0.000
842.22	-0.000
842.39	-0.000
842.57	-0.000
842.74	-0.000
842.91	-0.000
843.09	-0.000
843.26	-0.000
843.43	-0.000
843.60	-0.000
843.78	-0.000
843.95	-0.000
844.12	-0.000
844.30	-0.000
844.47	-0.000
844.64	-0.000
844.82	-0.000
844.99	-0.000
845.16	-0.000
845.34	-0.000
845.51	-0.000
845.68	-0.000
845.85	-0.000
846.03	-0.000
846.20	-0.000
846.37	-0.000
846.55	-0.000
846.72	-0.000
846.89	-0.000
847.06	-0.000
847.24	-0.000
847.41	-0.000
847.58	-0.000
847.76	-0.000
847.93	-0.000
848.10	-0.000
848.27	-0.000
848.45	-0.000
848.62	-0.000
848.79	-0.000
848.97	-0.000
849.14	-0.000
849.31	-0.000
849.48	-0.000
849.66	-0.000
849.83	-0.000
850.00	-0.000
850.17	-0.000
850.35	-0.000
850.52	-0.000
850.69	-0.000
850.86	-0.000
851.04	-0.000
851.21	-0.000
851.38	-0.000
851.55	-0.000
851.72	-0.000
851.90	-0.000
852.07	-0.000
852.24	-0.000
852.41	-0.000
852.59	-0.000
852.76	-0.000
852.93	-0.000
853.10	-0.000
853.28	-0.000
853.45	-0.000
853.62	-0.000
853.79	-0.000
853.96	-0.000
854.14	-0.000
854.31	-0.000
854.48	-0.000
854.65	-0.000
854.82	-0.000
855.00	-0.000
855.17	-0.000
855.34	-0.000
855.51	-0.000
855.68	-0.000
855.86	-0.000
856.03	-0.000
856.20	-0.000
856.37	-0.000
856.54	-0.000
856.72	-0.000
856.89	-0.000
857.06	-0.000
857.23	-0.000
857.40	-0.000
857.57	-0.000
857.75	-0.000
857.92	-0.000
858.09	-0.000
858.26	-0.000
858.43	-0.000
858.60	-0.000
858.78	-0.000
858.95	-0.000
859.12	-0.000
859.29	-0.000
859.46	-0.000
859.63	-0.000
859.81	-0.000
859.98	-0.000
860.15	-0.000
860.32	-0.000
860.49	-0.000
860.66	-0.000
860.83	-0.000
861.01	-0.000
861.18	-0.000
861.35	-0.000
861.52	-0.000
861.69	-0.000
861.86	-0.000
862.03	-0.000
862.21	-0.000
862.38	-0.000
862.55	-0.000
862.72	-0.000
862.89	-0.000
863.06	-0.000
863.23	-0.000
863.40	-0.000
863.58	-0.000
863.75	-0.000
863.92	-0.000
864.09	-0.000
864.26	-0.000
864.43	-0.000
864.60	-0.000
864.77	-0.000
864.94	-0.000
865.11	-0.000
865.29	-0.000
865.46	-0.000
865.63	-0.000
865.80	-0.000
865.97	-0.000
866.14	-0.000
866.31	-0.000
866.48	-0.000
866.65	-0.000
866.82	-0.000
866.99	-0.000
867.16	-0.000
867.34	-0.000
867.51	-0.000
867.68	-0.000
867.85	-0.000
868.02	-0.000
868.19	-0.000
868.36	-0.000
868.53	-0.000
868.70	-0.000
868.87	-0.000
869.04	-0.000
869.21	-0.000
869.38	-0.000
869.55	-0.000
869.72	-0.000
869.89	-0.000
870.06	-0.000
870.24	-0.000
870.41	-0.000
870.58	-0.000
870.75	-0.000
870.92	-0.000
871.09	-0.000
871.26	-0.000
871.43	-0.000
871.60	-0.000
871.77	-0.000
871.94	-0.000
872.11	-0.000
872.28	-0.000
872.45	-0.000
872.62	-0.000
872.79	-0.000
872.96	-0.000
873.13	-0.000
873.30	-0.000
873.47	-0.000
873.64	-0.000
873.81	-0.000
873.98	-0.000
874.15	-0.000
874.32	-0.000
874.49	-0.000
874.66	-0.000
874.83	-0.000
875.00	-0.000
875.17	-0.000
875.34	-0.000
875.51	-0.000
875.68	-0.000
875.85	-0.000
876.02	-0.000
876.19	-0.000
876.36	-0.000
876.53	-0.000
876.70	-0.000
876.87	-0.000
877.04	-0.000
877.21	-0.000
877.38	-0.000
877.55	-0.000
877.72	-0.000
877.89	-0.000
878.06	-0.000
878.23	-0.000
878.39	-0.000
878.56	-0.000
878.73	-0.000
878.90	-0.000
879.07	-0.000
879.24	-0.000
879.41	-0.000
879.58	-0.000
879.75	-0.000
879.92	-0.000
880.09	-0.000
880.26	-0.000
880.43	-0.000
880.60	-0.000
880.77	-0.000
880.94	-0.000
881.11	-0.000
881.27	-0.000
881.44	-0.000
881.61	-0.000
881.78	-0.000
881.95	-0.000
882.12	-0.000
882.29	-0.000
882.46	-0.000
882.63	-0.000
882.80	-0.000
882.97	-0.000
883.14	-0.000
883.30	-0.000
883.47	-0.000
883.64	-0.000
883.81	-0.000
883.98	-0.000
884.15	-0.000
884.32	-0.000
884.49	-0.000
884.66	-0.000
884.82	-0.000
884.99	-0.000
885.16	-0.000
885.33	-0.000
885.50	-0.000
885.67	-0.000
885.84	-0.000
886.01	-0.000
886.17	-0.000
886.34	-0.000
886.51	-0.000
886.68	-0.000
886.85	-0.000
887.02	-0.000
887.19	-0.000
887.36	-0.000
887.52	-0.000
887.69	-0.000
887.86	-0.000
888.03	-0.000
888.20	-0.000
888.37	-0.000
888.54	-0.000
888.70	-0.000
888.87	-0.000
889.04	-0.000
889.21	-0.000
889.38	-0.000
889.55	-0.000
889.71	-0.000
889.88	-0.000
890.05	-0.000
890.22	-0.000
890.39	-0.000
>>>>>End Processed Spectral Data<<<<<
