SpectraSuite Data File
++++++++++++++++++++++++++++++++++++
Date: Fri Jun 19 15:19:09 CEST 2015
User: introlabs
Dark Spectrum Present: Yes
Reference Spectrum Present: Yes
Number of Sampled Component Spectra: 1
Spectrometers: USB4H08886
Integration Time (usec): 745692 (USB4H08886)
Spectra Averaged: 5 (USB4H08886)
Boxcar Smoothing: 5 (USB4H08886)
Correct for Electrical Dark: Yes (USB4H08886)
Strobe/Lamp Enabled: No (USB4H08886)
Correct for Detector Non-linearity: Yes (USB4H08886)
Correct for Stray Light: Yes (USB4H08886)
Number of Pixels in Processed Spectrum: 3648
>>>>>Begin Processed Spectral Data<<<<<
178.14	-0.000
178.36	-0.000
178.57	-0.000
178.79	-0.000
179.01	-0.000
179.22	-0.000
179.44	-0.000
179.65	-0.000
179.87	-0.000
180.08	-0.000
180.30	-0.000
180.52	-0.000
180.73	-0.000
180.95	-0.000
181.16	-0.000
181.38	-0.000
181.59	-0.000
181.81	-0.000
182.03	-0.000
182.24	-0.000
182.46	-0.000
182.67	-0.000
182.89	-0.000
183.10	-0.000
183.32	-0.000
183.54	-0.000
183.75	-0.000
183.97	-0.000
184.18	-0.000
184.40	-0.000
184.61	-0.000
184.83	-0.000
185.04	-0.000
185.26	-0.000
185.48	-0.000
185.69	-0.000
185.91	-0.000
186.12	-0.000
186.34	-0.000
186.55	-0.000
186.77	-0.000
186.98	-0.000
187.20	-0.000
187.42	-0.000
187.63	-0.000
187.85	-0.000
188.06	-0.000
188.28	-0.000
188.49	-0.000
188.71	-0.000
188.92	-0.000
189.14	-0.000
189.36	-0.000
189.57	-0.000
189.79	-0.000
190.00	-0.000
190.22	-0.000
190.43	-0.000
190.65	-0.000
190.86	-0.000
191.08	-0.000
191.29	-0.000
191.51	-0.000
191.72	-0.000
191.94	-0.000
192.16	-0.000
192.37	-0.000
192.59	-0.000
192.80	-0.000
193.02	-0.000
193.23	-0.000
193.45	-0.000
193.66	-0.000
193.88	-0.000
194.09	-0.000
194.31	-0.000
194.52	-0.000
194.74	-0.000
194.95	-0.000
195.17	-0.000
195.38	-0.000
195.60	-0.000
195.81	-0.000
196.03	-0.000
196.25	-0.000
196.46	-0.000
196.68	-0.000
196.89	-0.000
197.11	-0.000
197.32	-0.000
197.54	-0.000
197.75	-0.000
197.97	-0.000
198.18	-0.000
198.40	-0.000
198.61	-0.000
198.83	-0.000
199.04	-0.000
199.26	-0.000
199.47	-0.000
199.69	-0.000
199.90	-0.000
200.12	-0.000
200.33	-0.000
200.55	-0.000
200.76	-0.000
200.98	-0.000
201.19	-0.000
201.41	-0.000
201.62	-0.000
201.84	-0.000
202.05	-0.000
202.27	-0.000
202.48	-0.000
202.70	-0.000
202.91	-0.000
203.13	-0.000
203.34	-0.000
203.56	-0.000
203.77	-0.000
203.99	-0.000
204.20	-0.000
204.42	-0.000
204.63	-0.000
204.85	-0.000
205.06	-0.000
205.28	-0.000
205.49	-0.000
205.71	-0.000
205.92	-0.000
206.14	-0.000
206.35	-0.000
206.56	-0.000
206.78	-0.000
206.99	-0.000
207.21	-0.000
207.42	-0.000
207.64	-0.000
207.85	-0.000
208.07	-0.000
208.28	-0.000
208.50	-0.000
208.71	-0.000
208.93	-0.000
209.14	-0.000
209.36	-0.000
209.57	-0.000
209.79	-0.000
210.00	-0.000
210.22	-0.000
210.43	-0.000
210.64	-0.000
210.86	-0.000
211.07	-0.000
211.29	-0.000
211.50	-0.000
211.72	-0.000
211.93	-0.000
212.15	-0.000
212.36	-0.000
212.58	-0.000
212.79	-0.000
213.01	-0.000
213.22	-0.000
213.43	-0.000
213.65	-0.000
213.86	-0.000
214.08	-0.000
214.29	-0.000
214.51	-0.000
214.72	-0.000
214.94	-0.000
215.15	-0.000
215.36	-0.000
215.58	-0.000
215.79	-0.000
216.01	-0.000
216.22	-0.000
216.44	-0.000
216.65	-0.000
216.87	-0.000
217.08	-0.000
217.29	-0.000
217.51	-0.000
217.72	-0.000
217.94	-0.000
218.15	-0.000
218.37	-0.000
218.58	-0.000
218.80	-0.000
219.01	-0.000
219.22	-0.000
219.44	-0.000
219.65	-0.000
219.87	-0.000
220.08	-0.000
220.30	-0.000
220.51	-0.000
220.72	-0.000
220.94	-0.000
221.15	-0.000
221.37	-0.000
221.58	-0.000
221.79	-0.000
222.01	-0.000
222.22	-0.000
222.44	-0.000
222.65	-0.000
222.87	-0.000
223.08	-0.000
223.29	-0.000
223.51	-0.000
223.72	-0.000
223.94	-0.000
224.15	-0.000
224.36	-0.000
224.58	-0.000
224.79	-0.000
225.01	-0.000
225.22	-0.000
225.44	-0.000
225.65	-0.000
225.86	-0.000
226.08	-0.000
226.29	-0.000
226.51	-0.000
226.72	-0.000
226.93	-0.000
227.15	-0.000
227.36	-0.000
227.58	-0.000
227.79	-0.000
228.00	-0.000
228.22	-0.000
228.43	-0.000
228.65	-0.000
228.86	-0.000
229.07	-0.000
229.29	-0.000
229.50	-0.000
229.72	-0.000
229.93	-0.000
230.14	-0.000
230.36	-0.000
230.57	-0.000
230.78	-0.000
231.00	-0.000
231.21	-0.000
231.43	-0.000
231.64	-0.000
231.85	-0.000
232.07	-0.000
232.28	-0.000
232.50	-0.000
232.71	-0.000
232.92	-0.000
233.14	-0.000
233.35	-0.000
233.56	-0.000
233.78	-0.000
233.99	-0.000
234.21	-0.000
234.42	-0.000
234.63	-0.000
234.85	-0.000
235.06	-0.000
235.27	-0.000
235.49	-0.000
235.70	-0.000
235.91	-0.000
236.13	-0.000
236.34	-0.000
236.56	-0.000
236.77	-0.000
236.98	-0.000
237.20	-0.000
237.41	-0.000
237.62	-0.000
237.84	-0.000
238.05	-0.000
238.26	-0.000
238.48	-0.000
238.69	-0.000
238.91	-0.000
239.12	-0.000
239.33	-0.000
239.55	-0.000
239.76	-0.000
239.97	-0.000
240.19	-0.000
240.40	-0.000
240.61	-0.000
240.83	-0.000
241.04	-0.000
241.25	-0.000
241.47	-0.000
241.68	-0.000
241.89	-0.000
242.11	-0.000
242.32	-0.000
242.53	-0.000
242.75	-0.000
242.96	-0.000
243.17	-0.000
243.39	-0.000
243.60	-0.000
243.81	-0.000
244.03	-0.000
244.24	-0.000
244.45	-0.000
244.67	-0.000
244.88	-0.000
245.09	-0.000
245.31	-0.000
245.52	-0.000
245.73	-0.000
245.95	-0.000
246.16	-0.000
246.37	-0.000
246.59	-0.000
246.80	-0.000
247.01	-0.000
247.23	-0.000
247.44	-0.000
247.65	-0.000
247.87	-0.000
248.08	-0.000
248.29	-0.000
248.51	-0.000
248.72	-0.000
248.93	-0.000
249.15	-0.000
249.36	-0.000
249.57	-0.000
249.78	-0.000
250.00	-0.000
250.21	-0.000
250.42	-0.000
250.64	-0.000
250.85	-0.000
251.06	-0.000
251.28	-0.000
251.49	-0.000
251.70	-0.000
251.92	-0.000
252.13	-0.000
252.34	-0.000
252.55	-0.000
252.77	-0.000
252.98	-0.000
253.19	-0.000
253.41	-0.000
253.62	-0.000
253.83	-0.000
254.05	-0.000
254.26	-0.000
254.47	-0.000
254.68	-0.000
254.90	-0.000
255.11	-0.000
255.32	-0.000
255.54	-0.000
255.75	-0.000
255.96	-0.000
256.17	-0.000
256.39	-0.000
256.60	-0.000
256.81	-0.000
257.03	-0.000
257.24	-0.000
257.45	-0.000
257.66	-0.000
257.88	-0.000
258.09	-0.000
258.30	-0.000
258.51	-0.000
258.73	-0.000
258.94	-0.000
259.15	-0.000
259.37	-0.000
259.58	-0.000
259.79	-0.000
260.00	-0.000
260.22	-0.000
260.43	-0.000
260.64	-0.000
260.85	-0.000
261.07	-0.000
261.28	-0.000
261.49	-0.000
261.71	-0.000
261.92	-0.000
262.13	-0.000
262.34	-0.000
262.56	-0.000
262.77	-0.000
262.98	-0.000
263.19	-0.000
263.41	-0.000
263.62	-0.000
263.83	-0.000
264.04	-0.000
264.26	-0.000
264.47	-0.000
264.68	-0.000
264.89	-0.000
265.11	-0.000
265.32	-0.000
265.53	-0.000
265.74	-0.000
265.96	-0.000
266.17	-0.000
266.38	-0.000
266.59	-0.000
266.81	-0.000
267.02	-0.000
267.23	-0.000
267.44	-0.000
267.65	-0.000
267.87	-0.000
268.08	-0.000
268.29	-0.000
268.50	-0.000
268.72	-0.000
268.93	-0.000
269.14	-0.000
269.35	-0.000
269.57	-0.000
269.78	-0.000
269.99	-0.000
270.20	-0.000
270.41	-0.000
270.63	-0.000
270.84	-0.000
271.05	-0.000
271.26	-0.000
271.48	-0.000
271.69	-0.000
271.90	-0.000
272.11	-0.000
272.32	-0.000
272.54	-0.000
272.75	-0.000
272.96	-0.000
273.17	-0.000
273.39	-0.000
273.60	-0.000
273.81	-0.000
274.02	-0.000
274.23	-0.000
274.45	-0.000
274.66	-0.000
274.87	-0.000
275.08	-0.000
275.29	-0.000
275.51	-0.000
275.72	-0.000
275.93	-0.000
276.14	-0.000
276.35	-0.000
276.57	-0.000
276.78	-0.000
276.99	-0.000
277.20	-0.000
277.41	-0.000
277.63	-0.000
277.84	-0.000
278.05	-0.000
278.26	-0.000
278.47	-0.000
278.69	-0.000
278.90	-0.000
279.11	-0.000
279.32	-0.000
279.53	-0.000
279.74	-0.000
279.96	-0.000
280.17	-0.000
280.38	-0.000
280.59	-0.000
280.80	-0.000
281.02	-0.000
281.23	-0.000
281.44	-0.000
281.65	-0.000
281.86	-0.000
282.07	-0.000
282.29	-0.000
282.50	-0.000
282.71	-0.000
282.92	-0.000
283.13	-0.000
283.35	-0.000
283.56	-0.000
283.77	-0.000
283.98	-0.000
284.19	-0.000
284.40	-0.000
284.62	-0.000
284.83	-0.000
285.04	-0.000
285.25	-0.000
285.46	-0.000
285.67	-0.000
285.88	-0.000
286.10	-0.000
286.31	-0.000
286.52	-0.000
286.73	-0.000
286.94	-0.000
287.15	-0.000
287.37	-0.000
287.58	-0.000
287.79	-0.000
288.00	-0.000
288.21	-0.000
288.42	-0.000
288.63	-0.000
288.85	-0.000
289.06	-0.000
289.27	-0.000
289.48	-0.000
289.69	-0.000
289.90	-0.000
290.11	-0.000
290.33	-0.000
290.54	-0.000
290.75	-0.000
290.96	-0.000
291.17	-0.000
291.38	-0.000
291.59	-0.000
291.81	-0.000
292.02	-0.000
292.23	-0.000
292.44	-0.000
292.65	-0.000
292.86	-0.000
293.07	-0.000
293.28	-0.000
293.50	-0.000
293.71	-0.000
293.92	-0.000
294.13	-0.000
294.34	-0.000
294.55	-0.000
294.76	-0.000
294.97	-0.000
295.19	-0.000
295.40	-0.000
295.61	-0.000
295.82	-0.000
296.03	-0.000
296.24	-0.000
296.45	2.034
296.66	1.738
296.87	1.760
297.09	1.830
297.30	2.027
297.51	1.699
297.72	1.668
297.93	1.726
298.14	1.690
298.35	1.652
298.56	1.632
298.77	1.732
298.99	1.711
299.20	1.688
299.41	1.658
299.62	1.597
299.83	1.589
300.04	1.538
300.25	1.541
300.46	1.579
300.67	1.555
300.88	1.512
301.10	1.519
301.31	1.573
301.52	1.525
301.73	1.474
301.94	1.481
302.15	1.491
302.36	1.450
302.57	1.397
302.78	1.399
302.99	1.432
303.20	1.447
303.41	1.367
303.63	1.354
303.84	1.355
304.05	1.357
304.26	1.305
304.47	1.310
304.68	1.308
304.89	1.296
305.10	1.264
305.31	1.252
305.52	1.292
305.73	1.289
305.94	1.255
306.15	1.250
306.37	1.267
306.58	1.276
306.79	1.248
307.00	1.272
307.21	1.305
307.42	1.298
307.63	1.267
307.84	1.234
308.05	1.267
308.26	1.268
308.47	1.245
308.68	1.242
308.89	1.234
309.10	1.234
309.31	1.199
309.52	1.192
309.73	1.205
309.95	1.198
310.16	1.173
310.37	1.160
310.58	1.173
310.79	1.173
311.00	1.173
311.21	1.177
311.42	1.176
311.63	1.172
311.84	1.157
312.05	1.155
312.26	1.175
312.47	1.185
312.68	1.164
312.89	1.149
313.10	1.153
313.31	1.127
313.52	1.130
313.73	1.131
313.94	1.132
314.15	1.116
314.36	1.096
314.57	1.090
314.78	1.078
314.99	1.073
315.21	1.065
315.42	1.070
315.63	1.079
315.84	1.058
316.05	1.046
316.26	1.053
316.47	1.068
316.68	1.064
316.89	1.047
317.10	1.068
317.31	1.072
317.52	1.069
317.73	1.049
317.94	1.047
318.15	1.085
318.36	1.084
318.57	1.069
318.78	1.059
318.99	1.090
319.20	1.088
319.41	1.058
319.62	1.062
319.83	1.076
320.04	1.073
320.25	1.063
320.46	1.032
320.67	1.035
320.88	1.032
321.09	1.021
321.30	1.008
321.51	1.022
321.72	1.018
321.93	1.002
322.14	0.995
322.35	1.021
322.56	1.022
322.77	1.009
322.98	1.017
323.19	1.023
323.40	1.027
323.61	1.008
323.82	1.004
324.03	1.009
324.24	1.007
324.45	0.995
324.66	0.974
324.87	0.971
325.08	0.972
325.29	0.956
325.50	0.951
325.71	0.954
325.92	0.962
326.13	0.948
326.34	0.948
326.55	0.956
326.76	0.954
326.97	0.945
327.18	0.939
327.39	0.963
327.60	0.962
327.80	0.964
328.01	0.963
328.22	0.962
328.43	0.965
328.64	0.954
328.85	0.957
329.06	0.958
329.27	0.958
329.48	0.953
329.69	0.935
329.90	0.945
330.11	0.938
330.32	0.931
330.53	0.924
330.74	0.923
330.95	0.923
331.16	0.910
331.37	0.918
331.58	0.918
331.79	0.918
332.00	0.911
332.21	0.905
332.42	0.908
332.63	0.900
332.83	0.897
333.04	0.900
333.25	0.910
333.46	0.909
333.67	0.896
333.88	0.898
334.09	0.908
334.30	0.904
334.51	0.896
334.72	0.892
334.93	0.894
335.14	0.894
335.35	0.886
335.56	0.882
335.77	0.889
335.98	0.888
336.18	0.882
336.39	0.874
336.60	0.877
336.81	0.876
337.02	0.876
337.23	0.881
337.44	0.884
337.65	0.886
337.86	0.876
338.07	0.872
338.28	0.877
338.49	0.875
338.70	0.868
338.91	0.875
339.11	0.881
339.32	0.878
339.53	0.867
339.74	0.863
339.95	0.859
340.16	0.858
340.37	0.851
340.58	0.848
340.79	0.851
341.00	0.852
341.21	0.842
341.41	0.841
341.62	0.843
341.83	0.842
342.04	0.838
342.25	0.848
342.46	0.852
342.67	0.850
342.88	0.843
343.09	0.842
343.30	0.850
343.50	0.853
343.71	0.845
343.92	0.843
344.13	0.848
344.34	0.848
344.55	0.831
344.76	0.831
344.97	0.836
345.18	0.835
345.38	0.832
345.59	0.826
345.80	0.824
346.01	0.822
346.22	0.818
346.43	0.811
346.64	0.818
346.85	0.818
347.06	0.811
347.26	0.810
347.47	0.813
347.68	0.808
347.89	0.805
348.10	0.802
348.31	0.808
348.52	0.807
348.73	0.804
348.93	0.802
349.14	0.805
349.35	0.804
349.56	0.799
349.77	0.795
349.98	0.801
350.19	0.797
350.39	0.793
350.60	0.789
350.81	0.804
351.02	0.803
351.23	0.799
351.44	0.802
351.65	0.805
351.86	0.802
352.06	0.800
352.27	0.799
352.48	0.801
352.69	0.800
352.90	0.796
353.11	0.782
353.31	0.789
353.52	0.785
353.73	0.777
353.94	0.778
354.15	0.784
354.36	0.784
354.57	0.776
354.77	0.778
354.98	0.777
355.19	0.776
355.40	0.776
355.61	0.781
355.82	0.785
356.02	0.785
356.23	0.778
356.44	0.780
356.65	0.783
356.86	0.785
357.07	0.779
357.27	0.782
357.48	0.784
357.69	0.780
357.90	0.766
358.11	0.762
358.32	0.765
358.52	0.768
358.73	0.759
358.94	0.760
359.15	0.763
359.36	0.763
359.56	0.759
359.77	0.756
359.98	0.762
360.19	0.762
360.40	0.760
360.61	0.760
360.81	0.758
361.02	0.760
361.23	0.752
361.44	0.751
361.65	0.750
361.85	0.750
362.06	0.749
362.27	0.751
362.48	0.751
362.69	0.753
362.89	0.747
363.10	0.749
363.31	0.753
363.52	0.756
363.73	0.751
363.93	0.753
364.14	0.754
364.35	0.756
364.56	0.746
364.77	0.747
364.97	0.750
365.18	0.750
365.39	0.745
365.60	0.742
365.81	0.742
366.01	0.742
366.22	0.739
366.43	0.737
366.64	0.738
366.84	0.743
367.05	0.741
367.26	0.740
367.47	0.741
367.68	0.741
367.88	0.739
368.09	0.736
368.30	0.738
368.51	0.739
368.71	0.739
368.92	0.743
369.13	0.740
369.34	0.739
369.55	0.738
369.75	0.738
369.96	0.745
370.17	0.745
370.38	0.743
370.58	0.742
370.79	0.747
371.00	0.745
371.21	0.738
371.41	0.744
371.62	0.747
371.83	0.743
372.04	0.742
372.24	0.735
372.45	0.736
372.66	0.736
372.87	0.733
373.07	0.730
373.28	0.730
373.49	0.733
373.70	0.724
373.90	0.724
374.11	0.732
374.32	0.731
374.53	0.731
374.73	0.731
374.94	0.733
375.15	0.733
375.36	0.731
375.56	0.740
375.77	0.740
375.98	0.739
376.19	0.738
376.39	0.731
376.60	0.734
376.81	0.734
377.02	0.732
377.22	0.731
377.43	0.732
377.64	0.732
377.84	0.723
378.05	0.727
378.26	0.734
378.47	0.732
378.67	0.730
378.88	0.728
379.09	0.728
379.30	0.728
379.50	0.726
379.71	0.728
379.92	0.729
380.12	0.729
380.33	0.721
380.54	0.718
380.75	0.724
380.95	0.725
381.16	0.723
381.37	0.723
381.57	0.724
381.78	0.725
381.99	0.725
382.20	0.725
382.40	0.728
382.61	0.729
382.82	0.726
383.02	0.719
383.23	0.722
383.44	0.722
383.64	0.720
383.85	0.723
384.06	0.725
384.27	0.723
384.47	0.721
384.68	0.721
384.89	0.726
385.09	0.727
385.30	0.726
385.51	0.725
385.71	0.728
385.92	0.729
386.13	0.728
386.33	0.731
386.54	0.732
386.75	0.731
386.95	0.728
387.16	0.723
387.37	0.725
387.58	0.725
387.78	0.724
387.99	0.722
388.20	0.724
388.40	0.721
388.61	0.716
388.82	0.719
389.02	0.721
389.23	0.721
389.44	0.720
389.64	0.720
389.85	0.731
390.06	0.731
390.26	0.731
390.47	0.730
390.68	0.732
390.88	0.731
391.09	0.727
391.30	0.726
391.50	0.727
391.71	0.727
391.92	0.725
392.12	0.717
392.33	0.717
392.53	0.717
392.74	0.718
392.95	0.718
393.15	0.720
393.36	0.721
393.57	0.719
393.77	0.723
393.98	0.724
394.19	0.724
394.39	0.724
394.60	0.725
394.81	0.727
395.01	0.725
395.22	0.723
395.43	0.724
395.63	0.729
395.84	0.730
396.04	0.726
396.25	0.728
396.46	0.730
396.66	0.727
396.87	0.725
397.08	0.723
397.28	0.724
397.49	0.726
397.69	0.723
397.90	0.718
398.11	0.719
398.31	0.719
398.52	0.716
398.73	0.717
398.93	0.717
399.14	0.716
399.34	0.714
399.55	0.715
399.76	0.715
399.96	0.716
400.17	0.714
400.37	0.713
400.58	0.720
400.79	0.722
400.99	0.719
401.20	0.725
401.41	0.727
401.61	0.729
401.82	0.734
402.02	0.734
402.23	0.735
402.44	0.735
402.64	0.735
402.85	0.729
403.05	0.728
403.26	0.728
403.47	0.722
403.67	0.721
403.88	0.721
404.08	0.715
404.29	0.713
404.50	0.713
404.70	0.713
404.91	0.712
405.11	0.709
405.32	0.710
405.52	0.710
405.73	0.710
405.94	0.708
406.14	0.712
406.35	0.714
406.55	0.713
406.76	0.711
406.97	0.713
407.17	0.716
407.38	0.716
407.58	0.714
407.79	0.715
407.99	0.717
408.20	0.718
408.41	0.713
408.61	0.712
408.82	0.714
409.02	0.714
409.23	0.711
409.43	0.710
409.64	0.711
409.84	0.711
410.05	0.708
410.26	0.706
410.46	0.706
410.67	0.706
410.87	0.708
411.08	0.709
411.28	0.710
411.49	0.712
411.69	0.710
411.90	0.711
412.11	0.713
412.31	0.714
412.52	0.713
412.72	0.714
412.93	0.714
413.13	0.713
413.34	0.709
413.54	0.711
413.75	0.712
413.95	0.712
414.16	0.709
414.37	0.711
414.57	0.712
414.78	0.715
414.98	0.712
415.19	0.713
415.39	0.711
415.60	0.713
415.80	0.712
416.01	0.710
416.21	0.712
416.42	0.712
416.62	0.707
416.83	0.707
417.03	0.706
417.24	0.707
417.44	0.704
417.65	0.704
417.86	0.705
418.06	0.703
418.27	0.701
418.47	0.702
418.68	0.703
418.88	0.704
419.09	0.702
419.29	0.703
419.50	0.703
419.70	0.703
419.91	0.702
420.11	0.699
420.32	0.702
420.52	0.701
420.73	0.701
420.93	0.702
421.14	0.703
421.34	0.701
421.55	0.698
421.75	0.698
421.96	0.699
422.16	0.699
422.37	0.698
422.57	0.695
422.78	0.697
422.98	0.693
423.19	0.691
423.39	0.689
423.60	0.693
423.80	0.693
424.01	0.692
424.21	0.694
424.42	0.694
424.62	0.694
424.83	0.693
425.03	0.693
425.23	0.695
425.44	0.695
425.64	0.696
425.85	0.694
426.05	0.696
426.26	0.696
426.46	0.692
426.67	0.692
426.87	0.697
427.08	0.697
427.28	0.695
427.49	0.696
427.69	0.697
427.90	0.695
428.10	0.693
428.31	0.693
428.51	0.695
428.71	0.694
428.92	0.695
429.12	0.692
429.33	0.693
429.53	0.697
429.74	0.701
429.94	0.701
430.15	0.701
430.35	0.700
430.56	0.697
430.76	0.696
430.96	0.696
431.17	0.693
431.37	0.691
431.58	0.689
431.78	0.685
431.99	0.678
432.19	0.680
432.40	0.682
432.60	0.682
432.80	0.685
433.01	0.683
433.21	0.684
433.42	0.685
433.62	0.686
433.83	0.686
434.03	0.689
434.23	0.692
434.44	0.691
434.64	0.689
434.85	0.694
435.05	0.694
435.26	0.694
435.46	0.693
435.66	0.693
435.87	0.692
436.07	0.692
436.28	0.688
436.48	0.685
436.69	0.684
436.89	0.684
437.09	0.678
437.30	0.677
437.50	0.678
437.71	0.689
437.91	0.688
438.11	0.689
438.32	0.692
438.52	0.692
438.73	0.691
438.93	0.690
439.13	0.689
439.34	0.693
439.54	0.691
439.75	0.690
439.95	0.680
440.15	0.685
440.36	0.684
440.56	0.681
440.77	0.682
440.97	0.682
441.17	0.681
441.38	0.683
441.58	0.680
441.79	0.679
441.99	0.678
442.19	0.677
442.40	0.674
442.60	0.674
442.81	0.672
443.01	0.672
443.21	0.673
443.42	0.672
443.62	0.671
443.82	0.671
444.03	0.672
444.23	0.671
444.44	0.671
444.64	0.670
444.84	0.671
445.05	0.671
445.25	0.669
445.45	0.669
445.66	0.671
445.86	0.669
446.06	0.671
446.27	0.670
446.47	0.674
446.68	0.673
446.88	0.671
447.08	0.671
447.29	0.672
447.49	0.673
447.69	0.673
447.90	0.671
448.10	0.675
448.30	0.671
448.51	0.673
448.71	0.670
448.91	0.672
449.12	0.671
449.32	0.672
449.52	0.671
449.73	0.675
449.93	0.673
450.14	0.674
450.34	0.673
450.54	0.676
450.75	0.673
450.95	0.672
451.15	0.671
451.36	0.674
451.56	0.671
451.76	0.670
451.97	0.667
452.17	0.667
452.37	0.666
452.58	0.663
452.78	0.662
452.98	0.664
453.19	0.663
453.39	0.664
453.59	0.662
453.79	0.663
454.00	0.663
454.20	0.662
454.40	0.663
454.61	0.664
454.81	0.665
455.01	0.664
455.22	0.664
455.42	0.666
455.62	0.664
455.83	0.664
456.03	0.666
456.23	0.667
456.44	0.668
456.64	0.668
456.84	0.667
457.04	0.667
457.25	0.667
457.45	0.664
457.65	0.663
457.86	0.663
458.06	0.662
458.26	0.658
458.47	0.658
458.67	0.658
458.87	0.658
459.07	0.656
459.28	0.658
459.48	0.661
459.68	0.661
459.89	0.660
460.09	0.659
460.29	0.660
460.49	0.662
460.70	0.661
460.90	0.661
461.10	0.662
461.31	0.661
461.51	0.659
461.71	0.660
461.91	0.661
462.12	0.661
462.32	0.661
462.52	0.662
462.72	0.664
462.93	0.664
463.13	0.662
463.33	0.663
463.53	0.664
463.74	0.663
463.94	0.659
464.14	0.659
464.35	0.660
464.55	0.660
464.75	0.658
464.95	0.656
465.16	0.658
465.36	0.657
465.56	0.656
465.76	0.656
465.97	0.656
466.17	0.657
466.37	0.655
466.57	0.656
466.78	0.657
466.98	0.657
467.18	0.655
467.38	0.654
467.59	0.655
467.79	0.656
467.99	0.655
468.19	0.656
468.39	0.659
468.60	0.659
468.80	0.657
469.00	0.659
469.20	0.659
469.41	0.660
469.61	0.660
469.81	0.660
470.01	0.659
470.22	0.659
470.42	0.658
470.62	0.656
470.82	0.657
471.02	0.656
471.23	0.654
471.43	0.654
471.63	0.656
471.83	0.655
472.04	0.653
472.24	0.652
472.44	0.657
472.64	0.658
472.84	0.656
473.05	0.655
473.25	0.658
473.45	0.658
473.65	0.656
473.85	0.657
474.06	0.658
474.26	0.658
474.46	0.660
474.66	0.656
474.86	0.656
475.07	0.656
475.27	0.655
475.47	0.652
475.67	0.652
475.87	0.654
476.08	0.651
476.28	0.651
476.48	0.652
476.68	0.650
476.88	0.649
477.09	0.650
477.29	0.652
477.49	0.652
477.69	0.651
477.89	0.652
478.09	0.651
478.30	0.653
478.50	0.651
478.70	0.651
478.90	0.652
479.10	0.654
479.31	0.655
479.51	0.654
479.71	0.654
479.91	0.654
480.11	0.653
480.31	0.654
480.52	0.652
480.72	0.652
480.92	0.651
481.12	0.650
481.32	0.648
481.52	0.646
481.72	0.646
481.93	0.649
482.13	0.650
482.33	0.650
482.53	0.648
482.73	0.648
482.93	0.650
483.14	0.649
483.34	0.648
483.54	0.649
483.74	0.648
483.94	0.647
484.14	0.643
484.34	0.643
484.55	0.643
484.75	0.643
484.95	0.641
485.15	0.641
485.35	0.640
485.55	0.640
485.75	0.638
485.96	0.638
486.16	0.639
486.36	0.639
486.56	0.637
486.76	0.637
486.96	0.637
487.16	0.636
487.36	0.635
487.57	0.634
487.77	0.635
487.97	0.635
488.17	0.633
488.37	0.633
488.57	0.633
488.77	0.633
488.97	0.632
489.18	0.631
489.38	0.634
489.58	0.635
489.78	0.634
489.98	0.634
490.18	0.634
490.38	0.635
490.58	0.634
490.78	0.635
490.98	0.637
491.19	0.637
491.39	0.637
491.59	0.635
491.79	0.638
491.99	0.639
492.19	0.639
492.39	0.641
492.59	0.642
492.79	0.644
492.99	0.644
493.20	0.644
493.40	0.643
493.60	0.645
493.80	0.643
494.00	0.641
494.20	0.642
494.40	0.641
494.60	0.638
494.80	0.642
495.00	0.641
495.20	0.639
495.40	0.638
495.61	0.640
495.81	0.640
496.01	0.643
496.21	0.644
496.41	0.643
496.61	0.644
496.81	0.643
497.01	0.638
497.21	0.638
497.41	0.638
497.61	0.637
497.81	0.635
498.01	0.635
498.21	0.632
498.41	0.630
498.61	0.630
498.82	0.631
499.02	0.633
499.22	0.634
499.42	0.634
499.62	0.636
499.82	0.637
500.02	0.638
500.22	0.637
500.42	0.639
500.62	0.640
500.82	0.640
501.02	0.638
501.22	0.638
501.42	0.637
501.62	0.639
501.82	0.639
502.02	0.638
502.22	0.638
502.42	0.639
502.62	0.636
502.82	0.636
503.02	0.637
503.22	0.637
503.42	0.635
503.63	0.635
503.83	0.633
504.03	0.632
504.23	0.631
504.43	0.632
504.63	0.633
504.83	0.633
505.03	0.632
505.23	0.633
505.43	0.634
505.63	0.635
505.83	0.634
506.03	0.636
506.23	0.638
506.43	0.638
506.63	0.637
506.83	0.636
507.03	0.638
507.23	0.638
507.43	0.636
507.63	0.636
507.83	0.636
508.03	0.637
508.23	0.636
508.43	0.635
508.63	0.636
508.83	0.637
509.03	0.638
509.23	0.637
509.43	0.638
509.63	0.638
509.83	0.638
510.03	0.640
510.23	0.641
510.43	0.642
510.63	0.642
510.83	0.643
511.03	0.644
511.23	0.642
511.43	0.642
511.63	0.643
511.83	0.645
512.03	0.645
512.22	0.642
512.42	0.642
512.62	0.642
512.82	0.642
513.02	0.641
513.22	0.640
513.42	0.642
513.62	0.644
513.82	0.642
514.02	0.641
514.22	0.642
514.42	0.642
514.62	0.642
514.82	0.643
515.02	0.645
515.22	0.649
515.42	0.648
515.62	0.651
515.82	0.650
516.02	0.651
516.22	0.651
516.42	0.652
516.62	0.654
516.82	0.656
517.01	0.654
517.21	0.653
517.41	0.656
517.61	0.656
517.81	0.652
518.01	0.651
518.21	0.650
518.41	0.649
518.61	0.649
518.81	0.648
519.01	0.649
519.21	0.649
519.41	0.648
519.61	0.643
519.81	0.645
520.00	0.646
520.20	0.647
520.40	0.650
520.60	0.650
520.80	0.649
521.00	0.650
521.20	0.651
521.40	0.655
521.60	0.656
521.80	0.655
522.00	0.655
522.20	0.657
522.39	0.656
522.59	0.653
522.79	0.655
522.99	0.657
523.19	0.655
523.39	0.653
523.59	0.651
523.79	0.654
523.99	0.656
524.19	0.655
524.38	0.655
524.58	0.656
524.78	0.657
524.98	0.655
525.18	0.658
525.38	0.658
525.58	0.659
525.78	0.657
525.98	0.656
526.18	0.656
526.37	0.655
526.57	0.657
526.77	0.657
526.97	0.658
527.17	0.658
527.37	0.654
527.57	0.657
527.77	0.659
527.96	0.659
528.16	0.657
528.36	0.658
528.56	0.660
528.76	0.657
528.96	0.656
529.16	0.658
529.36	0.660
529.55	0.660
529.75	0.657
529.95	0.657
530.15	0.659
530.35	0.661
530.55	0.658
530.75	0.659
530.94	0.660
531.14	0.661
531.34	0.659
531.54	0.657
531.74	0.660
531.94	0.663
532.13	0.661
532.33	0.663
532.53	0.662
532.73	0.661
532.93	0.659
533.13	0.661
533.33	0.661
533.52	0.662
533.72	0.665
533.92	0.663
534.12	0.661
534.32	0.661
534.52	0.659
534.71	0.661
534.91	0.663
535.11	0.665
535.31	0.663
535.51	0.665
535.71	0.666
535.90	0.663
536.10	0.665
536.30	0.667
536.50	0.668
536.70	0.668
536.89	0.666
537.09	0.666
537.29	0.667
537.49	0.667
537.69	0.666
537.89	0.666
538.08	0.666
538.28	0.664
538.48	0.666
538.68	0.667
538.88	0.668
539.07	0.668
539.27	0.666
539.47	0.666
539.67	0.665
539.87	0.666
540.06	0.665
540.26	0.665
540.46	0.667
540.66	0.664
540.86	0.662
541.05	0.662
541.25	0.663
541.45	0.663
541.65	0.662
541.84	0.664
542.04	0.665
542.24	0.666
542.44	0.665
542.64	0.667
542.83	0.669
543.03	0.669
543.23	0.667
543.43	0.668
543.62	0.669
543.82	0.669
544.02	0.668
544.22	0.667
544.42	0.670
544.61	0.670
544.81	0.667
545.01	0.667
545.21	0.669
545.40	0.669
545.60	0.668
545.80	0.671
546.00	0.671
546.19	0.670
546.39	0.670
546.59	0.667
546.79	0.669
546.98	0.669
547.18	0.668
547.38	0.668
547.58	0.670
547.77	0.671
547.97	0.667
548.17	0.669
548.37	0.669
548.56	0.668
548.76	0.668
548.96	0.669
549.16	0.671
549.35	0.671
549.55	0.669
549.75	0.670
549.95	0.673
550.14	0.673
550.34	0.672
550.54	0.677
550.73	0.681
550.93	0.682
551.13	0.680
551.33	0.679
551.52	0.679
551.72	0.679
551.92	0.678
552.12	0.678
552.31	0.679
552.51	0.679
552.71	0.674
552.90	0.674
553.10	0.675
553.30	0.675
553.50	0.675
553.69	0.676
553.89	0.677
554.09	0.677
554.28	0.673
554.48	0.675
554.68	0.676
554.87	0.676
555.07	0.674
555.27	0.673
555.47	0.674
555.66	0.675
555.86	0.673
556.06	0.675
556.25	0.677
556.45	0.685
556.65	0.683
556.84	0.686
557.04	0.689
557.24	0.690
557.43	0.690
557.63	0.693
557.83	0.695
558.02	0.696
558.22	0.700
558.42	0.701
558.61	0.693
558.81	0.694
559.01	0.690
559.21	0.689
559.40	0.690
559.60	0.690
559.80	0.686
559.99	0.688
560.19	0.690
560.39	0.683
560.58	0.681
560.78	0.682
560.97	0.685
561.17	0.684
561.37	0.682
561.56	0.683
561.76	0.684
561.96	0.684
562.15	0.681
562.35	0.683
562.55	0.684
562.74	0.684
562.94	0.682
563.14	0.681
563.33	0.681
563.53	0.681
563.73	0.679
563.92	0.680
564.12	0.683
564.31	0.685
564.51	0.682
564.71	0.685
564.90	0.687
565.10	0.688
565.30	0.691
565.49	0.693
565.69	0.695
565.89	0.696
566.08	0.694
566.28	0.695
566.47	0.697
566.67	0.696
566.87	0.693
567.06	0.695
567.26	0.701
567.46	0.697
567.65	0.696
567.85	0.697
568.04	0.700
568.24	0.699
568.44	0.696
568.63	0.694
568.83	0.695
569.02	0.694
569.22	0.690
569.42	0.686
569.61	0.688
569.81	0.687
570.00	0.685
570.20	0.686
570.40	0.687
570.59	0.687
570.79	0.685
570.98	0.683
571.18	0.685
571.38	0.685
571.57	0.682
571.77	0.680
571.96	0.682
572.16	0.680
572.35	0.675
572.55	0.676
572.75	0.674
572.94	0.674
573.14	0.672
573.33	0.672
573.53	0.672
573.73	0.672
573.92	0.670
574.12	0.668
574.31	0.671
574.51	0.672
574.70	0.670
574.90	0.671
575.09	0.673
575.29	0.673
575.49	0.670
575.68	0.671
575.88	0.672
576.07	0.674
576.27	0.672
576.46	0.670
576.66	0.669
576.86	0.668
577.05	0.666
577.25	0.664
577.44	0.666
577.64	0.666
577.83	0.664
578.03	0.665
578.22	0.664
578.42	0.664
578.61	0.662
578.81	0.663
579.00	0.664
579.20	0.663
579.40	0.663
579.59	0.661
579.79	0.661
579.98	0.661
580.18	0.660
580.37	0.660
580.57	0.662
580.76	0.667
580.96	0.665
581.15	0.665
581.35	0.667
581.54	0.667
581.74	0.666
581.93	0.668
582.13	0.669
582.32	0.666
582.52	0.665
582.71	0.663
582.91	0.660
583.10	0.659
583.30	0.658
583.49	0.658
583.69	0.661
583.88	0.662
584.08	0.661
584.27	0.664
584.47	0.667
584.66	0.668
584.86	0.667
585.05	0.669
585.25	0.672
585.44	0.672
585.64	0.670
585.83	0.666
586.03	0.666
586.22	0.665
586.42	0.661
586.61	0.662
586.81	0.664
587.00	0.663
587.20	0.661
587.39	0.661
587.59	0.662
587.78	0.663
587.98	0.664
588.17	0.665
588.37	0.667
588.56	0.669
588.76	0.666
588.95	0.666
589.15	0.670
589.34	0.673
589.54	0.672
589.73	0.673
589.92	0.676
590.12	0.676
590.31	0.675
590.51	0.681
590.70	0.682
590.90	0.682
591.09	0.680
591.29	0.678
591.48	0.678
591.68	0.679
591.87	0.677
592.06	0.676
592.26	0.679
592.45	0.678
592.65	0.672
592.84	0.672
593.04	0.674
593.23	0.676
593.43	0.674
593.62	0.673
593.81	0.673
594.01	0.672
594.20	0.670
594.40	0.669
594.59	0.670
594.79	0.671
594.98	0.670
595.17	0.669
595.37	0.670
595.56	0.672
595.76	0.672
595.95	0.674
596.14	0.677
596.34	0.678
596.53	0.677
596.73	0.678
596.92	0.679
597.12	0.681
597.31	0.681
597.50	0.681
597.70	0.683
597.89	0.682
598.09	0.679
598.28	0.680
598.47	0.682
598.67	0.680
598.86	0.676
599.06	0.678
599.25	0.679
599.44	0.677
599.64	0.674
599.83	0.671
600.03	0.674
600.22	0.674
600.41	0.674
600.61	0.672
600.80	0.675
601.00	0.676
601.19	0.672
601.38	0.670
601.58	0.672
601.77	0.673
601.96	0.676
602.16	0.676
602.35	0.684
602.55	0.683
602.74	0.684
602.93	0.685
603.13	0.690
603.32	0.692
603.51	0.692
603.71	0.695
603.90	0.697
604.09	0.697
604.29	0.695
604.48	0.689
604.68	0.691
604.87	0.689
605.06	0.686
605.26	0.682
605.45	0.683
605.64	0.682
605.84	0.677
606.03	0.676
606.22	0.675
606.42	0.673
606.61	0.670
606.80	0.670
607.00	0.671
607.19	0.672
607.38	0.670
607.58	0.671
607.77	0.673
607.96	0.672
608.16	0.671
608.35	0.676
608.54	0.679
608.74	0.682
608.93	0.687
609.12	0.689
609.32	0.691
609.51	0.695
609.70	0.695
609.90	0.697
610.09	0.702
610.28	0.706
610.48	0.701
610.67	0.702
610.86	0.703
611.06	0.698
611.25	0.696
611.44	0.697
611.64	0.697
611.83	0.699
612.02	0.696
612.21	0.695
612.41	0.693
612.60	0.692
612.79	0.689
612.99	0.689
613.18	0.691
613.37	0.689
613.57	0.686
613.76	0.687
613.95	0.683
614.14	0.682
614.34	0.680
614.53	0.681
614.72	0.683
614.92	0.683
615.11	0.680
615.30	0.676
615.49	0.678
615.69	0.680
615.88	0.677
616.07	0.679
616.26	0.681
616.46	0.682
616.65	0.679
616.84	0.679
617.04	0.680
617.23	0.683
617.42	0.684
617.61	0.687
617.81	0.687
618.00	0.688
618.19	0.688
618.38	0.691
618.58	0.695
618.77	0.696
618.96	0.696
619.15	0.698
619.35	0.700
619.54	0.701
619.73	0.697
619.92	0.699
620.12	0.703
620.31	0.704
620.50	0.699
620.69	0.699
620.89	0.702
621.08	0.702
621.27	0.702
621.46	0.700
621.66	0.704
621.85	0.704
622.04	0.700
622.23	0.701
622.43	0.701
622.62	0.701
622.81	0.700
623.00	0.700
623.19	0.703
623.39	0.701
623.58	0.699
623.77	0.697
623.96	0.700
624.16	0.700
624.35	0.695
624.54	0.698
624.73	0.701
624.92	0.699
625.12	0.696
625.31	0.696
625.50	0.700
625.69	0.700
625.88	0.697
626.08	0.697
626.27	0.698
626.46	0.699
626.65	0.696
626.84	0.697
627.04	0.701
627.23	0.702
627.42	0.697
627.61	0.699
627.80	0.701
628.00	0.701
628.19	0.699
628.38	0.703
628.57	0.704
628.76	0.704
628.96	0.700
629.15	0.701
629.34	0.704
629.53	0.705
629.72	0.700
629.91	0.700
630.11	0.705
630.30	0.705
630.49	0.708
630.68	0.708
630.87	0.710
631.06	0.712
631.26	0.708
631.45	0.710
631.64	0.718
631.83	0.720
632.02	0.718
632.21	0.715
632.41	0.722
632.60	0.717
632.79	0.716
632.98	0.717
633.17	0.719
633.36	0.720
633.55	0.717
633.75	0.712
633.94	0.713
634.13	0.713
634.32	0.711
634.51	0.706
634.70	0.708
634.89	0.708
635.09	0.705
635.28	0.705
635.47	0.706
635.66	0.709
635.85	0.706
636.04	0.708
636.23	0.712
636.43	0.713
636.62	0.712
636.81	0.710
637.00	0.712
637.19	0.714
637.38	0.711
637.57	0.711
637.76	0.712
637.95	0.713
638.15	0.709
638.34	0.706
638.53	0.709
638.72	0.711
638.91	0.709
639.10	0.706
639.29	0.706
639.48	0.707
639.67	0.708
639.87	0.707
640.06	0.712
640.25	0.712
640.44	0.713
640.63	0.713
640.82	0.715
641.01	0.715
641.20	0.715
641.39	0.718
641.58	0.719
641.78	0.718
641.97	0.714
642.16	0.727
642.35	0.727
642.54	0.726
642.73	0.721
642.92	0.720
643.11	0.723
643.30	0.722
643.49	0.717
643.68	0.720
643.87	0.720
644.06	0.720
644.25	0.701
644.45	0.704
644.64	0.705
644.83	0.705
645.02	0.702
645.21	0.701
645.40	0.702
645.59	0.702
645.78	0.697
645.97	0.700
646.16	0.701
646.35	0.700
646.54	0.698
646.73	0.699
646.92	0.700
647.11	0.700
647.30	0.697
647.49	0.699
647.68	0.699
647.88	0.697
648.07	0.690
648.26	0.694
648.45	0.696
648.64	0.692
648.83	0.690
649.02	0.693
649.21	0.703
649.40	0.702
649.59	0.697
649.78	0.697
649.97	0.711
650.16	0.711
650.35	0.705
650.54	0.706
650.73	0.714
650.92	0.711
651.11	0.705
651.30	0.702
651.49	0.707
651.68	0.707
651.87	0.705
652.06	0.695
652.25	0.698
652.44	0.702
652.63	0.702
652.82	0.703
653.01	0.704
653.20	0.702
653.39	0.692
653.58	0.688
653.77	0.687
653.96	0.682
654.15	0.675
654.34	0.673
654.53	0.667
654.72	0.661
654.91	0.651
655.10	0.646
655.29	0.644
655.48	0.642
655.67	0.638
655.86	0.635
656.05	0.634
656.24	0.634
656.43	0.628
656.62	0.627
656.81	0.626
657.00	0.623
657.19	0.620
657.38	0.619
657.57	0.617
657.76	0.618
657.95	0.616
658.14	0.618
658.33	0.620
658.51	0.625
658.70	0.625
658.89	0.627
659.08	0.636
659.27	0.645
659.46	0.646
659.65	0.652
659.84	0.656
660.03	0.659
660.22	0.661
660.41	0.665
660.60	0.664
660.79	0.665
660.98	0.670
661.17	0.670
661.36	0.669
661.55	0.670
661.74	0.668
661.92	0.671
662.11	0.674
662.30	0.672
662.49	0.665
662.68	0.666
662.87	0.669
663.06	0.663
663.25	0.665
663.44	0.665
663.63	0.666
663.82	0.664
664.01	0.659
664.20	0.658
664.38	0.659
664.57	0.660
664.76	0.659
664.95	0.660
665.14	0.664
665.33	0.658
665.52	0.665
665.71	0.669
665.90	0.668
666.09	0.670
666.28	0.668
666.46	0.667
666.65	0.667
666.84	0.665
667.03	0.660
667.22	0.658
667.41	0.660
667.60	0.650
667.79	0.644
667.98	0.646
668.16	0.647
668.35	0.646
668.54	0.643
668.73	0.643
668.92	0.645
669.11	0.645
669.30	0.640
669.49	0.636
669.67	0.639
669.86	0.641
670.05	0.638
670.24	0.635
670.43	0.632
670.62	0.631
670.81	0.627
671.00	0.627
671.18	0.627
671.37	0.625
671.56	0.624
671.75	0.623
671.94	0.619
672.13	0.618
672.32	0.614
672.50	0.614
672.69	0.614
672.88	0.614
673.07	0.610
673.26	0.612
673.45	0.613
673.63	0.612
673.82	0.609
674.01	0.611
674.20	0.610
674.39	0.609
674.58	0.609
674.76	0.609
674.95	0.607
675.14	0.607
675.33	0.604
675.52	0.602
675.71	0.602
675.89	0.601
676.08	0.597
676.27	0.597
676.46	0.598
676.65	0.597
676.84	0.597
677.02	0.599
677.21	0.601
677.40	0.600
677.59	0.598
677.78	0.598
677.96	0.601
678.15	0.601
678.34	0.599
678.53	0.599
678.72	0.599
678.90	0.596
679.09	0.592
679.28	0.589
679.47	0.588
679.66	0.588
679.84	0.585
680.03	0.581
680.22	0.579
680.41	0.581
680.60	0.577
680.78	0.576
680.97	0.578
681.16	0.578
681.35	0.577
681.53	0.577
681.72	0.577
681.91	0.580
682.10	0.579
682.29	0.581
682.47	0.579
682.66	0.577
682.85	0.576
683.04	0.574
683.22	0.574
683.41	0.576
683.60	0.575
683.79	0.576
683.97	0.574
684.16	0.574
684.35	0.570
684.54	0.571
684.72	0.572
684.91	0.573
685.10	0.571
685.29	0.572
685.47	0.568
685.66	0.567
685.85	0.564
686.04	0.563
686.22	0.565
686.41	0.567
686.60	0.564
686.79	0.568
686.97	0.569
687.16	0.571
687.35	0.568
687.54	0.572
687.72	0.576
687.91	0.576
688.10	0.578
688.29	0.578
688.47	0.575
688.66	0.576
688.85	0.572
689.03	0.570
689.22	0.575
689.41	0.576
689.60	0.571
689.78	0.568
689.97	0.569
690.16	0.566
690.34	0.562
690.53	0.562
690.72	0.562
690.91	0.560
691.09	0.558
691.28	0.552
691.47	0.550
691.65	0.549
691.84	0.546
692.03	0.545
692.21	0.542
692.40	0.542
692.59	0.540
692.77	0.538
692.96	0.539
693.15	0.539
693.34	0.537
693.52	0.537
693.71	0.537
693.90	0.539
694.08	0.539
694.27	0.541
694.46	0.549
694.64	0.550
694.83	0.550
695.02	0.549
695.20	0.548
695.39	0.548
695.58	0.548
695.76	0.549
695.95	0.548
696.14	0.547
696.32	0.545
696.51	0.536
696.70	0.536
696.88	0.537
697.07	0.536
697.26	0.537
697.44	0.539
697.63	0.538
697.81	0.536
698.00	0.536
698.19	0.535
698.37	0.535
698.56	0.534
698.75	0.534
698.93	0.534
699.12	0.534
699.31	0.532
699.49	0.532
699.68	0.532
699.87	0.535
700.05	0.534
700.24	0.534
700.42	0.536
700.61	0.535
700.80	0.533
700.98	0.533
701.17	0.534
701.36	0.534
701.54	0.533
701.73	0.535
701.91	0.532
702.10	0.531
702.29	0.529
702.47	0.528
702.66	0.529
702.84	0.530
703.03	0.529
703.22	0.530
703.40	0.529
703.59	0.530
703.77	0.529
703.96	0.530
704.15	0.531
704.33	0.530
704.52	0.530
704.70	0.529
704.89	0.528
705.08	0.527
705.26	0.523
705.45	0.524
705.63	0.523
705.82	0.520
706.00	0.519
706.19	0.519
706.38	0.519
706.56	0.519
706.75	0.517
706.93	0.516
707.12	0.517
707.30	0.517
707.49	0.515
707.68	0.513
707.86	0.513
708.05	0.513
708.23	0.510
708.42	0.510
708.60	0.512
708.79	0.512
708.98	0.510
709.16	0.509
709.35	0.512
709.53	0.515
709.72	0.514
709.90	0.516
710.09	0.517
710.27	0.519
710.46	0.522
710.64	0.522
710.83	0.524
711.02	0.525
711.20	0.524
711.39	0.523
711.57	0.520
711.76	0.521
711.94	0.520
712.13	0.521
712.31	0.520
712.50	0.516
712.68	0.514
712.87	0.514
713.05	0.515
713.24	0.515
713.42	0.515
713.61	0.515
713.79	0.516
713.98	0.516
714.16	0.517
714.35	0.517
714.54	0.518
714.72	0.518
714.91	0.516
715.09	0.521
715.28	0.523
715.46	0.523
715.65	0.521
715.83	0.521
716.02	0.523
716.20	0.520
716.39	0.519
716.57	0.520
716.76	0.522
716.94	0.522
717.12	0.515
717.31	0.517
717.49	0.519
717.68	0.521
717.86	0.521
718.05	0.522
718.23	0.523
718.42	0.525
718.60	0.527
718.79	0.533
718.97	0.536
719.16	0.535
719.34	0.533
719.53	0.532
719.71	0.532
719.90	0.534
720.08	0.532
720.27	0.532
720.45	0.531
720.63	0.530
720.82	0.525
721.00	0.528
721.19	0.531
721.37	0.531
721.56	0.531
721.74	0.533
721.93	0.541
722.11	0.546
722.30	0.547
722.48	0.552
722.66	0.552
722.85	0.552
723.03	0.551
723.22	0.550
723.40	0.553
723.59	0.553
723.77	0.557
723.95	0.551
724.14	0.553
724.32	0.554
724.51	0.553
724.69	0.554
724.88	0.554
725.06	0.553
725.24	0.554
725.43	0.555
725.61	0.558
725.80	0.552
725.98	0.551
726.16	0.548
726.35	0.554
726.53	0.553
726.72	0.553
726.90	0.563
727.09	0.565
727.27	0.570
727.45	0.568
727.64	0.577
727.82	0.583
728.01	0.587
728.19	0.584
728.37	0.589
728.56	0.593
728.74	0.599
728.92	0.588
729.11	0.589
729.29	0.587
729.48	0.589
729.66	0.579
729.84	0.580
730.03	0.583
730.21	0.585
730.40	0.577
730.58	0.577
730.76	0.576
730.95	0.577
731.13	0.578
731.31	0.593
731.50	0.600
731.68	0.604
731.86	0.601
732.05	0.614
732.23	0.616
732.42	0.619
732.60	0.623
732.78	0.628
732.97	0.646
733.15	0.653
733.33	0.640
733.52	0.646
733.70	0.655
733.88	0.664
734.07	0.650
734.25	0.676
734.43	0.682
734.62	0.685
734.80	0.682
734.98	0.673
735.17	0.678
735.35	0.686
735.53	0.677
735.72	0.677
735.90	0.697
736.08	0.716
736.27	0.693
736.45	0.703
736.63	0.714
736.82	0.722
737.00	0.723
737.18	0.732
737.37	0.759
737.55	0.782
737.73	0.781
737.92	0.783
738.10	0.778
738.28	0.796
738.46	0.783
738.65	0.794
738.83	0.809
739.01	0.857
739.20	0.848
739.38	0.830
739.56	0.820
739.75	0.824
739.93	0.795
740.11	0.817
740.29	0.815
740.48	0.819
740.66	0.801
740.84	0.801
741.03	0.769
741.21	0.781
741.39	0.767
741.57	0.776
741.76	0.789
741.94	0.795
742.12	0.763
742.31	0.771
742.49	0.786
742.67	0.810
742.85	0.824
743.04	0.828
743.22	0.831
743.40	0.877
743.58	0.868
743.77	0.884
743.95	0.910
744.13	0.957
744.31	0.941
744.50	0.936
744.68	0.930
744.86	0.908
745.04	0.918
745.23	0.980
745.41	0.958
745.59	0.962
745.77	0.930
745.96	0.923
746.14	0.929
746.32	0.929
746.50	0.926
746.69	0.914
746.87	0.914
747.05	0.900
747.23	0.834
747.42	0.826
747.60	0.840
747.78	0.847
747.96	0.876
748.14	0.835
748.33	0.856
748.51	0.851
748.69	0.848
748.87	0.871
749.06	0.865
749.24	0.863
749.42	0.850
749.60	0.838
749.78	0.841
749.97	0.798
750.15	0.793
750.33	0.796
750.51	0.811
750.69	0.815
750.88	0.824
751.06	0.832
751.24	0.852
751.42	0.847
751.60	0.840
751.79	0.903
751.97	0.943
752.15	0.944
752.33	0.916
752.51	0.973
752.69	0.981
752.88	0.948
753.06	0.993
753.24	0.976
753.42	0.999
753.60	1.147
753.78	1.026
753.97	1.044
754.15	1.062
754.33	1.090
754.51	0.992
754.69	0.973
754.87	1.001
755.06	0.939
755.24	0.940
755.42	0.953
755.60	0.859
755.78	0.872
755.96	0.823
756.15	0.820
756.33	0.821
756.51	0.837
756.69	0.830
756.87	0.799
757.05	0.812
757.23	0.796
757.42	0.768
757.60	0.765
757.78	0.750
757.96	0.749
758.14	0.735
758.32	0.722
758.50	0.732
758.69	0.729
758.87	0.723
759.05	0.727
759.23	0.734
759.41	0.735
759.59	0.731
759.77	0.753
759.95	0.773
760.13	0.819
760.32	0.817
760.50	0.814
760.68	0.834
760.86	0.837
761.04	0.813
761.22	0.820
761.40	0.861
761.58	0.860
761.76	0.836
761.95	0.824
762.13	0.783
762.31	0.786
762.49	0.760
762.67	0.778
762.85	0.786
763.03	0.784
763.21	0.764
763.39	0.745
763.57	0.745
763.75	0.742
763.94	0.728
764.12	0.730
764.30	0.752
764.48	0.753
764.66	0.720
764.84	0.718
765.02	0.750
765.20	0.757
765.38	0.743
765.56	0.752
765.74	0.785
765.92	0.785
766.10	0.790
766.28	0.781
766.46	0.806
766.65	0.808
766.83	0.798
767.01	0.787
767.19	0.793
767.37	0.792
767.55	0.778
767.73	0.759
767.91	0.762
768.09	0.755
768.27	0.745
768.45	0.737
768.63	0.741
768.81	0.743
768.99	0.718
769.17	0.741
769.35	0.755
769.53	0.754
769.71	0.737
769.89	0.742
770.07	0.743
770.25	0.728
770.43	0.707
770.61	0.726
770.79	0.732
770.97	0.740
771.15	0.712
771.33	0.712
771.51	0.714
771.69	0.725
771.87	0.735
772.05	0.739
772.24	0.744
772.42	0.755
772.60	0.735
772.78	0.786
772.96	0.812
773.14	0.807
773.32	0.789
773.49	0.792
773.67	0.787
773.85	0.769
774.03	0.763
774.21	0.791
774.39	0.797
774.57	0.818
774.75	0.755
774.93	0.748
775.11	0.768
775.29	0.772
775.47	0.776
775.65	0.786
775.83	0.803
776.01	0.824
776.19	0.784
776.37	0.787
776.55	0.786
776.73	0.785
776.91	0.780
777.09	0.763
777.27	0.760
777.45	0.749
777.63	0.727
777.81	0.722
777.99	0.709
778.17	0.708
778.35	0.688
778.53	0.679
778.71	0.683
778.89	0.672
779.07	0.664
779.24	0.669
779.42	0.669
779.60	0.689
779.78	0.687
779.96	0.690
780.14	0.695
780.32	0.715
780.50	0.700
780.68	0.697
780.86	0.692
781.04	0.707
781.22	0.711
781.40	0.720
781.58	0.709
781.75	0.704
781.93	0.690
782.11	0.691
782.29	0.678
782.47	0.676
782.65	0.668
782.83	0.691
783.01	0.686
783.19	0.680
783.37	0.670
783.55	0.673
783.72	0.685
783.90	0.694
784.08	0.689
784.26	0.699
784.44	0.719
784.62	0.721
784.80	0.692
784.98	0.698
785.16	0.704
785.33	0.716
785.51	0.704
785.69	0.693
785.87	0.691
786.05	0.701
786.23	0.698
786.41	0.693
786.59	0.698
786.77	0.698
786.94	0.687
787.12	0.691
787.30	0.692
787.48	0.689
787.66	0.681
787.84	0.685
788.02	0.676
788.19	0.674
788.37	0.664
788.55	0.665
788.73	0.665
788.91	0.659
789.09	0.643
789.27	0.631
789.44	0.640
789.62	0.643
789.80	0.650
789.98	0.670
790.16	0.657
790.34	0.654
790.51	0.642
790.69	0.659
790.87	0.664
791.05	0.660
791.23	0.657
791.41	0.659
791.58	0.665
791.76	0.648
791.94	0.622
792.12	0.630
792.30	0.632
792.48	0.631
792.65	0.625
792.83	0.631
793.01	0.639
793.19	0.638
793.37	0.625
793.54	0.621
793.72	0.629
793.90	0.628
794.08	0.618
794.26	0.619
794.43	0.625
794.61	0.611
794.79	0.602
794.97	0.600
795.15	0.602
795.32	0.606
795.50	0.598
795.68	0.593
795.86	0.597
796.04	0.600
796.21	0.593
796.39	0.592
796.57	0.603
796.75	0.610
796.92	0.612
797.10	0.617
797.28	0.617
797.46	0.620
797.64	0.622
797.81	0.628
797.99	0.632
798.17	0.636
798.35	0.632
798.52	0.635
798.70	0.630
798.88	0.639
799.06	0.640
799.23	0.643
799.41	0.650
799.59	0.644
799.77	0.634
799.94	0.641
800.12	0.649
800.30	0.664
800.48	0.664
800.65	0.664
800.83	0.653
801.01	0.645
801.19	0.644
801.36	0.640
801.54	0.643
801.72	0.653
801.90	0.640
802.07	0.636
802.25	0.623
802.43	0.609
802.60	0.606
802.78	0.610
802.96	0.614
803.14	0.612
803.31	0.611
803.49	0.610
803.67	0.605
803.84	0.610
804.02	0.603
804.20	0.606
804.38	0.610
804.55	0.609
804.73	0.597
804.91	0.597
805.08	0.606
805.26	0.603
805.44	0.664
805.61	0.668
805.79	0.665
805.97	0.665
806.15	0.658
806.32	0.653
806.50	0.658
806.68	0.658
806.85	0.652
807.03	0.645
807.21	0.660
807.38	0.597
807.56	0.588
807.74	0.599
807.91	0.603
808.09	0.607
808.27	0.625
808.44	0.650
808.62	0.658
808.80	0.660
808.97	0.654
809.15	0.651
809.33	0.665
809.50	0.671
809.68	0.658
809.86	0.664
810.03	0.691
810.21	0.674
810.39	0.658
810.56	0.664
810.74	0.686
810.91	0.751
811.09	0.739
811.27	0.755
811.44	0.760
811.62	0.764
811.80	0.752
811.97	0.725
812.15	0.722
812.33	0.717
812.50	0.704
812.68	0.691
812.85	0.640
813.03	0.645
813.21	0.618
813.38	0.612
813.56	0.614
813.74	0.621
813.91	0.628
814.09	0.654
814.26	0.646
814.44	0.650
814.62	0.642
814.79	0.645
814.97	0.646
815.14	0.650
815.32	0.652
815.50	0.666
815.67	0.669
815.85	0.661
816.02	0.652
816.20	0.660
816.38	0.671
816.55	0.675
816.73	0.674
816.90	0.686
817.08	0.714
817.26	0.722
817.43	0.705
817.61	0.728
817.78	0.742
817.96	0.724
818.13	0.716
818.31	0.717
818.49	0.731
818.66	0.723
818.84	0.712
819.01	0.691
819.19	0.693
819.36	0.695
819.54	0.668
819.71	0.706
819.89	0.721
820.07	0.730
820.24	0.725
820.42	0.724
820.59	0.739
820.77	0.757
820.94	0.749
821.12	0.769
821.29	0.780
821.47	0.780
821.64	0.724
821.82	0.732
822.00	0.731
822.17	0.730
822.35	0.724
822.52	0.725
822.70	0.715
822.87	0.727
823.05	0.710
823.22	0.719
823.40	0.744
823.57	0.766
823.75	0.749
823.92	0.772
824.10	0.786
824.27	0.826
824.45	0.817
824.62	0.874
824.80	0.882
824.97	0.891
825.15	0.887
825.32	0.898
825.50	0.896
825.67	0.908
825.85	0.887
826.02	0.897
826.20	0.907
826.37	1.015
826.55	0.945
826.72	1.103
826.90	1.153
827.07	1.188
827.25	1.145
827.42	1.263
827.60	1.365
827.77	1.477
827.95	1.487
828.12	1.585
828.30	1.317
828.47	1.419
828.65	1.135
828.82	1.174
829.00	1.212
829.17	1.295
829.34	1.305
829.52	1.311
829.69	-0.000
829.87	-0.000
830.04	-0.000
830.22	-0.000
830.39	-0.000
830.57	-0.000
830.74	-0.000
830.92	-0.000
831.09	-0.000
831.26	-0.000
831.44	-0.000
831.61	-0.000
831.79	-0.000
831.96	-0.000
832.14	-0.000
832.31	-0.000
832.49	-0.000
832.66	-0.000
832.83	-0.000
833.01	-0.000
833.18	-0.000
833.36	-0.000
833.53	-0.000
833.70	-0.000
833.88	-0.000
834.05	-0.000
834.23	-0.000
834.40	-0.000
834.58	-0.000
834.75	-0.000
834.92	-0.000
835.10	-0.000
835.27	-0.000
835.45	-0.000
835.62	-0.000
835.79	-0.000
835.97	-0.000
836.14	-0.000
836.32	-0.000
836.49	-0.000
836.66	-0.000
836.84	-0.000
837.01	-0.000
837.18	-0.000
837.36	-0.000
837.53	-0.000
837.71	-0.000
837.88	-0.000
838.05	-0.000
838.23	-0.000
838.40	-0.000
838.58	-0.000
838.75	-0.000
838.92	-0.000
839.10	-0.000
839.27	-0.000
839.44	-0.000
839.62	-0.000
839.79	-0.000
839.96	-0.000
840.14	-0.000
840.31	-0.000
840.48	-0.000
840.66	-0.000
840.83	-0.000
841.01	-0.000
841.18	-0.000
841.35	-0.000
841.53	-0.000
841.70	-0.000
841.87	-0.000
842.05	-0.000
842.22	-0.000
842.39	-0.000
842.57	-0.000
842.74	-0.000
842.91	-0.000
843.09	-0.000
843.26	-0.000
843.43	-0.000
843.60	-0.000
843.78	-0.000
843.95	-0.000
844.12	-0.000
844.30	-0.000
844.47	-0.000
844.64	-0.000
844.82	-0.000
844.99	-0.000
845.16	-0.000
845.34	-0.000
845.51	-0.000
845.68	-0.000
845.85	-0.000
846.03	-0.000
846.20	-0.000
846.37	-0.000
846.55	-0.000
846.72	-0.000
846.89	-0.000
847.06	-0.000
847.24	-0.000
847.41	-0.000
847.58	-0.000
847.76	-0.000
847.93	-0.000
848.10	-0.000
848.27	-0.000
848.45	-0.000
848.62	-0.000
848.79	-0.000
848.97	-0.000
849.14	-0.000
849.31	-0.000
849.48	-0.000
849.66	-0.000
849.83	-0.000
850.00	-0.000
850.17	-0.000
850.35	-0.000
850.52	-0.000
850.69	-0.000
850.86	-0.000
851.04	-0.000
851.21	-0.000
851.38	-0.000
851.55	-0.000
851.72	-0.000
851.90	-0.000
852.07	-0.000
852.24	-0.000
852.41	-0.000
852.59	-0.000
852.76	-0.000
852.93	-0.000
853.10	-0.000
853.28	-0.000
853.45	-0.000
853.62	-0.000
853.79	-0.000
853.96	-0.000
854.14	-0.000
854.31	-0.000
854.48	-0.000
854.65	-0.000
854.82	-0.000
855.00	-0.000
855.17	-0.000
855.34	-0.000
855.51	-0.000
855.68	-0.000
855.86	-0.000
856.03	-0.000
856.20	-0.000
856.37	-0.000
856.54	-0.000
856.72	-0.000
856.89	-0.000
857.06	-0.000
857.23	-0.000
857.40	-0.000
857.57	-0.000
857.75	-0.000
857.92	-0.000
858.09	-0.000
858.26	-0.000
858.43	-0.000
858.60	-0.000
858.78	-0.000
858.95	-0.000
859.12	-0.000
859.29	-0.000
859.46	-0.000
859.63	-0.000
859.81	-0.000
859.98	-0.000
860.15	-0.000
860.32	-0.000
860.49	-0.000
860.66	-0.000
860.83	-0.000
861.01	-0.000
861.18	-0.000
861.35	-0.000
861.52	-0.000
861.69	-0.000
861.86	-0.000
862.03	-0.000
862.21	-0.000
862.38	-0.000
862.55	-0.000
862.72	-0.000
862.89	-0.000
863.06	-0.000
863.23	-0.000
863.40	-0.000
863.58	-0.000
863.75	-0.000
863.92	-0.000
864.09	-0.000
864.26	-0.000
864.43	-0.000
864.60	-0.000
864.77	-0.000
864.94	-0.000
865.11	-0.000
865.29	-0.000
865.46	-0.000
865.63	-0.000
865.80	-0.000
865.97	-0.000
866.14	-0.000
866.31	-0.000
866.48	-0.000
866.65	-0.000
866.82	-0.000
866.99	-0.000
867.16	-0.000
867.34	-0.000
867.51	-0.000
867.68	-0.000
867.85	-0.000
868.02	-0.000
868.19	-0.000
868.36	-0.000
868.53	-0.000
868.70	-0.000
868.87	-0.000
869.04	-0.000
869.21	-0.000
869.38	-0.000
869.55	-0.000
869.72	-0.000
869.89	-0.000
870.06	-0.000
870.24	-0.000
870.41	-0.000
870.58	-0.000
870.75	-0.000
870.92	-0.000
871.09	-0.000
871.26	-0.000
871.43	-0.000
871.60	-0.000
871.77	-0.000
871.94	-0.000
872.11	-0.000
872.28	-0.000
872.45	-0.000
872.62	-0.000
872.79	-0.000
872.96	-0.000
873.13	-0.000
873.30	-0.000
873.47	-0.000
873.64	-0.000
873.81	-0.000
873.98	-0.000
874.15	-0.000
874.32	-0.000
874.49	-0.000
874.66	-0.000
874.83	-0.000
875.00	-0.000
875.17	-0.000
875.34	-0.000
875.51	-0.000
875.68	-0.000
875.85	-0.000
876.02	-0.000
876.19	-0.000
876.36	-0.000
876.53	-0.000
876.70	-0.000
876.87	-0.000
877.04	-0.000
877.21	-0.000
877.38	-0.000
877.55	-0.000
877.72	-0.000
877.89	-0.000
878.06	-0.000
878.23	-0.000
878.39	-0.000
878.56	-0.000
878.73	-0.000
878.90	-0.000
879.07	-0.000
879.24	-0.000
879.41	-0.000
879.58	-0.000
879.75	-0.000
879.92	-0.000
880.09	-0.000
880.26	-0.000
880.43	-0.000
880.60	-0.000
880.77	-0.000
880.94	-0.000
881.11	-0.000
881.27	-0.000
881.44	-0.000
881.61	-0.000
881.78	-0.000
881.95	-0.000
882.12	-0.000
882.29	-0.000
882.46	-0.000
882.63	-0.000
882.80	-0.000
882.97	-0.000
883.14	-0.000
883.30	-0.000
883.47	-0.000
883.64	-0.000
883.81	-0.000
883.98	-0.000
884.15	-0.000
884.32	-0.000
884.49	-0.000
884.66	-0.000
884.82	-0.000
884.99	-0.000
885.16	-0.000
885.33	-0.000
885.50	-0.000
885.67	-0.000
885.84	-0.000
886.01	-0.000
886.17	-0.000
886.34	-0.000
886.51	-0.000
886.68	-0.000
886.85	-0.000
887.02	-0.000
887.19	-0.000
887.36	-0.000
887.52	-0.000
887.69	-0.000
887.86	-0.000
888.03	-0.000
888.20	-0.000
888.37	-0.000
888.54	-0.000
888.70	-0.000
888.87	-0.000
889.04	-0.000
889.21	-0.000
889.38	-0.000
889.55	-0.000
889.71	-0.000
889.88	-0.000
890.05	-0.000
890.22	-0.000
890.39	-0.000
>>>>>End Processed Spectral Data<<<<<
