SpectraSuite Data File
++++++++++++++++++++++++++++++++++++
Date: Fri Jun 19 12:35:31 CEST 2015
User: introlabs
Dark Spectrum Present: Yes
Reference Spectrum Present: Yes
Number of Sampled Component Spectra: 1
Spectrometers: USB4H08886
Integration Time (usec): 745692 (USB4H08886)
Spectra Averaged: 5 (USB4H08886)
Boxcar Smoothing: 5 (USB4H08886)
Correct for Electrical Dark: Yes (USB4H08886)
Strobe/Lamp Enabled: No (USB4H08886)
Correct for Detector Non-linearity: Yes (USB4H08886)
Correct for Stray Light: Yes (USB4H08886)
Number of Pixels in Processed Spectrum: 3648
>>>>>Begin Processed Spectral Data<<<<<
178.14	-0.000
178.36	-0.000
178.57	-0.000
178.79	-0.000
179.01	-0.000
179.22	-0.000
179.44	-0.000
179.65	-0.000
179.87	-0.000
180.08	-0.000
180.30	-0.000
180.52	-0.000
180.73	-0.000
180.95	-0.000
181.16	-0.000
181.38	-0.000
181.59	-0.000
181.81	-0.000
182.03	-0.000
182.24	-0.000
182.46	-0.000
182.67	-0.000
182.89	-0.000
183.10	-0.000
183.32	-0.000
183.54	-0.000
183.75	-0.000
183.97	-0.000
184.18	-0.000
184.40	-0.000
184.61	-0.000
184.83	-0.000
185.04	-0.000
185.26	-0.000
185.48	-0.000
185.69	-0.000
185.91	-0.000
186.12	-0.000
186.34	-0.000
186.55	-0.000
186.77	-0.000
186.98	-0.000
187.20	-0.000
187.42	-0.000
187.63	-0.000
187.85	-0.000
188.06	-0.000
188.28	-0.000
188.49	-0.000
188.71	-0.000
188.92	-0.000
189.14	-0.000
189.36	-0.000
189.57	-0.000
189.79	-0.000
190.00	-0.000
190.22	-0.000
190.43	-0.000
190.65	-0.000
190.86	-0.000
191.08	-0.000
191.29	-0.000
191.51	-0.000
191.72	-0.000
191.94	-0.000
192.16	-0.000
192.37	-0.000
192.59	-0.000
192.80	-0.000
193.02	-0.000
193.23	-0.000
193.45	-0.000
193.66	-0.000
193.88	-0.000
194.09	-0.000
194.31	-0.000
194.52	-0.000
194.74	-0.000
194.95	-0.000
195.17	-0.000
195.38	-0.000
195.60	-0.000
195.81	-0.000
196.03	-0.000
196.25	-0.000
196.46	-0.000
196.68	-0.000
196.89	-0.000
197.11	-0.000
197.32	-0.000
197.54	-0.000
197.75	-0.000
197.97	-0.000
198.18	-0.000
198.40	-0.000
198.61	-0.000
198.83	-0.000
199.04	-0.000
199.26	-0.000
199.47	-0.000
199.69	-0.000
199.90	-0.000
200.12	-0.000
200.33	-0.000
200.55	-0.000
200.76	-0.000
200.98	-0.000
201.19	-0.000
201.41	-0.000
201.62	-0.000
201.84	-0.000
202.05	-0.000
202.27	-0.000
202.48	-0.000
202.70	-0.000
202.91	-0.000
203.13	-0.000
203.34	-0.000
203.56	-0.000
203.77	-0.000
203.99	-0.000
204.20	-0.000
204.42	-0.000
204.63	-0.000
204.85	-0.000
205.06	-0.000
205.28	-0.000
205.49	-0.000
205.71	-0.000
205.92	-0.000
206.14	-0.000
206.35	-0.000
206.56	-0.000
206.78	-0.000
206.99	-0.000
207.21	-0.000
207.42	-0.000
207.64	-0.000
207.85	-0.000
208.07	-0.000
208.28	-0.000
208.50	-0.000
208.71	-0.000
208.93	-0.000
209.14	-0.000
209.36	-0.000
209.57	-0.000
209.79	-0.000
210.00	-0.000
210.22	-0.000
210.43	-0.000
210.64	-0.000
210.86	-0.000
211.07	-0.000
211.29	-0.000
211.50	-0.000
211.72	-0.000
211.93	-0.000
212.15	-0.000
212.36	-0.000
212.58	-0.000
212.79	-0.000
213.01	-0.000
213.22	-0.000
213.43	-0.000
213.65	-0.000
213.86	-0.000
214.08	-0.000
214.29	-0.000
214.51	-0.000
214.72	-0.000
214.94	-0.000
215.15	-0.000
215.36	-0.000
215.58	-0.000
215.79	-0.000
216.01	-0.000
216.22	-0.000
216.44	-0.000
216.65	-0.000
216.87	-0.000
217.08	-0.000
217.29	-0.000
217.51	-0.000
217.72	-0.000
217.94	-0.000
218.15	-0.000
218.37	-0.000
218.58	-0.000
218.80	-0.000
219.01	-0.000
219.22	-0.000
219.44	-0.000
219.65	-0.000
219.87	-0.000
220.08	-0.000
220.30	-0.000
220.51	-0.000
220.72	-0.000
220.94	-0.000
221.15	-0.000
221.37	-0.000
221.58	-0.000
221.79	-0.000
222.01	-0.000
222.22	-0.000
222.44	-0.000
222.65	-0.000
222.87	-0.000
223.08	-0.000
223.29	-0.000
223.51	-0.000
223.72	-0.000
223.94	-0.000
224.15	-0.000
224.36	-0.000
224.58	-0.000
224.79	-0.000
225.01	-0.000
225.22	-0.000
225.44	-0.000
225.65	-0.000
225.86	-0.000
226.08	-0.000
226.29	-0.000
226.51	-0.000
226.72	-0.000
226.93	-0.000
227.15	-0.000
227.36	-0.000
227.58	-0.000
227.79	-0.000
228.00	-0.000
228.22	-0.000
228.43	-0.000
228.65	-0.000
228.86	-0.000
229.07	-0.000
229.29	-0.000
229.50	-0.000
229.72	-0.000
229.93	-0.000
230.14	-0.000
230.36	-0.000
230.57	-0.000
230.78	-0.000
231.00	-0.000
231.21	-0.000
231.43	-0.000
231.64	-0.000
231.85	-0.000
232.07	-0.000
232.28	-0.000
232.50	-0.000
232.71	-0.000
232.92	-0.000
233.14	-0.000
233.35	-0.000
233.56	-0.000
233.78	-0.000
233.99	-0.000
234.21	-0.000
234.42	-0.000
234.63	-0.000
234.85	-0.000
235.06	-0.000
235.27	-0.000
235.49	-0.000
235.70	-0.000
235.91	-0.000
236.13	-0.000
236.34	-0.000
236.56	-0.000
236.77	-0.000
236.98	-0.000
237.20	-0.000
237.41	-0.000
237.62	-0.000
237.84	-0.000
238.05	-0.000
238.26	-0.000
238.48	-0.000
238.69	-0.000
238.91	-0.000
239.12	-0.000
239.33	-0.000
239.55	-0.000
239.76	-0.000
239.97	-0.000
240.19	-0.000
240.40	-0.000
240.61	-0.000
240.83	-0.000
241.04	-0.000
241.25	-0.000
241.47	-0.000
241.68	-0.000
241.89	-0.000
242.11	-0.000
242.32	-0.000
242.53	-0.000
242.75	-0.000
242.96	-0.000
243.17	-0.000
243.39	-0.000
243.60	-0.000
243.81	-0.000
244.03	-0.000
244.24	-0.000
244.45	-0.000
244.67	-0.000
244.88	-0.000
245.09	-0.000
245.31	-0.000
245.52	-0.000
245.73	-0.000
245.95	-0.000
246.16	-0.000
246.37	-0.000
246.59	-0.000
246.80	-0.000
247.01	-0.000
247.23	-0.000
247.44	-0.000
247.65	-0.000
247.87	-0.000
248.08	-0.000
248.29	-0.000
248.51	-0.000
248.72	-0.000
248.93	-0.000
249.15	-0.000
249.36	-0.000
249.57	-0.000
249.78	-0.000
250.00	-0.000
250.21	-0.000
250.42	-0.000
250.64	-0.000
250.85	-0.000
251.06	-0.000
251.28	-0.000
251.49	-0.000
251.70	-0.000
251.92	-0.000
252.13	-0.000
252.34	-0.000
252.55	-0.000
252.77	-0.000
252.98	-0.000
253.19	-0.000
253.41	-0.000
253.62	-0.000
253.83	-0.000
254.05	-0.000
254.26	-0.000
254.47	-0.000
254.68	-0.000
254.90	-0.000
255.11	-0.000
255.32	-0.000
255.54	-0.000
255.75	-0.000
255.96	-0.000
256.17	-0.000
256.39	-0.000
256.60	-0.000
256.81	-0.000
257.03	-0.000
257.24	-0.000
257.45	-0.000
257.66	-0.000
257.88	-0.000
258.09	-0.000
258.30	-0.000
258.51	-0.000
258.73	-0.000
258.94	-0.000
259.15	-0.000
259.37	-0.000
259.58	-0.000
259.79	-0.000
260.00	-0.000
260.22	-0.000
260.43	-0.000
260.64	-0.000
260.85	-0.000
261.07	-0.000
261.28	-0.000
261.49	-0.000
261.71	-0.000
261.92	-0.000
262.13	-0.000
262.34	-0.000
262.56	-0.000
262.77	-0.000
262.98	-0.000
263.19	-0.000
263.41	-0.000
263.62	-0.000
263.83	-0.000
264.04	-0.000
264.26	-0.000
264.47	-0.000
264.68	-0.000
264.89	-0.000
265.11	-0.000
265.32	-0.000
265.53	-0.000
265.74	-0.000
265.96	-0.000
266.17	-0.000
266.38	-0.000
266.59	-0.000
266.81	-0.000
267.02	-0.000
267.23	-0.000
267.44	-0.000
267.65	-0.000
267.87	-0.000
268.08	-0.000
268.29	-0.000
268.50	-0.000
268.72	-0.000
268.93	-0.000
269.14	-0.000
269.35	-0.000
269.57	-0.000
269.78	-0.000
269.99	-0.000
270.20	-0.000
270.41	-0.000
270.63	-0.000
270.84	-0.000
271.05	-0.000
271.26	-0.000
271.48	-0.000
271.69	-0.000
271.90	-0.000
272.11	-0.000
272.32	-0.000
272.54	-0.000
272.75	-0.000
272.96	-0.000
273.17	-0.000
273.39	-0.000
273.60	-0.000
273.81	-0.000
274.02	-0.000
274.23	-0.000
274.45	-0.000
274.66	-0.000
274.87	-0.000
275.08	-0.000
275.29	-0.000
275.51	-0.000
275.72	-0.000
275.93	-0.000
276.14	-0.000
276.35	-0.000
276.57	-0.000
276.78	-0.000
276.99	-0.000
277.20	-0.000
277.41	-0.000
277.63	-0.000
277.84	-0.000
278.05	-0.000
278.26	-0.000
278.47	-0.000
278.69	-0.000
278.90	-0.000
279.11	-0.000
279.32	-0.000
279.53	-0.000
279.74	-0.000
279.96	-0.000
280.17	-0.000
280.38	-0.000
280.59	-0.000
280.80	-0.000
281.02	-0.000
281.23	-0.000
281.44	-0.000
281.65	-0.000
281.86	-0.000
282.07	-0.000
282.29	-0.000
282.50	-0.000
282.71	-0.000
282.92	-0.000
283.13	-0.000
283.35	-0.000
283.56	-0.000
283.77	-0.000
283.98	-0.000
284.19	-0.000
284.40	-0.000
284.62	-0.000
284.83	-0.000
285.04	-0.000
285.25	-0.000
285.46	-0.000
285.67	-0.000
285.88	-0.000
286.10	-0.000
286.31	-0.000
286.52	-0.000
286.73	-0.000
286.94	-0.000
287.15	-0.000
287.37	-0.000
287.58	-0.000
287.79	-0.000
288.00	-0.000
288.21	-0.000
288.42	-0.000
288.63	-0.000
288.85	-0.000
289.06	-0.000
289.27	-0.000
289.48	-0.000
289.69	-0.000
289.90	-0.000
290.11	-0.000
290.33	-0.000
290.54	-0.000
290.75	-0.000
290.96	-0.000
291.17	-0.000
291.38	-0.000
291.59	-0.000
291.81	-0.000
292.02	-0.000
292.23	-0.000
292.44	-0.000
292.65	-0.000
292.86	-0.000
293.07	-0.000
293.28	-0.000
293.50	-0.000
293.71	-0.000
293.92	-0.000
294.13	-0.000
294.34	-0.000
294.55	-0.000
294.76	-0.000
294.97	-0.000
295.19	-0.000
295.40	-0.000
295.61	-0.000
295.82	-0.000
296.03	2.413
296.24	2.888
296.45	1.897
296.66	1.625
296.87	1.636
297.09	1.705
297.30	1.834
297.51	1.557
297.72	1.517
297.93	1.596
298.14	1.570
298.35	1.530
298.56	1.509
298.77	1.606
298.99	1.584
299.20	1.553
299.41	1.531
299.62	1.513
299.83	1.504
300.04	1.457
300.25	1.452
300.46	1.494
300.67	1.466
300.88	1.414
301.10	1.418
301.31	1.483
301.52	1.429
301.73	1.380
301.94	1.377
302.15	1.399
302.36	1.356
302.57	1.297
302.78	1.306
302.99	1.342
303.20	1.358
303.41	1.279
303.63	1.264
303.84	1.275
304.05	1.266
304.26	1.217
304.47	1.224
304.68	1.235
304.89	1.225
305.10	1.181
305.31	1.174
305.52	1.211
305.73	1.205
305.94	1.169
306.15	1.165
306.37	1.191
306.58	1.196
306.79	1.164
307.00	1.178
307.21	1.213
307.42	1.207
307.63	1.174
307.84	1.146
308.05	1.181
308.26	1.178
308.47	1.155
308.68	1.151
308.89	1.154
309.10	1.152
309.31	1.115
309.52	1.113
309.73	1.129
309.95	1.119
310.16	1.094
310.37	1.084
310.58	1.101
310.79	1.099
311.00	1.092
311.21	1.093
311.42	1.099
311.63	1.096
311.84	1.072
312.05	1.072
312.26	1.096
312.47	1.106
312.68	1.083
312.89	1.070
313.10	1.079
313.31	1.056
313.52	1.055
313.73	1.057
313.94	1.062
314.15	1.050
314.36	1.026
314.57	1.019
314.78	1.009
314.99	1.005
315.21	0.992
315.42	0.995
315.63	1.009
315.84	0.988
316.05	0.972
316.26	0.979
316.47	0.996
316.68	0.993
316.89	0.972
317.10	0.989
317.31	0.997
317.52	0.998
317.73	0.979
317.94	0.977
318.15	1.016
318.36	1.015
318.57	0.997
318.78	0.988
318.99	1.020
319.20	1.019
319.41	0.988
319.62	0.988
319.83	0.999
320.04	0.994
320.25	0.980
320.46	0.951
320.67	0.956
320.88	0.954
321.09	0.940
321.30	0.927
321.51	0.941
321.72	0.940
321.93	0.924
322.14	0.920
322.35	0.946
322.56	0.948
322.77	0.935
322.98	0.944
323.19	0.952
323.40	0.957
323.61	0.937
323.82	0.932
324.03	0.939
324.24	0.937
324.45	0.924
324.66	0.906
324.87	0.904
325.08	0.904
325.29	0.886
325.50	0.885
325.71	0.890
325.92	0.898
326.13	0.885
326.34	0.884
326.55	0.892
326.76	0.889
326.97	0.880
327.18	0.874
327.39	0.898
327.60	0.898
327.80	0.892
328.01	0.890
328.22	0.890
328.43	0.894
328.64	0.883
328.85	0.886
329.06	0.890
329.27	0.888
329.48	0.883
329.69	0.866
329.90	0.877
330.11	0.871
330.32	0.864
330.53	0.857
330.74	0.860
330.95	0.858
331.16	0.844
331.37	0.850
331.58	0.852
331.79	0.851
332.00	0.842
332.21	0.835
332.42	0.840
332.63	0.832
332.83	0.827
333.04	0.828
333.25	0.842
333.46	0.841
333.67	0.829
333.88	0.833
334.09	0.844
334.30	0.841
334.51	0.832
334.72	0.829
334.93	0.833
335.14	0.832
335.35	0.823
335.56	0.819
335.77	0.827
335.98	0.824
336.18	0.818
336.39	0.810
336.60	0.815
336.81	0.814
337.02	0.812
337.23	0.816
337.44	0.821
337.65	0.822
337.86	0.812
338.07	0.809
338.28	0.815
338.49	0.813
338.70	0.805
338.91	0.814
339.11	0.820
339.32	0.816
339.53	0.803
339.74	0.801
339.95	0.800
340.16	0.799
340.37	0.789
340.58	0.787
340.79	0.792
341.00	0.792
341.21	0.780
341.41	0.781
341.62	0.784
341.83	0.785
342.04	0.779
342.25	0.789
342.46	0.794
342.67	0.793
342.88	0.786
343.09	0.785
343.30	0.793
343.50	0.796
343.71	0.786
343.92	0.785
344.13	0.790
344.34	0.791
344.55	0.775
344.76	0.775
344.97	0.781
345.18	0.780
345.38	0.775
345.59	0.769
345.80	0.770
346.01	0.768
346.22	0.763
346.43	0.758
346.64	0.766
346.85	0.765
347.06	0.756
347.26	0.757
347.47	0.762
347.68	0.758
347.89	0.754
348.10	0.750
348.31	0.757
348.52	0.757
348.73	0.755
348.93	0.751
349.14	0.755
349.35	0.755
349.56	0.747
349.77	0.742
349.98	0.750
350.19	0.749
350.39	0.744
350.60	0.740
350.81	0.755
351.02	0.755
351.23	0.750
351.44	0.753
351.65	0.757
351.86	0.756
352.06	0.755
352.27	0.754
352.48	0.756
352.69	0.756
352.90	0.751
353.11	0.739
353.31	0.745
353.52	0.742
353.73	0.733
353.94	0.735
354.15	0.741
354.36	0.740
354.57	0.733
354.77	0.735
354.98	0.735
355.19	0.733
355.40	0.731
355.61	0.737
355.82	0.742
356.02	0.742
356.23	0.735
356.44	0.736
356.65	0.740
356.86	0.740
357.07	0.733
357.27	0.736
357.48	0.740
357.69	0.736
357.90	0.720
358.11	0.717
358.32	0.722
358.52	0.724
358.73	0.714
358.94	0.717
359.15	0.722
359.36	0.723
359.56	0.718
359.77	0.716
359.98	0.724
360.19	0.725
360.40	0.721
360.61	0.722
360.81	0.722
361.02	0.723
361.23	0.713
361.44	0.713
361.65	0.714
361.85	0.713
362.06	0.711
362.27	0.712
362.48	0.713
362.69	0.715
362.89	0.708
363.10	0.709
363.31	0.715
363.52	0.719
363.73	0.713
363.93	0.713
364.14	0.716
364.35	0.718
364.56	0.708
364.77	0.710
364.97	0.713
365.18	0.714
365.39	0.709
365.60	0.706
365.81	0.708
366.01	0.708
366.22	0.704
366.43	0.704
366.64	0.706
366.84	0.712
367.05	0.708
367.26	0.707
367.47	0.710
367.68	0.710
367.88	0.706
368.09	0.705
368.30	0.708
368.51	0.708
368.71	0.707
368.92	0.712
369.13	0.710
369.34	0.709
369.55	0.707
369.75	0.707
369.96	0.714
370.17	0.714
370.38	0.710
370.58	0.709
370.79	0.715
371.00	0.712
371.21	0.703
371.41	0.709
371.62	0.714
371.83	0.710
372.04	0.707
372.24	0.699
372.45	0.702
372.66	0.703
372.87	0.700
373.07	0.697
373.28	0.699
373.49	0.702
373.70	0.692
373.90	0.691
374.11	0.701
374.32	0.700
374.53	0.699
374.73	0.700
374.94	0.703
375.15	0.702
375.36	0.699
375.56	0.707
375.77	0.708
375.98	0.708
376.19	0.705
376.39	0.699
376.60	0.703
376.81	0.703
377.02	0.699
377.22	0.698
377.43	0.699
377.64	0.698
377.84	0.689
378.05	0.693
378.26	0.700
378.47	0.699
378.67	0.695
378.88	0.693
379.09	0.693
379.30	0.694
379.50	0.692
379.71	0.694
379.92	0.698
380.12	0.697
380.33	0.688
380.54	0.684
380.75	0.692
380.95	0.691
381.16	0.689
381.37	0.689
381.57	0.691
381.78	0.692
381.99	0.691
382.20	0.690
382.40	0.693
382.61	0.693
382.82	0.689
383.02	0.683
383.23	0.686
383.44	0.687
383.64	0.685
383.85	0.687
384.06	0.690
384.27	0.688
384.47	0.685
384.68	0.685
384.89	0.692
385.09	0.691
385.30	0.690
385.51	0.689
385.71	0.692
385.92	0.692
386.13	0.690
386.33	0.692
386.54	0.693
386.75	0.693
386.95	0.688
387.16	0.683
387.37	0.687
387.58	0.686
387.78	0.683
387.99	0.681
388.20	0.683
388.40	0.680
388.61	0.676
388.82	0.679
389.02	0.682
389.23	0.682
389.44	0.680
389.64	0.680
389.85	0.691
390.06	0.691
390.26	0.690
390.47	0.689
390.68	0.692
390.88	0.690
391.09	0.685
391.30	0.683
391.50	0.684
391.71	0.684
391.92	0.681
392.12	0.674
392.33	0.675
392.53	0.674
392.74	0.674
392.95	0.673
393.15	0.676
393.36	0.678
393.57	0.675
393.77	0.678
393.98	0.679
394.19	0.679
394.39	0.677
394.60	0.678
394.81	0.681
395.01	0.679
395.22	0.676
395.43	0.677
395.63	0.681
395.84	0.682
396.04	0.677
396.25	0.679
396.46	0.682
396.66	0.680
396.87	0.677
397.08	0.673
397.28	0.676
397.49	0.677
397.69	0.673
397.90	0.669
398.11	0.671
398.31	0.671
398.52	0.667
398.73	0.668
398.93	0.668
399.14	0.666
399.34	0.665
399.55	0.666
399.76	0.666
399.96	0.667
400.17	0.664
400.37	0.662
400.58	0.669
400.79	0.670
400.99	0.668
401.20	0.673
401.41	0.676
401.61	0.676
401.82	0.680
402.02	0.680
402.23	0.681
402.44	0.681
402.64	0.681
402.85	0.675
403.05	0.674
403.26	0.673
403.47	0.667
403.67	0.666
403.88	0.667
404.08	0.661
404.29	0.659
404.50	0.658
404.70	0.659
404.91	0.658
405.11	0.655
405.32	0.655
405.52	0.655
405.73	0.655
405.94	0.653
406.14	0.655
406.35	0.658
406.55	0.657
406.76	0.655
406.97	0.656
407.17	0.659
407.38	0.658
407.58	0.656
407.79	0.659
407.99	0.662
408.20	0.662
408.41	0.657
408.61	0.656
408.82	0.658
409.02	0.657
409.23	0.654
409.43	0.654
409.64	0.655
409.84	0.655
410.05	0.650
410.26	0.649
410.46	0.649
410.67	0.649
410.87	0.650
411.08	0.651
411.28	0.653
411.49	0.654
411.69	0.652
411.90	0.653
412.11	0.655
412.31	0.656
412.52	0.655
412.72	0.655
412.93	0.656
413.13	0.655
413.34	0.651
413.54	0.653
413.75	0.655
413.95	0.654
414.16	0.651
414.37	0.653
414.57	0.654
414.78	0.657
414.98	0.654
415.19	0.655
415.39	0.653
415.60	0.655
415.80	0.654
416.01	0.652
416.21	0.655
416.42	0.655
416.62	0.651
416.83	0.650
417.03	0.650
417.24	0.651
417.44	0.648
417.65	0.648
417.86	0.648
418.06	0.646
418.27	0.644
418.47	0.645
418.68	0.646
418.88	0.647
419.09	0.645
419.29	0.645
419.50	0.646
419.70	0.646
419.91	0.644
420.11	0.643
420.32	0.646
420.52	0.646
420.73	0.645
420.93	0.646
421.14	0.648
421.34	0.647
421.55	0.644
421.75	0.644
421.96	0.646
422.16	0.646
422.37	0.644
422.57	0.641
422.78	0.643
422.98	0.640
423.19	0.637
423.39	0.635
423.60	0.639
423.80	0.641
424.01	0.639
424.21	0.642
424.42	0.643
424.62	0.643
424.83	0.642
425.03	0.642
425.23	0.645
425.44	0.646
425.64	0.645
425.85	0.644
426.05	0.646
426.26	0.646
426.46	0.642
426.67	0.641
426.87	0.646
427.08	0.647
427.28	0.644
427.49	0.645
427.69	0.646
427.90	0.645
428.10	0.643
428.31	0.642
428.51	0.644
428.71	0.643
428.92	0.644
429.12	0.641
429.33	0.643
429.53	0.647
429.74	0.650
429.94	0.650
430.15	0.651
430.35	0.651
430.56	0.648
430.76	0.647
430.96	0.649
431.17	0.647
431.37	0.644
431.58	0.642
431.78	0.640
431.99	0.634
432.19	0.635
432.40	0.637
432.60	0.639
432.80	0.641
433.01	0.639
433.21	0.639
433.42	0.641
433.62	0.641
433.83	0.640
434.03	0.642
434.23	0.645
434.44	0.645
434.64	0.642
434.85	0.646
435.05	0.647
435.26	0.648
435.46	0.646
435.66	0.647
435.87	0.647
436.07	0.647
436.28	0.643
436.48	0.640
436.69	0.640
436.89	0.640
437.09	0.635
437.30	0.634
437.50	0.635
437.71	0.647
437.91	0.645
438.11	0.647
438.32	0.651
438.52	0.652
438.73	0.650
438.93	0.649
439.13	0.650
439.34	0.653
439.54	0.651
439.75	0.650
439.95	0.641
440.15	0.645
440.36	0.644
440.56	0.642
440.77	0.643
440.97	0.643
441.17	0.642
441.38	0.643
441.58	0.641
441.79	0.640
441.99	0.639
442.19	0.639
442.40	0.637
442.60	0.637
442.81	0.634
443.01	0.634
443.21	0.636
443.42	0.635
443.62	0.634
443.82	0.634
444.03	0.636
444.23	0.636
444.44	0.636
444.64	0.635
444.84	0.636
445.05	0.636
445.25	0.634
445.45	0.635
445.66	0.638
445.86	0.637
446.06	0.638
446.27	0.638
446.47	0.641
446.68	0.639
446.88	0.638
447.08	0.637
447.29	0.639
447.49	0.639
447.69	0.638
447.90	0.637
448.10	0.642
448.30	0.639
448.51	0.640
448.71	0.638
448.91	0.640
449.12	0.639
449.32	0.640
449.52	0.639
449.73	0.644
449.93	0.643
450.14	0.643
450.34	0.642
450.54	0.644
450.75	0.641
450.95	0.641
451.15	0.640
451.36	0.643
451.56	0.641
451.76	0.640
451.97	0.637
452.17	0.638
452.37	0.636
452.58	0.633
452.78	0.633
452.98	0.636
453.19	0.636
453.39	0.636
453.59	0.635
453.79	0.637
454.00	0.637
454.20	0.635
454.40	0.636
454.61	0.639
454.81	0.640
455.01	0.638
455.22	0.639
455.42	0.641
455.62	0.638
455.83	0.638
456.03	0.640
456.23	0.642
456.44	0.643
456.64	0.642
456.84	0.642
457.04	0.642
457.25	0.642
457.45	0.638
457.65	0.638
457.86	0.640
458.06	0.639
458.26	0.634
458.47	0.633
458.67	0.635
458.87	0.635
459.07	0.632
459.28	0.635
459.48	0.637
459.68	0.637
459.89	0.636
460.09	0.635
460.29	0.636
460.49	0.638
460.70	0.637
460.90	0.637
461.10	0.638
461.31	0.637
461.51	0.634
461.71	0.635
461.91	0.637
462.12	0.637
462.32	0.636
462.52	0.637
462.72	0.639
462.93	0.640
463.13	0.638
463.33	0.639
463.53	0.641
463.74	0.640
463.94	0.636
464.14	0.636
464.35	0.639
464.55	0.639
464.75	0.636
464.95	0.634
465.16	0.636
465.36	0.634
465.56	0.633
465.76	0.632
465.97	0.633
466.17	0.634
466.37	0.631
466.57	0.632
466.78	0.633
466.98	0.634
467.18	0.632
467.38	0.630
467.59	0.633
467.79	0.635
467.99	0.634
468.19	0.635
468.39	0.638
468.60	0.639
468.80	0.637
469.00	0.638
469.20	0.640
469.41	0.640
469.61	0.639
469.81	0.639
470.01	0.639
470.22	0.639
470.42	0.637
470.62	0.635
470.82	0.638
471.02	0.637
471.23	0.634
471.43	0.634
471.63	0.637
471.83	0.636
472.04	0.634
472.24	0.632
472.44	0.638
472.64	0.638
472.84	0.635
473.05	0.634
473.25	0.638
473.45	0.637
473.65	0.634
473.85	0.635
474.06	0.637
474.26	0.637
474.46	0.638
474.66	0.635
474.86	0.636
475.07	0.636
475.27	0.634
475.47	0.632
475.67	0.633
475.87	0.636
476.08	0.632
476.28	0.633
476.48	0.634
476.68	0.633
476.88	0.631
477.09	0.632
477.29	0.634
477.49	0.635
477.69	0.633
477.89	0.634
478.09	0.633
478.30	0.635
478.50	0.632
478.70	0.632
478.90	0.632
479.10	0.634
479.31	0.635
479.51	0.633
479.71	0.633
479.91	0.633
480.11	0.632
480.31	0.632
480.52	0.632
480.72	0.631
480.92	0.630
481.12	0.629
481.32	0.627
481.52	0.625
481.72	0.625
481.93	0.628
482.13	0.630
482.33	0.629
482.53	0.628
482.73	0.628
482.93	0.629
483.14	0.629
483.34	0.628
483.54	0.629
483.74	0.629
483.94	0.627
484.14	0.623
484.34	0.623
484.55	0.624
484.75	0.624
484.95	0.622
485.15	0.622
485.35	0.623
485.55	0.622
485.75	0.620
485.96	0.621
486.16	0.623
486.36	0.623
486.56	0.621
486.76	0.621
486.96	0.622
487.16	0.622
487.36	0.620
487.57	0.619
487.77	0.620
487.97	0.621
488.17	0.619
488.37	0.618
488.57	0.619
488.77	0.619
488.97	0.617
489.18	0.616
489.38	0.619
489.58	0.620
489.78	0.620
489.98	0.619
490.18	0.619
490.38	0.620
490.58	0.619
490.78	0.619
490.98	0.621
491.19	0.622
491.39	0.621
491.59	0.619
491.79	0.622
491.99	0.622
492.19	0.622
492.39	0.625
492.59	0.625
492.79	0.627
492.99	0.627
493.20	0.627
493.40	0.627
493.60	0.628
493.80	0.626
494.00	0.624
494.20	0.626
494.40	0.625
494.60	0.622
494.80	0.626
495.00	0.626
495.20	0.624
495.40	0.622
495.61	0.624
495.81	0.625
496.01	0.628
496.21	0.629
496.41	0.628
496.61	0.629
496.81	0.628
497.01	0.623
497.21	0.622
497.41	0.624
497.61	0.624
497.81	0.621
498.01	0.621
498.21	0.619
498.41	0.617
498.61	0.617
498.82	0.618
499.02	0.621
499.22	0.621
499.42	0.621
499.62	0.622
499.82	0.623
500.02	0.624
500.22	0.623
500.42	0.625
500.62	0.626
500.82	0.626
501.02	0.624
501.22	0.624
501.42	0.624
501.62	0.626
501.82	0.625
502.02	0.625
502.22	0.625
502.42	0.626
502.62	0.624
502.82	0.624
503.02	0.626
503.22	0.626
503.42	0.624
503.63	0.624
503.83	0.622
504.03	0.621
504.23	0.620
504.43	0.620
504.63	0.622
504.83	0.622
505.03	0.620
505.23	0.621
505.43	0.623
505.63	0.624
505.83	0.623
506.03	0.625
506.23	0.628
506.43	0.628
506.63	0.626
506.83	0.625
507.03	0.627
507.23	0.628
507.43	0.625
507.63	0.626
507.83	0.626
508.03	0.626
508.23	0.624
508.43	0.623
508.63	0.625
508.83	0.626
509.03	0.626
509.23	0.625
509.43	0.626
509.63	0.626
509.83	0.624
510.03	0.627
510.23	0.629
510.43	0.630
510.63	0.630
510.83	0.630
511.03	0.632
511.23	0.630
511.43	0.628
511.63	0.630
511.83	0.634
512.03	0.634
512.22	0.630
512.42	0.630
512.62	0.631
512.82	0.631
513.02	0.629
513.22	0.629
513.42	0.631
513.62	0.634
513.82	0.632
514.02	0.631
514.22	0.632
514.42	0.632
514.62	0.632
514.82	0.633
515.02	0.635
515.22	0.639
515.42	0.637
515.62	0.639
515.82	0.639
516.02	0.640
516.22	0.639
516.42	0.640
516.62	0.642
516.82	0.643
517.01	0.640
517.21	0.640
517.41	0.644
517.61	0.644
517.81	0.640
518.01	0.639
518.21	0.640
518.41	0.639
518.61	0.638
518.81	0.639
519.01	0.641
519.21	0.641
519.41	0.640
519.61	0.634
519.81	0.638
520.00	0.638
520.20	0.638
520.40	0.641
520.60	0.642
520.80	0.641
521.00	0.640
521.20	0.641
521.40	0.646
521.60	0.647
521.80	0.646
522.00	0.646
522.20	0.649
522.39	0.649
522.59	0.645
522.79	0.647
522.99	0.650
523.19	0.648
523.39	0.646
523.59	0.644
523.79	0.646
523.99	0.649
524.19	0.647
524.38	0.646
524.58	0.647
524.78	0.649
524.98	0.646
525.18	0.648
525.38	0.650
525.58	0.650
525.78	0.648
525.98	0.646
526.18	0.648
526.37	0.646
526.57	0.648
526.77	0.647
526.97	0.648
527.17	0.648
527.37	0.644
527.57	0.646
527.77	0.649
527.96	0.648
528.16	0.647
528.36	0.647
528.56	0.650
528.76	0.648
528.96	0.647
529.16	0.648
529.36	0.652
529.55	0.652
529.75	0.648
529.95	0.648
530.15	0.650
530.35	0.653
530.55	0.649
530.75	0.650
530.94	0.652
531.14	0.652
531.34	0.650
531.54	0.648
531.74	0.651
531.94	0.655
532.13	0.652
532.33	0.653
532.53	0.652
532.73	0.652
532.93	0.649
533.13	0.650
533.33	0.651
533.52	0.652
533.72	0.655
533.92	0.653
534.12	0.651
534.32	0.652
534.52	0.650
534.71	0.652
534.91	0.656
535.11	0.658
535.31	0.655
535.51	0.657
535.71	0.659
535.90	0.657
536.10	0.657
536.30	0.659
536.50	0.660
536.70	0.661
536.89	0.658
537.09	0.657
537.29	0.659
537.49	0.660
537.69	0.657
537.89	0.658
538.08	0.657
538.28	0.656
538.48	0.656
538.68	0.658
538.88	0.660
539.07	0.660
539.27	0.658
539.47	0.657
539.67	0.658
539.87	0.659
540.06	0.657
540.26	0.658
540.46	0.661
540.66	0.659
540.86	0.656
541.05	0.656
541.25	0.658
541.45	0.658
541.65	0.656
541.84	0.658
542.04	0.659
542.24	0.660
542.44	0.658
542.64	0.659
542.83	0.662
543.03	0.662
543.23	0.659
543.43	0.660
543.62	0.662
543.82	0.663
544.02	0.661
544.22	0.661
544.42	0.665
544.61	0.665
544.81	0.662
545.01	0.660
545.21	0.662
545.40	0.663
545.60	0.661
545.80	0.663
546.00	0.664
546.19	0.663
546.39	0.661
546.59	0.659
546.79	0.661
546.98	0.662
547.18	0.661
547.38	0.662
547.58	0.665
547.77	0.665
547.97	0.660
548.17	0.662
548.37	0.663
548.56	0.664
548.76	0.663
548.96	0.665
549.16	0.669
549.35	0.669
549.55	0.666
549.75	0.667
549.95	0.671
550.14	0.672
550.34	0.669
550.54	0.674
550.73	0.678
550.93	0.679
551.13	0.674
551.33	0.672
551.52	0.674
551.72	0.674
551.92	0.672
552.12	0.672
552.31	0.673
552.51	0.673
552.71	0.667
552.90	0.666
553.10	0.668
553.30	0.668
553.50	0.667
553.69	0.668
553.89	0.669
554.09	0.669
554.28	0.665
554.48	0.667
554.68	0.670
554.87	0.670
555.07	0.667
555.27	0.667
555.47	0.669
555.66	0.670
555.86	0.668
556.06	0.670
556.25	0.673
556.45	0.681
556.65	0.679
556.84	0.681
557.04	0.685
557.24	0.687
557.43	0.686
557.63	0.689
557.83	0.691
558.02	0.691
558.22	0.694
558.42	0.694
558.61	0.687
558.81	0.687
559.01	0.682
559.21	0.682
559.40	0.683
559.60	0.683
559.80	0.679
559.99	0.680
560.19	0.683
560.39	0.677
560.58	0.674
560.78	0.674
560.97	0.679
561.17	0.678
561.37	0.675
561.56	0.676
561.76	0.678
561.96	0.678
562.15	0.676
562.35	0.678
562.55	0.679
562.74	0.679
562.94	0.678
563.14	0.676
563.33	0.677
563.53	0.677
563.73	0.674
563.92	0.676
564.12	0.679
564.31	0.682
564.51	0.679
564.71	0.681
564.90	0.685
565.10	0.685
565.30	0.687
565.49	0.688
565.69	0.691
565.89	0.691
566.08	0.687
566.28	0.689
566.47	0.690
566.67	0.689
566.87	0.685
567.06	0.687
567.26	0.693
567.46	0.689
567.65	0.688
567.85	0.689
568.04	0.693
568.24	0.692
568.44	0.687
568.63	0.686
568.83	0.688
569.02	0.686
569.22	0.681
569.42	0.678
569.61	0.680
569.81	0.679
570.00	0.676
570.20	0.676
570.40	0.678
570.59	0.678
570.79	0.675
570.98	0.673
571.18	0.675
571.38	0.675
571.57	0.671
571.77	0.669
571.96	0.674
572.16	0.671
572.35	0.666
572.55	0.667
572.75	0.666
572.94	0.667
573.14	0.665
573.33	0.665
573.53	0.666
573.73	0.666
573.92	0.664
574.12	0.661
574.31	0.664
574.51	0.665
574.70	0.661
574.90	0.663
575.09	0.666
575.29	0.666
575.49	0.663
575.68	0.663
575.88	0.665
576.07	0.667
576.27	0.664
576.46	0.664
576.66	0.663
576.86	0.662
577.05	0.659
577.25	0.657
577.44	0.659
577.64	0.658
577.83	0.656
578.03	0.657
578.22	0.656
578.42	0.656
578.61	0.654
578.81	0.655
579.00	0.656
579.20	0.656
579.40	0.655
579.59	0.654
579.79	0.655
579.98	0.655
580.18	0.654
580.37	0.654
580.57	0.657
580.76	0.661
580.96	0.659
581.15	0.659
581.35	0.661
581.54	0.661
581.74	0.660
581.93	0.661
582.13	0.663
582.32	0.661
582.52	0.659
582.71	0.658
582.91	0.655
583.10	0.655
583.30	0.654
583.49	0.653
583.69	0.658
583.88	0.659
584.08	0.658
584.27	0.660
584.47	0.663
584.66	0.664
584.86	0.662
585.05	0.664
585.25	0.666
585.44	0.666
585.64	0.663
585.83	0.661
586.03	0.661
586.22	0.661
586.42	0.657
586.61	0.658
586.81	0.661
587.00	0.662
587.20	0.659
587.39	0.660
587.59	0.663
587.78	0.664
587.98	0.664
588.17	0.665
588.37	0.667
588.56	0.669
588.76	0.665
588.95	0.665
589.15	0.669
589.34	0.672
589.54	0.669
589.73	0.669
589.92	0.673
590.12	0.672
590.31	0.669
590.51	0.674
590.70	0.676
590.90	0.676
591.09	0.674
591.29	0.672
591.48	0.672
591.68	0.673
591.87	0.671
592.06	0.670
592.26	0.674
592.45	0.673
592.65	0.667
592.84	0.667
593.04	0.670
593.23	0.672
593.43	0.669
593.62	0.670
593.81	0.670
594.01	0.671
594.20	0.667
594.40	0.667
594.59	0.670
594.79	0.671
594.98	0.669
595.17	0.669
595.37	0.669
595.56	0.672
595.76	0.670
595.95	0.671
596.14	0.674
596.34	0.676
596.53	0.673
596.73	0.673
596.92	0.674
597.12	0.676
597.31	0.676
597.50	0.675
597.70	0.677
597.89	0.677
598.09	0.673
598.28	0.674
598.47	0.677
598.67	0.676
598.86	0.673
599.06	0.675
599.25	0.676
599.44	0.674
599.64	0.671
599.83	0.669
600.03	0.673
600.22	0.674
600.41	0.674
600.61	0.672
600.80	0.675
601.00	0.676
601.19	0.671
601.38	0.670
601.58	0.673
601.77	0.674
601.96	0.676
602.16	0.675
602.35	0.685
602.55	0.681
602.74	0.681
602.93	0.682
603.13	0.687
603.32	0.689
603.51	0.687
603.71	0.690
603.90	0.692
604.09	0.692
604.29	0.689
604.48	0.683
604.68	0.684
604.87	0.683
605.06	0.679
605.26	0.676
605.45	0.677
605.64	0.676
605.84	0.671
606.03	0.670
606.22	0.669
606.42	0.669
606.61	0.665
606.80	0.665
607.00	0.668
607.19	0.668
607.38	0.666
607.58	0.667
607.77	0.670
607.96	0.670
608.16	0.668
608.35	0.674
608.54	0.677
608.74	0.681
608.93	0.686
609.12	0.689
609.32	0.692
609.51	0.696
609.70	0.695
609.90	0.698
610.09	0.703
610.28	0.709
610.48	0.701
610.67	0.702
610.86	0.702
611.06	0.697
611.25	0.693
611.44	0.693
611.64	0.694
611.83	0.696
612.02	0.691
612.21	0.690
612.41	0.689
612.60	0.687
612.79	0.683
612.99	0.684
613.18	0.686
613.37	0.684
613.57	0.681
613.76	0.683
613.95	0.681
614.14	0.681
614.34	0.678
614.53	0.679
614.72	0.684
614.92	0.684
615.11	0.681
615.30	0.678
615.49	0.681
615.69	0.684
615.88	0.680
616.07	0.682
616.26	0.686
616.46	0.686
616.65	0.682
616.84	0.681
617.04	0.684
617.23	0.687
617.42	0.686
617.61	0.690
617.81	0.692
618.00	0.694
618.19	0.691
618.38	0.694
618.58	0.699
618.77	0.700
618.96	0.699
619.15	0.700
619.35	0.703
619.54	0.704
619.73	0.697
619.92	0.698
620.12	0.703
620.31	0.704
620.50	0.697
620.69	0.697
620.89	0.701
621.08	0.702
621.27	0.700
621.46	0.700
621.66	0.705
621.85	0.705
622.04	0.701
622.23	0.701
622.43	0.702
622.62	0.703
622.81	0.701
623.00	0.701
623.19	0.705
623.39	0.704
623.58	0.700
623.77	0.698
623.96	0.702
624.16	0.702
624.35	0.697
624.54	0.700
624.73	0.705
624.92	0.704
625.12	0.702
625.31	0.703
625.50	0.706
625.69	0.708
625.88	0.704
626.08	0.704
626.27	0.706
626.46	0.707
626.65	0.703
626.84	0.702
627.04	0.708
627.23	0.707
627.42	0.702
627.61	0.703
627.80	0.708
628.00	0.708
628.19	0.705
628.38	0.709
628.57	0.712
628.76	0.713
628.96	0.708
629.15	0.710
629.34	0.713
629.53	0.713
629.72	0.707
629.91	0.707
630.11	0.713
630.30	0.713
630.49	0.715
630.68	0.715
630.87	0.719
631.06	0.721
631.26	0.715
631.45	0.718
631.64	0.728
631.83	0.730
632.02	0.726
632.21	0.725
632.41	0.733
632.60	0.727
632.79	0.724
632.98	0.725
633.17	0.727
633.36	0.729
633.55	0.724
633.75	0.719
633.94	0.722
634.13	0.722
634.32	0.719
634.51	0.712
634.70	0.716
634.89	0.716
635.09	0.712
635.28	0.713
635.47	0.715
635.66	0.718
635.85	0.712
636.04	0.714
636.23	0.720
636.43	0.722
636.62	0.720
636.81	0.718
637.00	0.723
637.19	0.726
637.38	0.721
637.57	0.721
637.76	0.724
637.95	0.726
638.15	0.721
638.34	0.718
638.53	0.722
638.72	0.723
638.91	0.719
639.10	0.715
639.29	0.716
639.48	0.717
639.67	0.716
639.87	0.714
640.06	0.721
640.25	0.720
640.44	0.719
640.63	0.720
640.82	0.723
641.01	0.723
641.20	0.723
641.39	0.725
641.58	0.728
641.78	0.727
641.97	0.721
642.16	0.735
642.35	0.738
642.54	0.737
642.73	0.730
642.92	0.729
643.11	0.734
643.30	0.733
643.49	0.727
643.68	0.729
643.87	0.733
644.06	0.734
644.25	0.712
644.45	0.714
644.64	0.717
644.83	0.718
645.02	0.713
645.21	0.712
645.40	0.715
645.59	0.715
645.78	0.708
645.97	0.709
646.16	0.711
646.35	0.711
646.54	0.708
646.73	0.709
646.92	0.711
647.11	0.711
647.30	0.705
647.49	0.707
647.68	0.708
647.88	0.706
648.07	0.698
648.26	0.701
648.45	0.704
648.64	0.700
648.83	0.697
649.02	0.699
649.21	0.712
649.40	0.711
649.59	0.704
649.78	0.705
649.97	0.722
650.16	0.722
650.35	0.715
650.54	0.717
650.73	0.727
650.92	0.723
651.11	0.715
651.30	0.712
651.49	0.718
651.68	0.719
651.87	0.715
652.06	0.703
652.25	0.707
652.44	0.707
652.63	0.700
652.82	0.697
653.01	0.697
653.20	0.695
653.39	0.681
653.58	0.678
653.77	0.678
653.96	0.673
654.15	0.665
654.34	0.664
654.53	0.661
654.72	0.657
654.91	0.648
655.10	0.645
655.29	0.644
655.48	0.643
655.67	0.637
655.86	0.635
656.05	0.634
656.24	0.634
656.43	0.629
656.62	0.628
656.81	0.630
657.00	0.630
657.19	0.628
657.38	0.629
657.57	0.630
657.76	0.633
657.95	0.632
658.14	0.636
658.33	0.640
658.51	0.646
658.70	0.646
658.89	0.647
659.08	0.654
659.27	0.661
659.46	0.660
659.65	0.665
659.84	0.668
660.03	0.671
660.22	0.671
660.41	0.674
660.60	0.674
660.79	0.675
660.98	0.680
661.17	0.679
661.36	0.679
661.55	0.679
661.74	0.676
661.92	0.680
662.11	0.683
662.30	0.683
662.49	0.675
662.68	0.675
662.87	0.679
663.06	0.673
663.25	0.673
663.44	0.673
663.63	0.675
663.82	0.674
664.01	0.667
664.20	0.666
664.38	0.667
664.57	0.668
664.76	0.666
664.95	0.667
665.14	0.673
665.33	0.668
665.52	0.674
665.71	0.678
665.90	0.678
666.09	0.680
666.28	0.676
666.46	0.676
666.65	0.678
666.84	0.675
667.03	0.669
667.22	0.666
667.41	0.671
667.60	0.660
667.79	0.653
667.98	0.655
668.16	0.657
668.35	0.656
668.54	0.650
668.73	0.651
668.92	0.653
669.11	0.652
669.30	0.645
669.49	0.640
669.67	0.643
669.86	0.645
670.05	0.641
670.24	0.638
670.43	0.636
670.62	0.636
670.81	0.630
671.00	0.632
671.18	0.632
671.37	0.632
671.56	0.630
671.75	0.629
671.94	0.626
672.13	0.624
672.32	0.619
672.50	0.619
672.69	0.620
672.88	0.620
673.07	0.614
673.26	0.617
673.45	0.619
673.63	0.618
673.82	0.614
674.01	0.616
674.20	0.616
674.39	0.616
674.58	0.614
674.76	0.614
674.95	0.613
675.14	0.613
675.33	0.607
675.52	0.605
675.71	0.606
675.89	0.605
676.08	0.600
676.27	0.600
676.46	0.601
676.65	0.601
676.84	0.600
677.02	0.601
677.21	0.604
677.40	0.604
677.59	0.602
677.78	0.603
677.96	0.606
678.15	0.605
678.34	0.602
678.53	0.603
678.72	0.603
678.90	0.601
679.09	0.596
679.28	0.593
679.47	0.593
679.66	0.592
679.84	0.588
680.03	0.586
680.22	0.585
680.41	0.587
680.60	0.583
680.78	0.583
680.97	0.586
681.16	0.586
681.35	0.584
681.53	0.583
681.72	0.586
681.91	0.588
682.10	0.585
682.29	0.588
682.47	0.586
682.66	0.586
682.85	0.584
683.04	0.581
683.22	0.581
683.41	0.583
683.60	0.581
683.79	0.581
683.97	0.581
684.16	0.580
684.35	0.576
684.54	0.578
684.72	0.578
684.91	0.579
685.10	0.576
685.29	0.578
685.47	0.576
685.66	0.575
685.85	0.571
686.04	0.571
686.22	0.574
686.41	0.576
686.60	0.572
686.79	0.576
686.97	0.577
687.16	0.578
687.35	0.575
687.54	0.579
687.72	0.583
687.91	0.583
688.10	0.583
688.29	0.582
688.47	0.580
688.66	0.580
688.85	0.575
689.03	0.572
689.22	0.577
689.41	0.577
689.60	0.572
689.78	0.570
689.97	0.571
690.16	0.568
690.34	0.565
690.53	0.564
690.72	0.566
690.91	0.564
691.09	0.562
691.28	0.556
691.47	0.554
691.65	0.553
691.84	0.549
692.03	0.548
692.21	0.547
692.40	0.547
692.59	0.545
692.77	0.543
692.96	0.545
693.15	0.546
693.34	0.544
693.52	0.544
693.71	0.545
693.90	0.546
694.08	0.546
694.27	0.547
694.46	0.557
694.64	0.558
694.83	0.557
695.02	0.556
695.20	0.556
695.39	0.555
695.58	0.555
695.76	0.555
695.95	0.555
696.14	0.555
696.32	0.552
696.51	0.542
696.70	0.542
696.88	0.543
697.07	0.541
697.26	0.543
697.44	0.544
697.63	0.543
697.81	0.540
698.00	0.539
698.19	0.540
698.37	0.540
698.56	0.539
698.75	0.539
698.93	0.539
699.12	0.539
699.31	0.537
699.49	0.537
699.68	0.538
699.87	0.541
700.05	0.540
700.24	0.538
700.42	0.540
700.61	0.540
700.80	0.537
700.98	0.538
701.17	0.540
701.36	0.539
701.54	0.537
701.73	0.538
701.91	0.537
702.10	0.536
702.29	0.534
702.47	0.534
702.66	0.536
702.84	0.537
703.03	0.535
703.22	0.537
703.40	0.537
703.59	0.539
703.77	0.538
703.96	0.538
704.15	0.539
704.33	0.539
704.52	0.538
704.70	0.537
704.89	0.536
705.08	0.535
705.26	0.530
705.45	0.531
705.63	0.530
705.82	0.526
706.00	0.525
706.19	0.523
706.38	0.524
706.56	0.523
706.75	0.520
706.93	0.520
707.12	0.522
707.30	0.522
707.49	0.519
707.68	0.518
707.86	0.519
708.05	0.519
708.23	0.516
708.42	0.517
708.60	0.520
708.79	0.520
708.98	0.518
709.16	0.517
709.35	0.520
709.53	0.523
709.72	0.521
709.90	0.523
710.09	0.525
710.27	0.527
710.46	0.530
710.64	0.529
710.83	0.531
711.02	0.533
711.20	0.531
711.39	0.529
711.57	0.528
711.76	0.529
711.94	0.526
712.13	0.526
712.31	0.526
712.50	0.520
712.68	0.516
712.87	0.517
713.05	0.518
713.24	0.518
713.42	0.516
713.61	0.517
713.79	0.518
713.98	0.519
714.16	0.519
714.35	0.519
714.54	0.522
714.72	0.522
714.91	0.520
715.09	0.526
715.28	0.530
715.46	0.530
715.65	0.527
715.83	0.527
716.02	0.530
716.20	0.526
716.39	0.524
716.57	0.526
716.76	0.528
716.94	0.528
717.12	0.520
717.31	0.521
717.49	0.524
717.68	0.526
717.86	0.524
718.05	0.526
718.23	0.530
718.42	0.532
718.60	0.533
718.79	0.542
718.97	0.545
719.16	0.546
719.34	0.543
719.53	0.543
719.71	0.545
719.90	0.547
720.08	0.543
720.27	0.542
720.45	0.543
720.63	0.541
720.82	0.534
721.00	0.537
721.19	0.542
721.37	0.541
721.56	0.540
721.74	0.543
721.93	0.551
722.11	0.558
722.30	0.556
722.48	0.560
722.66	0.562
722.85	0.561
723.03	0.560
723.22	0.558
723.40	0.562
723.59	0.562
723.77	0.565
723.95	0.559
724.14	0.562
724.32	0.564
724.51	0.564
724.69	0.565
724.88	0.566
725.06	0.564
725.24	0.564
725.43	0.566
725.61	0.569
725.80	0.562
725.98	0.558
726.16	0.555
726.35	0.562
726.53	0.561
726.72	0.558
726.90	0.570
727.09	0.571
727.27	0.577
727.45	0.572
727.64	0.581
727.82	0.592
728.01	0.596
728.19	0.592
728.37	0.597
728.56	0.602
728.74	0.609
728.92	0.595
729.11	0.598
729.29	0.599
729.48	0.602
729.66	0.589
729.84	0.590
730.03	0.595
730.21	0.597
730.40	0.586
730.58	0.588
730.76	0.590
730.95	0.593
731.13	0.592
731.31	0.605
731.50	0.616
731.68	0.619
731.86	0.615
732.05	0.629
732.23	0.635
732.42	0.640
732.60	0.640
732.78	0.644
732.97	0.665
733.15	0.671
733.33	0.657
733.52	0.664
733.70	0.675
733.88	0.683
734.07	0.666
734.25	0.692
734.43	0.701
734.62	0.705
734.80	0.699
734.98	0.688
735.17	0.699
735.35	0.708
735.53	0.694
735.72	0.698
735.90	0.724
736.08	0.745
736.27	0.717
736.45	0.726
736.63	0.741
736.82	0.750
737.00	0.746
737.18	0.757
737.37	0.790
737.55	0.815
737.73	0.806
737.92	0.810
738.10	0.812
738.28	0.835
738.46	0.819
738.65	0.837
738.83	0.865
739.01	0.929
739.20	0.915
739.38	0.900
739.56	0.895
739.75	0.904
739.93	0.859
740.11	0.886
740.29	0.888
740.48	0.899
740.66	0.870
740.84	0.867
741.03	0.830
741.21	0.839
741.39	0.811
741.57	0.825
741.76	0.846
741.94	0.854
742.12	0.811
742.31	0.822
742.49	0.847
742.67	0.869
742.85	0.877
743.04	0.877
743.22	0.893
743.40	0.957
743.58	0.929
743.77	0.948
743.95	0.996
744.13	1.054
744.31	1.021
744.50	1.011
744.68	1.025
744.86	0.991
745.04	1.005
745.23	1.081
745.41	1.064
745.59	1.073
745.77	1.019
745.96	1.004
746.14	1.025
746.32	1.025
746.50	1.013
746.69	0.989
746.87	1.019
747.05	1.005
747.23	0.914
747.42	0.899
747.60	0.939
747.78	0.943
747.96	0.971
748.14	0.915
748.33	0.958
748.51	0.954
748.69	0.937
748.87	0.966
749.06	0.965
749.24	0.966
749.42	0.947
749.60	0.925
749.78	0.946
749.97	0.896
750.15	0.888
750.33	0.887
750.51	0.923
750.69	0.931
750.88	0.928
751.06	0.940
751.24	0.977
751.42	0.962
751.60	0.943
751.79	1.027
751.97	1.093
752.15	1.091
752.33	1.038
752.51	1.117
752.69	1.152
752.88	1.112
753.06	1.165
753.24	1.132
753.42	1.188
753.60	1.438
753.78	1.209
753.97	1.227
754.15	1.264
754.33	1.301
754.51	1.114
754.69	1.094
754.87	1.139
755.06	1.044
755.24	1.037
755.42	1.047
755.60	0.944
755.78	0.952
755.96	0.886
756.15	0.887
756.33	0.899
756.51	0.924
756.69	0.899
756.87	0.859
757.05	0.891
757.23	0.874
757.42	0.834
757.60	0.829
757.78	0.823
757.96	0.822
758.14	0.799
758.32	0.785
758.50	0.801
758.69	0.803
758.87	0.791
759.05	0.794
759.23	0.809
759.41	0.813
759.59	0.803
759.77	0.826
759.95	0.858
760.13	0.911
760.32	0.904
760.50	0.899
760.68	0.931
760.86	0.931
761.04	0.893
761.22	0.895
761.40	0.953
761.58	0.950
761.76	0.914
761.95	0.895
762.13	0.852
762.31	0.851
762.49	0.811
762.67	0.827
762.85	0.848
763.03	0.840
763.21	0.817
763.39	0.796
763.57	0.804
763.75	0.799
763.94	0.780
764.12	0.779
764.30	0.809
764.48	0.815
764.66	0.772
764.84	0.770
765.02	0.819
765.20	0.827
765.38	0.799
765.56	0.807
765.74	0.856
765.92	0.860
766.10	0.866
766.28	0.858
766.46	0.897
766.65	0.898
766.83	0.880
767.01	0.857
767.19	0.868
767.37	0.871
767.55	0.850
767.73	0.829
767.91	0.833
768.09	0.821
768.27	0.806
768.45	0.794
768.63	0.804
768.81	0.807
768.99	0.776
769.17	0.804
769.35	0.825
769.53	0.824
769.71	0.797
769.89	0.811
770.07	0.822
770.25	0.804
770.43	0.774
770.61	0.800
770.79	0.810
770.97	0.824
771.15	0.785
771.33	0.788
771.51	0.792
771.69	0.807
771.87	0.810
772.05	0.816
772.24	0.831
772.42	0.843
772.60	0.813
772.78	0.880
772.96	0.914
773.14	0.906
773.32	0.874
773.49	0.883
773.67	0.885
773.85	0.863
774.03	0.845
774.21	0.880
774.39	0.900
774.57	0.928
774.75	0.843
774.93	0.843
775.11	0.875
775.29	0.880
775.47	0.878
775.65	0.892
775.83	0.915
776.01	0.943
776.19	0.880
776.37	0.882
776.55	0.884
776.73	0.875
776.91	0.863
777.09	0.847
777.27	0.850
777.45	0.838
777.63	0.806
777.81	0.803
777.99	0.792
778.17	0.795
778.35	0.765
778.53	0.755
778.71	0.767
778.89	0.751
779.07	0.736
779.24	0.743
779.42	0.748
779.60	0.768
779.78	0.760
779.96	0.766
780.14	0.774
780.32	0.799
780.50	0.777
780.68	0.777
780.86	0.772
781.04	0.791
781.22	0.793
781.40	0.802
781.58	0.795
781.75	0.785
781.93	0.763
782.11	0.765
782.29	0.751
782.47	0.749
782.65	0.731
782.83	0.763
783.01	0.760
783.19	0.751
783.37	0.736
783.55	0.741
783.72	0.763
783.90	0.774
784.08	0.764
784.26	0.776
784.44	0.799
784.62	0.801
784.80	0.757
784.98	0.760
785.16	0.769
785.33	0.782
785.51	0.761
785.69	0.747
785.87	0.748
786.05	0.755
786.23	0.749
786.41	0.748
786.59	0.757
786.77	0.758
786.94	0.743
787.12	0.747
787.30	0.753
787.48	0.750
787.66	0.734
787.84	0.735
788.02	0.728
788.19	0.726
788.37	0.709
788.55	0.712
788.73	0.715
788.91	0.709
789.09	0.689
789.27	0.676
789.44	0.689
789.62	0.698
789.80	0.705
789.98	0.734
790.16	0.722
790.34	0.719
790.51	0.702
790.69	0.723
790.87	0.734
791.05	0.730
791.23	0.720
791.41	0.723
791.58	0.732
791.76	0.709
791.94	0.674
792.12	0.684
792.30	0.688
792.48	0.688
792.65	0.680
792.83	0.687
793.01	0.698
793.19	0.697
793.37	0.679
793.54	0.676
793.72	0.691
793.90	0.689
794.08	0.676
794.26	0.678
794.43	0.689
794.61	0.670
794.79	0.654
794.97	0.653
795.15	0.663
795.32	0.668
795.50	0.655
795.68	0.650
795.86	0.656
796.04	0.659
796.21	0.651
796.39	0.648
796.57	0.667
796.75	0.675
796.92	0.673
797.10	0.677
797.28	0.682
797.46	0.684
797.64	0.683
797.81	0.692
797.99	0.697
798.17	0.700
798.35	0.694
798.52	0.696
798.70	0.694
798.88	0.703
799.06	0.698
799.23	0.700
799.41	0.710
799.59	0.703
799.77	0.687
799.94	0.698
800.12	0.712
800.30	0.730
800.48	0.725
800.65	0.726
800.83	0.718
801.01	0.712
801.19	0.711
801.36	0.709
801.54	0.715
801.72	0.728
801.90	0.709
802.07	0.701
802.25	0.688
802.43	0.670
802.60	0.663
802.78	0.669
802.96	0.676
803.14	0.670
803.31	0.664
803.49	0.664
803.67	0.662
803.84	0.666
804.02	0.655
804.20	0.657
804.38	0.666
804.55	0.666
804.73	0.647
804.91	0.650
805.08	0.664
805.26	0.661
805.44	0.719
805.61	0.722
805.79	0.725
805.97	0.726
806.15	0.715
806.32	0.708
806.50	0.717
806.68	0.718
806.85	0.705
807.03	0.694
807.21	0.716
807.38	0.651
807.56	0.636
807.74	0.646
807.91	0.655
808.09	0.658
808.27	0.679
808.44	0.705
808.62	0.722
808.80	0.724
808.97	0.715
809.15	0.707
809.33	0.728
809.50	0.737
809.68	0.719
809.86	0.724
810.03	0.764
810.21	0.739
810.39	0.716
810.56	0.720
810.74	0.747
810.91	0.831
811.09	0.816
811.27	0.839
811.44	0.849
811.62	0.852
811.80	0.830
811.97	0.791
812.15	0.793
812.33	0.790
812.50	0.769
812.68	0.759
812.85	0.699
813.03	0.701
813.21	0.665
813.38	0.659
813.56	0.664
813.74	0.677
813.91	0.685
814.09	0.720
814.26	0.716
814.44	0.720
814.62	0.707
814.79	0.710
814.97	0.718
815.14	0.723
815.32	0.725
815.50	0.745
815.67	0.751
815.85	0.738
816.02	0.723
816.20	0.730
816.38	0.749
816.55	0.757
816.73	0.755
816.90	0.768
817.08	0.805
817.26	0.810
817.43	0.784
817.61	0.812
817.78	0.840
817.96	0.815
818.13	0.801
818.31	0.802
818.49	0.817
818.66	0.803
818.84	0.783
819.01	0.762
819.19	0.774
819.36	0.774
819.54	0.739
819.71	0.787
819.89	0.809
820.07	0.823
820.24	0.809
820.42	0.812
820.59	0.844
820.77	0.869
820.94	0.853
821.12	0.874
821.29	0.901
821.47	0.898
821.64	0.817
821.82	0.831
822.00	0.830
822.17	0.827
822.35	0.813
822.52	0.813
822.70	0.802
822.87	0.812
823.05	0.783
823.22	0.799
823.40	0.836
823.57	0.863
823.75	0.836
823.92	0.869
824.10	0.904
824.27	0.957
824.45	0.935
824.62	1.020
824.80	1.053
824.97	1.076
825.15	1.050
825.32	1.071
825.50	1.079
825.67	1.098
825.85	1.057
826.02	1.083
826.20	1.132
826.37	1.350
826.55	1.192
826.72	1.552
826.90	1.787
827.07	2.032
827.25	1.711
827.42	-0.000
827.60	-0.000
827.77	-0.000
827.95	-0.000
828.12	-0.000
828.30	-0.000
828.47	-0.000
828.65	1.751
828.82	2.101
829.00	-0.000
829.17	-0.000
829.34	-0.000
829.52	-0.000
829.69	-0.000
829.87	-0.000
830.04	-0.000
830.22	-0.000
830.39	-0.000
830.57	-0.000
830.74	-0.000
830.92	-0.000
831.09	-0.000
831.26	-0.000
831.44	-0.000
831.61	-0.000
831.79	-0.000
831.96	-0.000
832.14	-0.000
832.31	-0.000
832.49	-0.000
832.66	-0.000
832.83	-0.000
833.01	-0.000
833.18	-0.000
833.36	-0.000
833.53	-0.000
833.70	-0.000
833.88	-0.000
834.05	-0.000
834.23	-0.000
834.40	-0.000
834.58	-0.000
834.75	-0.000
834.92	-0.000
835.10	-0.000
835.27	-0.000
835.45	-0.000
835.62	-0.000
835.79	-0.000
835.97	-0.000
836.14	-0.000
836.32	-0.000
836.49	-0.000
836.66	-0.000
836.84	-0.000
837.01	-0.000
837.18	-0.000
837.36	-0.000
837.53	-0.000
837.71	-0.000
837.88	-0.000
838.05	-0.000
838.23	-0.000
838.40	-0.000
838.58	-0.000
838.75	-0.000
838.92	-0.000
839.10	-0.000
839.27	-0.000
839.44	-0.000
839.62	-0.000
839.79	-0.000
839.96	-0.000
840.14	-0.000
840.31	-0.000
840.48	-0.000
840.66	-0.000
840.83	-0.000
841.01	-0.000
841.18	-0.000
841.35	-0.000
841.53	-0.000
841.70	-0.000
841.87	-0.000
842.05	-0.000
842.22	-0.000
842.39	-0.000
842.57	-0.000
842.74	-0.000
842.91	-0.000
843.09	-0.000
843.26	-0.000
843.43	-0.000
843.60	-0.000
843.78	-0.000
843.95	-0.000
844.12	-0.000
844.30	-0.000
844.47	-0.000
844.64	-0.000
844.82	-0.000
844.99	-0.000
845.16	-0.000
845.34	-0.000
845.51	-0.000
845.68	-0.000
845.85	-0.000
846.03	-0.000
846.20	-0.000
846.37	-0.000
846.55	-0.000
846.72	-0.000
846.89	-0.000
847.06	-0.000
847.24	-0.000
847.41	-0.000
847.58	-0.000
847.76	-0.000
847.93	-0.000
848.10	-0.000
848.27	-0.000
848.45	-0.000
848.62	-0.000
848.79	-0.000
848.97	-0.000
849.14	-0.000
849.31	-0.000
849.48	-0.000
849.66	-0.000
849.83	-0.000
850.00	-0.000
850.17	-0.000
850.35	-0.000
850.52	-0.000
850.69	-0.000
850.86	-0.000
851.04	-0.000
851.21	-0.000
851.38	-0.000
851.55	-0.000
851.72	-0.000
851.90	-0.000
852.07	-0.000
852.24	-0.000
852.41	-0.000
852.59	-0.000
852.76	-0.000
852.93	-0.000
853.10	-0.000
853.28	-0.000
853.45	-0.000
853.62	-0.000
853.79	-0.000
853.96	-0.000
854.14	-0.000
854.31	-0.000
854.48	-0.000
854.65	-0.000
854.82	-0.000
855.00	-0.000
855.17	-0.000
855.34	-0.000
855.51	-0.000
855.68	-0.000
855.86	-0.000
856.03	-0.000
856.20	-0.000
856.37	-0.000
856.54	-0.000
856.72	-0.000
856.89	-0.000
857.06	-0.000
857.23	-0.000
857.40	-0.000
857.57	-0.000
857.75	-0.000
857.92	-0.000
858.09	-0.000
858.26	-0.000
858.43	-0.000
858.60	-0.000
858.78	-0.000
858.95	-0.000
859.12	-0.000
859.29	-0.000
859.46	-0.000
859.63	-0.000
859.81	-0.000
859.98	-0.000
860.15	-0.000
860.32	-0.000
860.49	-0.000
860.66	-0.000
860.83	-0.000
861.01	-0.000
861.18	-0.000
861.35	-0.000
861.52	-0.000
861.69	-0.000
861.86	-0.000
862.03	-0.000
862.21	-0.000
862.38	-0.000
862.55	-0.000
862.72	-0.000
862.89	-0.000
863.06	-0.000
863.23	-0.000
863.40	-0.000
863.58	-0.000
863.75	-0.000
863.92	-0.000
864.09	-0.000
864.26	-0.000
864.43	-0.000
864.60	-0.000
864.77	-0.000
864.94	-0.000
865.11	-0.000
865.29	-0.000
865.46	-0.000
865.63	-0.000
865.80	-0.000
865.97	-0.000
866.14	-0.000
866.31	-0.000
866.48	-0.000
866.65	-0.000
866.82	-0.000
866.99	-0.000
867.16	-0.000
867.34	-0.000
867.51	-0.000
867.68	-0.000
867.85	-0.000
868.02	-0.000
868.19	-0.000
868.36	-0.000
868.53	-0.000
868.70	-0.000
868.87	-0.000
869.04	-0.000
869.21	-0.000
869.38	-0.000
869.55	-0.000
869.72	-0.000
869.89	-0.000
870.06	-0.000
870.24	-0.000
870.41	-0.000
870.58	-0.000
870.75	-0.000
870.92	-0.000
871.09	-0.000
871.26	-0.000
871.43	-0.000
871.60	-0.000
871.77	-0.000
871.94	-0.000
872.11	-0.000
872.28	-0.000
872.45	-0.000
872.62	-0.000
872.79	-0.000
872.96	-0.000
873.13	-0.000
873.30	-0.000
873.47	-0.000
873.64	-0.000
873.81	-0.000
873.98	-0.000
874.15	-0.000
874.32	-0.000
874.49	-0.000
874.66	-0.000
874.83	-0.000
875.00	-0.000
875.17	-0.000
875.34	-0.000
875.51	-0.000
875.68	-0.000
875.85	-0.000
876.02	-0.000
876.19	-0.000
876.36	-0.000
876.53	-0.000
876.70	-0.000
876.87	-0.000
877.04	-0.000
877.21	-0.000
877.38	-0.000
877.55	-0.000
877.72	-0.000
877.89	-0.000
878.06	-0.000
878.23	-0.000
878.39	-0.000
878.56	-0.000
878.73	-0.000
878.90	-0.000
879.07	-0.000
879.24	-0.000
879.41	-0.000
879.58	-0.000
879.75	-0.000
879.92	-0.000
880.09	-0.000
880.26	-0.000
880.43	-0.000
880.60	-0.000
880.77	-0.000
880.94	-0.000
881.11	-0.000
881.27	-0.000
881.44	-0.000
881.61	-0.000
881.78	-0.000
881.95	-0.000
882.12	-0.000
882.29	-0.000
882.46	-0.000
882.63	-0.000
882.80	-0.000
882.97	-0.000
883.14	-0.000
883.30	-0.000
883.47	-0.000
883.64	-0.000
883.81	-0.000
883.98	-0.000
884.15	-0.000
884.32	-0.000
884.49	-0.000
884.66	-0.000
884.82	-0.000
884.99	-0.000
885.16	-0.000
885.33	-0.000
885.50	-0.000
885.67	-0.000
885.84	-0.000
886.01	-0.000
886.17	-0.000
886.34	-0.000
886.51	-0.000
886.68	-0.000
886.85	-0.000
887.02	-0.000
887.19	-0.000
887.36	-0.000
887.52	-0.000
887.69	-0.000
887.86	-0.000
888.03	-0.000
888.20	-0.000
888.37	-0.000
888.54	-0.000
888.70	-0.000
888.87	-0.000
889.04	-0.000
889.21	-0.000
889.38	-0.000
889.55	-0.000
889.71	-0.000
889.88	-0.000
890.05	-0.000
890.22	-0.000
890.39	-0.000
>>>>>End Processed Spectral Data<<<<<
