SpectraSuite Data File
++++++++++++++++++++++++++++++++++++
Date: Fri Jun 19 13:59:34 CEST 2015
User: introlabs
Dark Spectrum Present: Yes
Reference Spectrum Present: Yes
Number of Sampled Component Spectra: 1
Spectrometers: USB4H08886
Integration Time (usec): 745692 (USB4H08886)
Spectra Averaged: 5 (USB4H08886)
Boxcar Smoothing: 5 (USB4H08886)
Correct for Electrical Dark: Yes (USB4H08886)
Strobe/Lamp Enabled: No (USB4H08886)
Correct for Detector Non-linearity: Yes (USB4H08886)
Correct for Stray Light: Yes (USB4H08886)
Number of Pixels in Processed Spectrum: 3648
>>>>>Begin Processed Spectral Data<<<<<
178.14	-0.000
178.36	-0.000
178.57	-0.000
178.79	-0.000
179.01	-0.000
179.22	-0.000
179.44	-0.000
179.65	-0.000
179.87	-0.000
180.08	-0.000
180.30	-0.000
180.52	-0.000
180.73	-0.000
180.95	-0.000
181.16	-0.000
181.38	-0.000
181.59	-0.000
181.81	-0.000
182.03	-0.000
182.24	-0.000
182.46	-0.000
182.67	-0.000
182.89	-0.000
183.10	-0.000
183.32	-0.000
183.54	-0.000
183.75	-0.000
183.97	-0.000
184.18	-0.000
184.40	-0.000
184.61	-0.000
184.83	-0.000
185.04	-0.000
185.26	-0.000
185.48	-0.000
185.69	-0.000
185.91	-0.000
186.12	-0.000
186.34	-0.000
186.55	-0.000
186.77	-0.000
186.98	-0.000
187.20	-0.000
187.42	-0.000
187.63	-0.000
187.85	-0.000
188.06	-0.000
188.28	-0.000
188.49	-0.000
188.71	-0.000
188.92	-0.000
189.14	-0.000
189.36	-0.000
189.57	-0.000
189.79	-0.000
190.00	-0.000
190.22	-0.000
190.43	-0.000
190.65	-0.000
190.86	-0.000
191.08	-0.000
191.29	-0.000
191.51	-0.000
191.72	-0.000
191.94	-0.000
192.16	-0.000
192.37	-0.000
192.59	-0.000
192.80	-0.000
193.02	-0.000
193.23	-0.000
193.45	-0.000
193.66	-0.000
193.88	-0.000
194.09	-0.000
194.31	-0.000
194.52	-0.000
194.74	-0.000
194.95	-0.000
195.17	-0.000
195.38	-0.000
195.60	-0.000
195.81	-0.000
196.03	-0.000
196.25	-0.000
196.46	-0.000
196.68	-0.000
196.89	-0.000
197.11	-0.000
197.32	-0.000
197.54	-0.000
197.75	-0.000
197.97	-0.000
198.18	-0.000
198.40	-0.000
198.61	-0.000
198.83	-0.000
199.04	-0.000
199.26	-0.000
199.47	-0.000
199.69	-0.000
199.90	-0.000
200.12	-0.000
200.33	-0.000
200.55	-0.000
200.76	-0.000
200.98	-0.000
201.19	-0.000
201.41	-0.000
201.62	-0.000
201.84	-0.000
202.05	-0.000
202.27	-0.000
202.48	-0.000
202.70	-0.000
202.91	-0.000
203.13	-0.000
203.34	-0.000
203.56	-0.000
203.77	-0.000
203.99	-0.000
204.20	-0.000
204.42	-0.000
204.63	-0.000
204.85	-0.000
205.06	-0.000
205.28	-0.000
205.49	-0.000
205.71	-0.000
205.92	-0.000
206.14	-0.000
206.35	-0.000
206.56	-0.000
206.78	-0.000
206.99	-0.000
207.21	-0.000
207.42	-0.000
207.64	-0.000
207.85	-0.000
208.07	-0.000
208.28	-0.000
208.50	-0.000
208.71	-0.000
208.93	-0.000
209.14	-0.000
209.36	-0.000
209.57	-0.000
209.79	-0.000
210.00	-0.000
210.22	-0.000
210.43	-0.000
210.64	-0.000
210.86	-0.000
211.07	-0.000
211.29	-0.000
211.50	-0.000
211.72	-0.000
211.93	-0.000
212.15	-0.000
212.36	-0.000
212.58	-0.000
212.79	-0.000
213.01	-0.000
213.22	-0.000
213.43	-0.000
213.65	-0.000
213.86	-0.000
214.08	-0.000
214.29	-0.000
214.51	-0.000
214.72	-0.000
214.94	-0.000
215.15	-0.000
215.36	-0.000
215.58	-0.000
215.79	-0.000
216.01	-0.000
216.22	-0.000
216.44	-0.000
216.65	-0.000
216.87	-0.000
217.08	-0.000
217.29	-0.000
217.51	-0.000
217.72	-0.000
217.94	-0.000
218.15	-0.000
218.37	-0.000
218.58	-0.000
218.80	-0.000
219.01	-0.000
219.22	-0.000
219.44	-0.000
219.65	-0.000
219.87	-0.000
220.08	-0.000
220.30	-0.000
220.51	-0.000
220.72	-0.000
220.94	-0.000
221.15	-0.000
221.37	-0.000
221.58	-0.000
221.79	-0.000
222.01	-0.000
222.22	-0.000
222.44	-0.000
222.65	-0.000
222.87	-0.000
223.08	-0.000
223.29	-0.000
223.51	-0.000
223.72	-0.000
223.94	-0.000
224.15	-0.000
224.36	-0.000
224.58	-0.000
224.79	-0.000
225.01	-0.000
225.22	-0.000
225.44	-0.000
225.65	-0.000
225.86	-0.000
226.08	-0.000
226.29	-0.000
226.51	-0.000
226.72	-0.000
226.93	-0.000
227.15	-0.000
227.36	-0.000
227.58	-0.000
227.79	-0.000
228.00	-0.000
228.22	-0.000
228.43	-0.000
228.65	-0.000
228.86	-0.000
229.07	-0.000
229.29	-0.000
229.50	-0.000
229.72	-0.000
229.93	-0.000
230.14	-0.000
230.36	-0.000
230.57	-0.000
230.78	-0.000
231.00	-0.000
231.21	-0.000
231.43	-0.000
231.64	-0.000
231.85	-0.000
232.07	-0.000
232.28	-0.000
232.50	-0.000
232.71	-0.000
232.92	-0.000
233.14	-0.000
233.35	-0.000
233.56	-0.000
233.78	-0.000
233.99	-0.000
234.21	-0.000
234.42	-0.000
234.63	-0.000
234.85	-0.000
235.06	-0.000
235.27	-0.000
235.49	-0.000
235.70	-0.000
235.91	-0.000
236.13	-0.000
236.34	-0.000
236.56	-0.000
236.77	-0.000
236.98	-0.000
237.20	-0.000
237.41	-0.000
237.62	-0.000
237.84	-0.000
238.05	-0.000
238.26	-0.000
238.48	-0.000
238.69	-0.000
238.91	-0.000
239.12	-0.000
239.33	-0.000
239.55	-0.000
239.76	-0.000
239.97	-0.000
240.19	-0.000
240.40	-0.000
240.61	-0.000
240.83	-0.000
241.04	-0.000
241.25	-0.000
241.47	-0.000
241.68	-0.000
241.89	-0.000
242.11	-0.000
242.32	-0.000
242.53	-0.000
242.75	-0.000
242.96	-0.000
243.17	-0.000
243.39	-0.000
243.60	-0.000
243.81	-0.000
244.03	-0.000
244.24	-0.000
244.45	-0.000
244.67	-0.000
244.88	-0.000
245.09	-0.000
245.31	-0.000
245.52	-0.000
245.73	-0.000
245.95	-0.000
246.16	-0.000
246.37	-0.000
246.59	-0.000
246.80	-0.000
247.01	-0.000
247.23	-0.000
247.44	-0.000
247.65	-0.000
247.87	-0.000
248.08	-0.000
248.29	-0.000
248.51	-0.000
248.72	-0.000
248.93	-0.000
249.15	-0.000
249.36	-0.000
249.57	-0.000
249.78	-0.000
250.00	-0.000
250.21	-0.000
250.42	-0.000
250.64	-0.000
250.85	-0.000
251.06	-0.000
251.28	-0.000
251.49	-0.000
251.70	-0.000
251.92	-0.000
252.13	-0.000
252.34	-0.000
252.55	-0.000
252.77	-0.000
252.98	-0.000
253.19	-0.000
253.41	-0.000
253.62	-0.000
253.83	-0.000
254.05	-0.000
254.26	-0.000
254.47	-0.000
254.68	-0.000
254.90	-0.000
255.11	-0.000
255.32	-0.000
255.54	-0.000
255.75	-0.000
255.96	-0.000
256.17	-0.000
256.39	-0.000
256.60	-0.000
256.81	-0.000
257.03	-0.000
257.24	-0.000
257.45	-0.000
257.66	-0.000
257.88	-0.000
258.09	-0.000
258.30	-0.000
258.51	-0.000
258.73	-0.000
258.94	-0.000
259.15	-0.000
259.37	-0.000
259.58	-0.000
259.79	-0.000
260.00	-0.000
260.22	-0.000
260.43	-0.000
260.64	-0.000
260.85	-0.000
261.07	-0.000
261.28	-0.000
261.49	-0.000
261.71	-0.000
261.92	-0.000
262.13	-0.000
262.34	-0.000
262.56	-0.000
262.77	-0.000
262.98	-0.000
263.19	-0.000
263.41	-0.000
263.62	-0.000
263.83	-0.000
264.04	-0.000
264.26	-0.000
264.47	-0.000
264.68	-0.000
264.89	-0.000
265.11	-0.000
265.32	-0.000
265.53	-0.000
265.74	-0.000
265.96	-0.000
266.17	-0.000
266.38	-0.000
266.59	-0.000
266.81	-0.000
267.02	-0.000
267.23	-0.000
267.44	-0.000
267.65	-0.000
267.87	-0.000
268.08	-0.000
268.29	-0.000
268.50	-0.000
268.72	-0.000
268.93	-0.000
269.14	-0.000
269.35	-0.000
269.57	-0.000
269.78	-0.000
269.99	-0.000
270.20	-0.000
270.41	-0.000
270.63	-0.000
270.84	-0.000
271.05	-0.000
271.26	-0.000
271.48	-0.000
271.69	-0.000
271.90	-0.000
272.11	-0.000
272.32	-0.000
272.54	-0.000
272.75	-0.000
272.96	-0.000
273.17	-0.000
273.39	-0.000
273.60	-0.000
273.81	-0.000
274.02	-0.000
274.23	-0.000
274.45	-0.000
274.66	-0.000
274.87	-0.000
275.08	-0.000
275.29	-0.000
275.51	-0.000
275.72	-0.000
275.93	-0.000
276.14	-0.000
276.35	-0.000
276.57	-0.000
276.78	-0.000
276.99	-0.000
277.20	-0.000
277.41	-0.000
277.63	-0.000
277.84	-0.000
278.05	-0.000
278.26	-0.000
278.47	-0.000
278.69	-0.000
278.90	-0.000
279.11	-0.000
279.32	-0.000
279.53	-0.000
279.74	-0.000
279.96	-0.000
280.17	-0.000
280.38	-0.000
280.59	-0.000
280.80	-0.000
281.02	-0.000
281.23	-0.000
281.44	-0.000
281.65	-0.000
281.86	-0.000
282.07	-0.000
282.29	-0.000
282.50	-0.000
282.71	-0.000
282.92	-0.000
283.13	-0.000
283.35	-0.000
283.56	-0.000
283.77	-0.000
283.98	-0.000
284.19	-0.000
284.40	-0.000
284.62	-0.000
284.83	-0.000
285.04	-0.000
285.25	-0.000
285.46	-0.000
285.67	-0.000
285.88	-0.000
286.10	-0.000
286.31	-0.000
286.52	-0.000
286.73	-0.000
286.94	-0.000
287.15	-0.000
287.37	-0.000
287.58	-0.000
287.79	-0.000
288.00	-0.000
288.21	-0.000
288.42	-0.000
288.63	-0.000
288.85	-0.000
289.06	-0.000
289.27	-0.000
289.48	-0.000
289.69	-0.000
289.90	-0.000
290.11	-0.000
290.33	-0.000
290.54	-0.000
290.75	-0.000
290.96	-0.000
291.17	-0.000
291.38	-0.000
291.59	-0.000
291.81	-0.000
292.02	-0.000
292.23	-0.000
292.44	-0.000
292.65	-0.000
292.86	-0.000
293.07	-0.000
293.28	-0.000
293.50	-0.000
293.71	-0.000
293.92	-0.000
294.13	-0.000
294.34	-0.000
294.55	-0.000
294.76	-0.000
294.97	-0.000
295.19	-0.000
295.40	-0.000
295.61	-0.000
295.82	-0.000
296.03	-0.000
296.24	-0.000
296.45	-0.000
296.66	2.106
296.87	2.146
297.09	2.335
297.30	3.516
297.51	1.939
297.72	1.878
297.93	2.040
298.14	1.952
298.35	1.879
298.56	1.838
298.77	2.041
298.99	1.971
299.20	1.922
299.41	1.898
299.62	1.847
299.83	1.828
300.04	1.723
300.25	1.712
300.46	1.783
300.67	1.741
300.88	1.669
301.10	1.669
301.31	1.765
301.52	1.677
301.73	1.588
301.94	1.595
302.15	1.614
302.36	1.559
302.57	1.478
302.78	1.480
302.99	1.533
303.20	1.553
303.41	1.450
303.63	1.428
303.84	1.438
304.05	1.438
304.26	1.363
304.47	1.371
304.68	1.376
304.89	1.365
305.10	1.320
305.31	1.299
305.52	1.347
305.73	1.341
305.94	1.301
306.15	1.290
306.37	1.316
306.58	1.326
306.79	1.289
307.00	1.315
307.21	1.361
307.42	1.355
307.63	1.319
307.84	1.280
308.05	1.320
308.26	1.321
308.47	1.296
308.68	1.287
308.89	1.286
309.10	1.285
309.31	1.240
309.52	1.229
309.73	1.245
309.95	1.238
310.16	1.206
310.37	1.191
310.58	1.208
310.79	1.207
311.00	1.205
311.21	1.208
311.42	1.212
311.63	1.205
311.84	1.183
312.05	1.179
312.26	1.202
312.47	1.215
312.68	1.192
312.89	1.175
313.10	1.180
313.31	1.152
313.52	1.151
313.73	1.151
313.94	1.155
314.15	1.139
314.36	1.117
314.57	1.111
314.78	1.097
314.99	1.092
315.21	1.078
315.42	1.083
315.63	1.098
315.84	1.075
316.05	1.061
316.26	1.070
316.47	1.088
316.68	1.084
316.89	1.062
317.10	1.085
317.31	1.090
317.52	1.092
317.73	1.071
317.94	1.067
318.15	1.111
318.36	1.110
318.57	1.089
318.78	1.076
318.99	1.110
319.20	1.107
319.41	1.072
319.62	1.075
319.83	1.088
320.04	1.082
320.25	1.067
320.46	1.035
320.67	1.040
320.88	1.038
321.09	1.023
321.30	1.008
321.51	1.023
321.72	1.021
321.93	1.002
322.14	0.994
322.35	1.022
322.56	1.026
322.77	1.012
322.98	1.021
323.19	1.027
323.40	1.035
323.61	1.014
323.82	1.008
324.03	1.015
324.24	1.012
324.45	1.000
324.66	0.980
324.87	0.975
325.08	0.974
325.29	0.955
325.50	0.949
325.71	0.953
325.92	0.962
326.13	0.949
326.34	0.949
326.55	0.957
326.76	0.956
326.97	0.947
327.18	0.941
327.39	0.967
327.60	0.967
327.80	0.969
328.01	0.966
328.22	0.966
328.43	0.969
328.64	0.956
328.85	0.960
329.06	0.963
329.27	0.961
329.48	0.957
329.69	0.937
329.90	0.948
330.11	0.940
330.32	0.933
330.53	0.926
330.74	0.926
330.95	0.925
331.16	0.911
331.37	0.918
331.58	0.919
331.79	0.918
332.00	0.911
332.21	0.904
332.42	0.910
332.63	0.900
332.83	0.895
333.04	0.896
333.25	0.909
333.46	0.906
333.67	0.891
333.88	0.893
334.09	0.903
334.30	0.899
334.51	0.890
334.72	0.885
334.93	0.889
335.14	0.888
335.35	0.881
335.56	0.876
335.77	0.885
335.98	0.885
336.18	0.878
336.39	0.872
336.60	0.876
336.81	0.874
337.02	0.873
337.23	0.878
337.44	0.881
337.65	0.883
337.86	0.873
338.07	0.868
338.28	0.873
338.49	0.870
338.70	0.863
338.91	0.869
339.11	0.877
339.32	0.873
339.53	0.861
339.74	0.858
339.95	0.855
340.16	0.853
340.37	0.845
340.58	0.843
340.79	0.848
341.00	0.848
341.21	0.837
341.41	0.837
341.62	0.839
341.83	0.840
342.04	0.835
342.25	0.845
342.46	0.850
342.67	0.849
342.88	0.842
343.09	0.841
343.30	0.848
343.50	0.851
343.71	0.841
343.92	0.839
344.13	0.843
344.34	0.842
344.55	0.827
344.76	0.826
344.97	0.831
345.18	0.829
345.38	0.826
345.59	0.822
345.80	0.821
346.01	0.819
346.22	0.815
346.43	0.809
346.64	0.817
346.85	0.816
347.06	0.810
347.26	0.809
347.47	0.813
347.68	0.809
347.89	0.803
348.10	0.798
348.31	0.805
348.52	0.804
348.73	0.802
348.93	0.799
349.14	0.802
349.35	0.800
349.56	0.794
349.77	0.789
349.98	0.795
350.19	0.793
350.39	0.788
350.60	0.784
350.81	0.799
351.02	0.798
351.23	0.794
351.44	0.796
351.65	0.801
351.86	0.799
352.06	0.798
352.27	0.798
352.48	0.800
352.69	0.800
352.90	0.795
353.11	0.781
353.31	0.789
353.52	0.785
353.73	0.776
353.94	0.776
354.15	0.782
354.36	0.782
354.57	0.773
354.77	0.776
354.98	0.774
355.19	0.774
355.40	0.774
355.61	0.779
355.82	0.783
356.02	0.783
356.23	0.776
356.44	0.777
356.65	0.780
356.86	0.781
357.07	0.774
357.27	0.779
357.48	0.780
357.69	0.776
357.90	0.761
358.11	0.758
358.32	0.762
358.52	0.766
358.73	0.756
358.94	0.759
359.15	0.764
359.36	0.764
359.56	0.759
359.77	0.757
359.98	0.764
360.19	0.762
360.40	0.759
360.61	0.759
360.81	0.757
361.02	0.758
361.23	0.749
361.44	0.748
361.65	0.748
361.85	0.747
362.06	0.745
362.27	0.747
362.48	0.748
362.69	0.750
362.89	0.744
363.10	0.745
363.31	0.751
363.52	0.753
363.73	0.748
363.93	0.749
364.14	0.750
364.35	0.751
364.56	0.742
364.77	0.743
364.97	0.746
365.18	0.747
365.39	0.742
365.60	0.738
365.81	0.738
366.01	0.739
366.22	0.736
366.43	0.735
366.64	0.738
366.84	0.744
367.05	0.740
367.26	0.739
367.47	0.741
367.68	0.742
367.88	0.739
368.09	0.737
368.30	0.740
368.51	0.739
368.71	0.739
368.92	0.743
369.13	0.741
369.34	0.741
369.55	0.740
369.75	0.740
369.96	0.746
370.17	0.745
370.38	0.741
370.58	0.740
370.79	0.746
371.00	0.744
371.21	0.735
371.41	0.740
371.62	0.744
371.83	0.740
372.04	0.738
372.24	0.732
372.45	0.733
372.66	0.734
372.87	0.730
373.07	0.727
373.28	0.728
373.49	0.732
373.70	0.722
373.90	0.720
374.11	0.730
374.32	0.730
374.53	0.728
374.73	0.728
374.94	0.731
375.15	0.731
375.36	0.728
375.56	0.737
375.77	0.737
375.98	0.738
376.19	0.735
376.39	0.729
376.60	0.732
376.81	0.732
377.02	0.730
377.22	0.729
377.43	0.729
377.64	0.729
377.84	0.719
378.05	0.723
378.26	0.729
378.47	0.728
378.67	0.725
378.88	0.724
379.09	0.725
379.30	0.725
379.50	0.723
379.71	0.726
379.92	0.729
380.12	0.728
380.33	0.720
380.54	0.717
380.75	0.724
380.95	0.724
381.16	0.721
381.37	0.721
381.57	0.723
381.78	0.723
381.99	0.722
382.20	0.722
382.40	0.725
382.61	0.725
382.82	0.721
383.02	0.715
383.23	0.717
383.44	0.718
383.64	0.715
383.85	0.718
384.06	0.721
384.27	0.719
384.47	0.717
384.68	0.717
384.89	0.723
385.09	0.723
385.30	0.722
385.51	0.721
385.71	0.725
385.92	0.725
386.13	0.724
386.33	0.725
386.54	0.726
386.75	0.725
386.95	0.721
387.16	0.716
387.37	0.719
387.58	0.718
387.78	0.716
387.99	0.713
388.20	0.715
388.40	0.712
388.61	0.709
388.82	0.712
389.02	0.714
389.23	0.715
389.44	0.714
389.64	0.714
389.85	0.726
390.06	0.726
390.26	0.727
390.47	0.725
390.68	0.728
390.88	0.726
391.09	0.722
391.30	0.721
391.50	0.720
391.71	0.720
391.92	0.717
392.12	0.709
392.33	0.709
392.53	0.709
392.74	0.709
392.95	0.708
393.15	0.711
393.36	0.712
393.57	0.710
393.77	0.713
393.98	0.714
394.19	0.714
394.39	0.713
394.60	0.715
394.81	0.717
395.01	0.715
395.22	0.714
395.43	0.714
395.63	0.719
395.84	0.720
396.04	0.716
396.25	0.718
396.46	0.720
396.66	0.718
396.87	0.716
397.08	0.712
397.28	0.715
397.49	0.716
397.69	0.712
397.90	0.708
398.11	0.709
398.31	0.709
398.52	0.706
398.73	0.707
398.93	0.706
399.14	0.705
399.34	0.704
399.55	0.704
399.76	0.704
399.96	0.706
400.17	0.704
400.37	0.702
400.58	0.708
400.79	0.710
400.99	0.707
401.20	0.712
401.41	0.714
401.61	0.715
401.82	0.720
402.02	0.720
402.23	0.721
402.44	0.721
402.64	0.722
402.85	0.716
403.05	0.716
403.26	0.715
403.47	0.709
403.67	0.708
403.88	0.708
404.08	0.702
404.29	0.700
404.50	0.700
404.70	0.700
404.91	0.699
405.11	0.695
405.32	0.696
405.52	0.696
405.73	0.697
405.94	0.695
406.14	0.697
406.35	0.699
406.55	0.698
406.76	0.696
406.97	0.696
407.17	0.699
407.38	0.699
407.58	0.698
407.79	0.700
407.99	0.703
408.20	0.704
408.41	0.700
408.61	0.698
408.82	0.699
409.02	0.699
409.23	0.697
409.43	0.697
409.64	0.699
409.84	0.698
410.05	0.694
410.26	0.692
410.46	0.692
410.67	0.691
410.87	0.692
411.08	0.695
411.28	0.696
411.49	0.698
411.69	0.695
411.90	0.696
412.11	0.698
412.31	0.699
412.52	0.697
412.72	0.698
412.93	0.698
413.13	0.697
413.34	0.693
413.54	0.695
413.75	0.696
413.95	0.695
414.16	0.693
414.37	0.695
414.57	0.696
414.78	0.698
414.98	0.697
415.19	0.698
415.39	0.696
415.60	0.697
415.80	0.696
416.01	0.694
416.21	0.696
416.42	0.696
416.62	0.691
416.83	0.691
417.03	0.690
417.24	0.690
417.44	0.687
417.65	0.687
417.86	0.688
418.06	0.686
418.27	0.684
418.47	0.686
418.68	0.687
418.88	0.687
419.09	0.685
419.29	0.686
419.50	0.687
419.70	0.686
419.91	0.685
420.11	0.682
420.32	0.685
420.52	0.686
420.73	0.684
420.93	0.685
421.14	0.687
421.34	0.686
421.55	0.683
421.75	0.683
421.96	0.684
422.16	0.684
422.37	0.684
422.57	0.681
422.78	0.682
422.98	0.679
423.19	0.676
423.39	0.675
423.60	0.679
423.80	0.680
424.01	0.678
424.21	0.680
424.42	0.681
424.62	0.680
424.83	0.679
425.03	0.679
425.23	0.681
425.44	0.681
425.64	0.682
425.85	0.680
426.05	0.681
426.26	0.682
426.46	0.679
426.67	0.678
426.87	0.684
427.08	0.684
427.28	0.682
427.49	0.683
427.69	0.684
427.90	0.682
428.10	0.680
428.31	0.680
428.51	0.681
428.71	0.680
428.92	0.681
429.12	0.678
429.33	0.679
429.53	0.683
429.74	0.687
429.94	0.686
430.15	0.686
430.35	0.686
430.56	0.683
430.76	0.682
430.96	0.683
431.17	0.681
431.37	0.677
431.58	0.676
431.78	0.673
431.99	0.666
432.19	0.669
432.40	0.671
432.60	0.671
432.80	0.674
433.01	0.673
433.21	0.672
433.42	0.675
433.62	0.676
433.83	0.675
434.03	0.678
434.23	0.682
434.44	0.680
434.64	0.678
434.85	0.683
435.05	0.684
435.26	0.684
435.46	0.682
435.66	0.681
435.87	0.681
436.07	0.680
436.28	0.676
436.48	0.673
436.69	0.672
436.89	0.672
437.09	0.666
437.30	0.666
437.50	0.666
437.71	0.679
437.91	0.678
438.11	0.679
438.32	0.683
438.52	0.683
438.73	0.682
438.93	0.681
439.13	0.681
439.34	0.684
439.54	0.681
439.75	0.681
439.95	0.670
440.15	0.674
440.36	0.673
440.56	0.670
440.77	0.672
440.97	0.672
441.17	0.672
441.38	0.673
441.58	0.670
441.79	0.670
441.99	0.669
442.19	0.668
442.40	0.666
442.60	0.666
442.81	0.663
443.01	0.664
443.21	0.664
443.42	0.663
443.62	0.661
443.82	0.661
444.03	0.662
444.23	0.661
444.44	0.662
444.64	0.661
444.84	0.663
445.05	0.662
445.25	0.660
445.45	0.660
445.66	0.663
445.86	0.662
446.06	0.664
446.27	0.663
446.47	0.667
446.68	0.665
446.88	0.664
447.08	0.662
447.29	0.665
447.49	0.665
447.69	0.664
447.90	0.663
448.10	0.666
448.30	0.663
448.51	0.665
448.71	0.662
448.91	0.664
449.12	0.663
449.32	0.665
449.52	0.664
449.73	0.668
449.93	0.667
450.14	0.667
450.34	0.667
450.54	0.669
450.75	0.666
450.95	0.666
451.15	0.665
451.36	0.668
451.56	0.664
451.76	0.663
451.97	0.660
452.17	0.661
452.37	0.659
452.58	0.656
452.78	0.656
452.98	0.658
453.19	0.658
453.39	0.659
453.59	0.658
453.79	0.660
454.00	0.660
454.20	0.658
454.40	0.659
454.61	0.661
454.81	0.661
455.01	0.659
455.22	0.660
455.42	0.662
455.62	0.660
455.83	0.659
456.03	0.662
456.23	0.663
456.44	0.665
456.64	0.664
456.84	0.663
457.04	0.664
457.25	0.663
457.45	0.660
457.65	0.659
457.86	0.660
458.06	0.659
458.26	0.654
458.47	0.653
458.67	0.655
458.87	0.655
459.07	0.653
459.28	0.654
459.48	0.657
459.68	0.657
459.89	0.655
460.09	0.654
460.29	0.655
460.49	0.656
460.70	0.655
460.90	0.655
461.10	0.655
461.31	0.655
461.51	0.652
461.71	0.654
461.91	0.655
462.12	0.655
462.32	0.654
462.52	0.655
462.72	0.657
462.93	0.658
463.13	0.657
463.33	0.657
463.53	0.659
463.74	0.658
463.94	0.654
464.14	0.655
464.35	0.657
464.55	0.657
464.75	0.654
464.95	0.652
465.16	0.654
465.36	0.653
465.56	0.652
465.76	0.651
465.97	0.652
466.17	0.653
466.37	0.650
466.57	0.651
466.78	0.653
466.98	0.653
467.18	0.651
467.38	0.650
467.59	0.652
467.79	0.653
467.99	0.652
468.19	0.653
468.39	0.656
468.60	0.657
468.80	0.655
469.00	0.656
469.20	0.657
469.41	0.658
469.61	0.657
469.81	0.657
470.01	0.657
470.22	0.657
470.42	0.655
470.62	0.653
470.82	0.653
471.02	0.653
471.23	0.651
471.43	0.651
471.63	0.653
471.83	0.653
472.04	0.651
472.24	0.650
472.44	0.655
472.64	0.655
472.84	0.653
473.05	0.653
473.25	0.656
473.45	0.655
473.65	0.653
473.85	0.653
474.06	0.655
474.26	0.655
474.46	0.656
474.66	0.653
474.86	0.654
475.07	0.654
475.27	0.652
475.47	0.649
475.67	0.650
475.87	0.652
476.08	0.648
476.28	0.649
476.48	0.651
476.68	0.649
476.88	0.647
477.09	0.648
477.29	0.650
477.49	0.650
477.69	0.650
477.89	0.650
478.09	0.650
478.30	0.652
478.50	0.649
478.70	0.648
478.90	0.649
479.10	0.651
479.31	0.652
479.51	0.649
479.71	0.650
479.91	0.651
480.11	0.649
480.31	0.649
480.52	0.648
480.72	0.648
480.92	0.647
481.12	0.646
481.32	0.644
481.52	0.642
481.72	0.643
481.93	0.646
482.13	0.646
482.33	0.646
482.53	0.644
482.73	0.645
482.93	0.646
483.14	0.646
483.34	0.645
483.54	0.646
483.74	0.645
483.94	0.644
484.14	0.640
484.34	0.640
484.55	0.641
484.75	0.640
484.95	0.638
485.15	0.637
485.35	0.637
485.55	0.637
485.75	0.635
485.96	0.635
486.16	0.637
486.36	0.636
486.56	0.635
486.76	0.635
486.96	0.636
487.16	0.635
487.36	0.633
487.57	0.633
487.77	0.634
487.97	0.635
488.17	0.633
488.37	0.632
488.57	0.632
488.77	0.632
488.97	0.631
489.18	0.630
489.38	0.633
489.58	0.633
489.78	0.632
489.98	0.632
490.18	0.631
490.38	0.632
490.58	0.630
490.78	0.630
490.98	0.632
491.19	0.632
491.39	0.632
491.59	0.630
491.79	0.634
491.99	0.634
492.19	0.634
492.39	0.637
492.59	0.637
492.79	0.640
492.99	0.640
493.20	0.640
493.40	0.641
493.60	0.642
493.80	0.641
494.00	0.638
494.20	0.639
494.40	0.639
494.60	0.637
494.80	0.641
495.00	0.640
495.20	0.639
495.40	0.638
495.61	0.639
495.81	0.639
496.01	0.642
496.21	0.643
496.41	0.642
496.61	0.643
496.81	0.642
497.01	0.636
497.21	0.635
497.41	0.636
497.61	0.636
497.81	0.633
498.01	0.633
498.21	0.632
498.41	0.630
498.61	0.630
498.82	0.631
499.02	0.633
499.22	0.634
499.42	0.634
499.62	0.635
499.82	0.636
500.02	0.637
500.22	0.636
500.42	0.638
500.62	0.638
500.82	0.639
501.02	0.637
501.22	0.637
501.42	0.636
501.62	0.638
501.82	0.637
502.02	0.637
502.22	0.637
502.42	0.639
502.62	0.636
502.82	0.636
503.02	0.636
503.22	0.636
503.42	0.635
503.63	0.635
503.83	0.634
504.03	0.633
504.23	0.631
504.43	0.631
504.63	0.633
504.83	0.632
505.03	0.631
505.23	0.633
505.43	0.635
505.63	0.635
505.83	0.635
506.03	0.636
506.23	0.638
506.43	0.638
506.63	0.637
506.83	0.636
507.03	0.638
507.23	0.638
507.43	0.635
507.63	0.635
507.83	0.636
508.03	0.636
508.23	0.636
508.43	0.634
508.63	0.636
508.83	0.637
509.03	0.638
509.23	0.637
509.43	0.638
509.63	0.639
509.83	0.637
510.03	0.640
510.23	0.642
510.43	0.643
510.63	0.643
510.83	0.643
511.03	0.645
511.23	0.642
511.43	0.641
511.63	0.643
511.83	0.646
512.03	0.646
512.22	0.642
512.42	0.641
512.62	0.642
512.82	0.641
513.02	0.640
513.22	0.640
513.42	0.642
513.62	0.645
513.82	0.643
514.02	0.642
514.22	0.643
514.42	0.644
514.62	0.643
514.82	0.644
515.02	0.647
515.22	0.650
515.42	0.649
515.62	0.651
515.82	0.650
516.02	0.652
516.22	0.651
516.42	0.652
516.62	0.654
516.82	0.655
517.01	0.653
517.21	0.653
517.41	0.656
517.61	0.656
517.81	0.652
518.01	0.651
518.21	0.651
518.41	0.650
518.61	0.649
518.81	0.650
519.01	0.651
519.21	0.651
519.41	0.650
519.61	0.644
519.81	0.647
520.00	0.647
520.20	0.648
520.40	0.651
520.60	0.652
520.80	0.651
521.00	0.651
521.20	0.652
521.40	0.657
521.60	0.658
521.80	0.657
522.00	0.656
522.20	0.659
522.39	0.658
522.59	0.655
522.79	0.656
522.99	0.659
523.19	0.657
523.39	0.654
523.59	0.653
523.79	0.656
523.99	0.658
524.19	0.657
524.38	0.656
524.58	0.657
524.78	0.658
524.98	0.656
525.18	0.658
525.38	0.659
525.58	0.660
525.78	0.657
525.98	0.656
526.18	0.656
526.37	0.656
526.57	0.658
526.77	0.657
526.97	0.659
527.17	0.658
527.37	0.654
527.57	0.656
527.77	0.658
527.96	0.658
528.16	0.657
528.36	0.657
528.56	0.659
528.76	0.657
528.96	0.656
529.16	0.657
529.36	0.661
529.55	0.660
529.75	0.657
529.95	0.657
530.15	0.658
530.35	0.661
530.55	0.658
530.75	0.658
530.94	0.659
531.14	0.659
531.34	0.658
531.54	0.655
531.74	0.659
531.94	0.662
532.13	0.660
532.33	0.663
532.53	0.661
532.73	0.661
532.93	0.659
533.13	0.660
533.33	0.660
533.52	0.660
533.72	0.664
533.92	0.662
534.12	0.660
534.32	0.661
534.52	0.659
534.71	0.661
534.91	0.664
535.11	0.666
535.31	0.664
535.51	0.666
535.71	0.668
535.90	0.665
536.10	0.667
536.30	0.669
536.50	0.670
536.70	0.669
536.89	0.667
537.09	0.666
537.29	0.667
537.49	0.668
537.69	0.666
537.89	0.667
538.08	0.667
538.28	0.665
538.48	0.665
538.68	0.667
538.88	0.669
539.07	0.669
539.27	0.667
539.47	0.667
539.67	0.667
539.87	0.668
540.06	0.666
540.26	0.667
540.46	0.669
540.66	0.666
540.86	0.663
541.05	0.664
541.25	0.666
541.45	0.666
541.65	0.664
541.84	0.666
542.04	0.667
542.24	0.667
542.44	0.666
542.64	0.667
542.83	0.670
543.03	0.670
543.23	0.668
543.43	0.669
543.62	0.670
543.82	0.671
544.02	0.669
544.22	0.669
544.42	0.673
544.61	0.673
544.81	0.670
545.01	0.669
545.21	0.671
545.40	0.672
545.60	0.670
545.80	0.673
546.00	0.673
546.19	0.672
546.39	0.671
546.59	0.668
546.79	0.670
546.98	0.670
547.18	0.670
547.38	0.670
547.58	0.673
547.77	0.673
547.97	0.669
548.17	0.671
548.37	0.670
548.56	0.671
548.76	0.670
548.96	0.672
549.16	0.674
549.35	0.674
549.55	0.671
549.75	0.672
549.95	0.675
550.14	0.675
550.34	0.673
550.54	0.679
550.73	0.682
550.93	0.683
551.13	0.680
551.33	0.679
551.52	0.681
551.72	0.681
551.92	0.679
552.12	0.680
552.31	0.681
552.51	0.681
552.71	0.676
552.90	0.676
553.10	0.677
553.30	0.677
553.50	0.676
553.69	0.677
553.89	0.677
554.09	0.677
554.28	0.673
554.48	0.674
554.68	0.676
554.87	0.676
555.07	0.673
555.27	0.673
555.47	0.675
555.66	0.675
555.86	0.675
556.06	0.677
556.25	0.679
556.45	0.686
556.65	0.685
556.84	0.687
557.04	0.691
557.24	0.693
557.43	0.693
557.63	0.695
557.83	0.697
558.02	0.697
558.22	0.700
558.42	0.701
558.61	0.694
558.81	0.695
559.01	0.691
559.21	0.691
559.40	0.692
559.60	0.692
559.80	0.689
559.99	0.689
560.19	0.692
560.39	0.686
560.58	0.684
560.78	0.684
560.97	0.687
561.17	0.686
561.37	0.683
561.56	0.684
561.76	0.685
561.96	0.685
562.15	0.682
562.35	0.685
562.55	0.686
562.74	0.685
562.94	0.684
563.14	0.682
563.33	0.683
563.53	0.683
563.73	0.680
563.92	0.682
564.12	0.684
564.31	0.686
564.51	0.684
564.71	0.687
564.90	0.689
565.10	0.690
565.30	0.693
565.49	0.695
565.69	0.698
565.89	0.698
566.08	0.695
566.28	0.697
566.47	0.699
566.67	0.696
566.87	0.693
567.06	0.695
567.26	0.701
567.46	0.696
567.65	0.695
567.85	0.696
568.04	0.700
568.24	0.698
568.44	0.695
568.63	0.694
568.83	0.696
569.02	0.694
569.22	0.690
569.42	0.686
569.61	0.689
569.81	0.687
570.00	0.685
570.20	0.686
570.40	0.688
570.59	0.688
570.79	0.685
570.98	0.683
571.18	0.684
571.38	0.684
571.57	0.680
571.77	0.678
571.96	0.682
572.16	0.679
572.35	0.674
572.55	0.675
572.75	0.673
572.94	0.673
573.14	0.671
573.33	0.672
573.53	0.672
573.73	0.672
573.92	0.670
574.12	0.668
574.31	0.670
574.51	0.670
574.70	0.668
574.90	0.670
575.09	0.672
575.29	0.672
575.49	0.669
575.68	0.669
575.88	0.671
576.07	0.672
576.27	0.670
576.46	0.669
576.66	0.669
576.86	0.668
577.05	0.666
577.25	0.664
577.44	0.666
577.64	0.666
577.83	0.664
578.03	0.665
578.22	0.665
578.42	0.664
578.61	0.663
578.81	0.664
579.00	0.664
579.20	0.664
579.40	0.663
579.59	0.661
579.79	0.662
579.98	0.661
580.18	0.660
580.37	0.659
580.57	0.662
580.76	0.666
580.96	0.663
581.15	0.664
581.35	0.666
581.54	0.665
581.74	0.665
581.93	0.667
582.13	0.668
582.32	0.666
582.52	0.664
582.71	0.664
582.91	0.660
583.10	0.660
583.30	0.659
583.49	0.659
583.69	0.663
583.88	0.663
584.08	0.662
584.27	0.664
584.47	0.667
584.66	0.668
584.86	0.666
585.05	0.669
585.25	0.671
585.44	0.670
585.64	0.669
585.83	0.666
586.03	0.667
586.22	0.665
586.42	0.661
586.61	0.663
586.81	0.665
587.00	0.665
587.20	0.662
587.39	0.663
587.59	0.665
587.78	0.666
587.98	0.667
588.17	0.668
588.37	0.670
588.56	0.673
588.76	0.668
588.95	0.668
589.15	0.673
589.34	0.675
589.54	0.673
589.73	0.674
589.92	0.677
590.12	0.677
590.31	0.675
590.51	0.680
590.70	0.681
590.90	0.682
591.09	0.680
591.29	0.679
591.48	0.679
591.68	0.680
591.87	0.678
592.06	0.678
592.26	0.681
592.45	0.680
592.65	0.673
592.84	0.672
593.04	0.675
593.23	0.677
593.43	0.675
593.62	0.674
593.81	0.674
594.01	0.673
594.20	0.670
594.40	0.670
594.59	0.672
594.79	0.673
594.98	0.672
595.17	0.671
595.37	0.672
595.56	0.674
595.76	0.673
595.95	0.675
596.14	0.679
596.34	0.681
596.53	0.679
596.73	0.680
596.92	0.682
597.12	0.685
597.31	0.684
597.50	0.683
597.70	0.685
597.89	0.685
598.09	0.681
598.28	0.682
598.47	0.684
598.67	0.682
598.86	0.678
599.06	0.680
599.25	0.681
599.44	0.679
599.64	0.675
599.83	0.673
600.03	0.676
600.22	0.677
600.41	0.676
600.61	0.675
600.80	0.678
601.00	0.678
601.19	0.674
601.38	0.672
601.58	0.675
601.77	0.677
601.96	0.679
602.16	0.679
602.35	0.688
602.55	0.685
602.74	0.685
602.93	0.687
603.13	0.692
603.32	0.694
603.51	0.693
603.71	0.697
603.90	0.699
604.09	0.700
604.29	0.697
604.48	0.691
604.68	0.692
604.87	0.691
605.06	0.687
605.26	0.684
605.45	0.685
605.64	0.684
605.84	0.678
606.03	0.677
606.22	0.675
606.42	0.674
606.61	0.671
606.80	0.671
607.00	0.673
607.19	0.673
607.38	0.671
607.58	0.672
607.77	0.675
607.96	0.675
608.16	0.674
608.35	0.679
608.54	0.682
608.74	0.685
608.93	0.691
609.12	0.694
609.32	0.697
609.51	0.701
609.70	0.699
609.90	0.701
610.09	0.706
610.28	0.711
610.48	0.704
610.67	0.705
610.86	0.705
611.06	0.699
611.25	0.696
611.44	0.698
611.64	0.697
611.83	0.700
612.02	0.696
612.21	0.696
612.41	0.694
612.60	0.694
612.79	0.690
612.99	0.691
613.18	0.693
613.37	0.691
613.57	0.688
613.76	0.690
613.95	0.688
614.14	0.687
614.34	0.684
614.53	0.685
614.72	0.688
614.92	0.688
615.11	0.685
615.30	0.683
615.49	0.684
615.69	0.686
615.88	0.682
616.07	0.683
616.26	0.686
616.46	0.687
616.65	0.684
616.84	0.683
617.04	0.684
617.23	0.688
617.42	0.688
617.61	0.692
617.81	0.693
618.00	0.695
618.19	0.693
618.38	0.697
618.58	0.701
618.77	0.702
618.96	0.701
619.15	0.703
619.35	0.705
619.54	0.706
619.73	0.701
619.92	0.702
620.12	0.707
620.31	0.707
620.50	0.702
620.69	0.702
620.89	0.706
621.08	0.706
621.27	0.706
621.46	0.705
621.66	0.709
621.85	0.709
622.04	0.705
622.23	0.706
622.43	0.706
622.62	0.706
622.81	0.705
623.00	0.704
623.19	0.708
623.39	0.707
623.58	0.703
623.77	0.702
623.96	0.705
624.16	0.705
624.35	0.700
624.54	0.703
624.73	0.706
624.92	0.704
625.12	0.701
625.31	0.702
625.50	0.705
625.69	0.706
625.88	0.702
626.08	0.701
626.27	0.703
626.46	0.704
626.65	0.701
626.84	0.701
627.04	0.707
627.23	0.708
627.42	0.703
627.61	0.704
627.80	0.708
628.00	0.708
628.19	0.706
628.38	0.710
628.57	0.713
628.76	0.712
628.96	0.709
629.15	0.710
629.34	0.713
629.53	0.712
629.72	0.707
629.91	0.707
630.11	0.712
630.30	0.713
630.49	0.715
630.68	0.715
630.87	0.718
631.06	0.720
631.26	0.714
631.45	0.716
631.64	0.725
631.83	0.726
632.02	0.724
632.21	0.722
632.41	0.729
632.60	0.723
632.79	0.722
632.98	0.723
633.17	0.724
633.36	0.726
633.55	0.722
633.75	0.718
633.94	0.720
634.13	0.720
634.32	0.717
634.51	0.711
634.70	0.714
634.89	0.714
635.09	0.710
635.28	0.712
635.47	0.714
635.66	0.718
635.85	0.714
636.04	0.716
636.23	0.721
636.43	0.722
636.62	0.721
636.81	0.720
637.00	0.722
637.19	0.725
637.38	0.722
637.57	0.721
637.76	0.722
637.95	0.723
638.15	0.719
638.34	0.715
638.53	0.720
638.72	0.722
638.91	0.719
639.10	0.716
639.29	0.717
639.48	0.718
639.67	0.716
639.87	0.716
640.06	0.722
640.25	0.722
640.44	0.723
640.63	0.722
640.82	0.724
641.01	0.724
641.20	0.723
641.39	0.724
641.58	0.726
641.78	0.725
641.97	0.721
642.16	0.735
642.35	0.736
642.54	0.735
642.73	0.730
642.92	0.728
643.11	0.732
643.30	0.732
643.49	0.727
643.68	0.730
643.87	0.733
644.06	0.733
644.25	0.712
644.45	0.713
644.64	0.715
644.83	0.715
645.02	0.712
645.21	0.712
645.40	0.714
645.59	0.713
645.78	0.707
645.97	0.708
646.16	0.709
646.35	0.709
646.54	0.708
646.73	0.710
646.92	0.711
647.11	0.710
647.30	0.706
647.49	0.707
647.68	0.707
647.88	0.705
648.07	0.699
648.26	0.703
648.45	0.704
648.64	0.700
648.83	0.697
649.02	0.699
649.21	0.709
649.40	0.708
649.59	0.703
649.78	0.703
649.97	0.719
650.16	0.718
650.35	0.711
650.54	0.713
650.73	0.722
650.92	0.719
651.11	0.713
651.30	0.711
651.49	0.716
651.68	0.717
651.87	0.714
652.06	0.703
652.25	0.706
652.44	0.709
652.63	0.706
652.82	0.706
653.01	0.705
653.20	0.702
653.39	0.689
653.58	0.687
653.77	0.686
653.96	0.682
654.15	0.674
654.34	0.672
654.53	0.667
654.72	0.661
654.91	0.652
655.10	0.648
655.29	0.646
655.48	0.645
655.67	0.639
655.86	0.636
656.05	0.635
656.24	0.634
656.43	0.629
656.62	0.628
656.81	0.629
657.00	0.626
657.19	0.623
657.38	0.623
657.57	0.623
657.76	0.625
657.95	0.623
658.14	0.626
658.33	0.629
658.51	0.634
658.70	0.634
658.89	0.636
659.08	0.645
659.27	0.653
659.46	0.653
659.65	0.659
659.84	0.662
660.03	0.666
660.22	0.667
660.41	0.671
660.60	0.671
660.79	0.672
660.98	0.678
661.17	0.677
661.36	0.676
661.55	0.677
661.74	0.675
661.92	0.679
662.11	0.681
662.30	0.680
662.49	0.674
662.68	0.674
662.87	0.677
663.06	0.672
663.25	0.673
663.44	0.673
663.63	0.674
663.82	0.672
664.01	0.667
664.20	0.666
664.38	0.668
664.57	0.668
664.76	0.667
664.95	0.668
665.14	0.672
665.33	0.667
665.52	0.675
665.71	0.678
665.90	0.679
666.09	0.680
666.28	0.677
666.46	0.676
666.65	0.677
666.84	0.676
667.03	0.670
667.22	0.668
667.41	0.670
667.60	0.660
667.79	0.653
667.98	0.654
668.16	0.655
668.35	0.655
668.54	0.652
668.73	0.654
668.92	0.654
669.11	0.653
669.30	0.646
669.49	0.643
669.67	0.644
669.86	0.646
670.05	0.644
670.24	0.641
670.43	0.638
670.62	0.636
670.81	0.631
671.00	0.631
671.18	0.632
671.37	0.632
671.56	0.630
671.75	0.630
671.94	0.627
672.13	0.626
672.32	0.621
672.50	0.621
672.69	0.622
672.88	0.622
673.07	0.617
673.26	0.619
673.45	0.620
673.63	0.619
673.82	0.615
674.01	0.617
674.20	0.617
674.39	0.617
674.58	0.616
674.76	0.616
674.95	0.615
675.14	0.614
675.33	0.610
675.52	0.608
675.71	0.608
675.89	0.607
676.08	0.603
676.27	0.602
676.46	0.603
676.65	0.602
676.84	0.601
677.02	0.603
677.21	0.605
677.40	0.604
677.59	0.602
677.78	0.603
677.96	0.606
678.15	0.605
678.34	0.603
678.53	0.604
678.72	0.604
678.90	0.601
679.09	0.596
679.28	0.593
679.47	0.593
679.66	0.593
679.84	0.589
680.03	0.587
680.22	0.586
680.41	0.588
680.60	0.584
680.78	0.583
680.97	0.585
681.16	0.585
681.35	0.583
681.53	0.582
681.72	0.584
681.91	0.585
682.10	0.584
682.29	0.586
682.47	0.583
682.66	0.583
682.85	0.581
683.04	0.580
683.22	0.580
683.41	0.582
683.60	0.581
683.79	0.582
683.97	0.581
684.16	0.580
684.35	0.576
684.54	0.578
684.72	0.578
684.91	0.579
685.10	0.578
685.29	0.579
685.47	0.576
685.66	0.575
685.85	0.571
686.04	0.571
686.22	0.573
686.41	0.576
686.60	0.573
686.79	0.576
686.97	0.576
687.16	0.578
687.35	0.575
687.54	0.578
687.72	0.583
687.91	0.583
688.10	0.584
688.29	0.583
688.47	0.582
688.66	0.581
688.85	0.577
689.03	0.575
689.22	0.580
689.41	0.581
689.60	0.576
689.78	0.573
689.97	0.574
690.16	0.572
690.34	0.568
690.53	0.568
690.72	0.568
690.91	0.566
691.09	0.564
691.28	0.558
691.47	0.557
691.65	0.555
691.84	0.552
692.03	0.551
692.21	0.549
692.40	0.548
692.59	0.546
692.77	0.545
692.96	0.546
693.15	0.546
693.34	0.544
693.52	0.543
693.71	0.544
693.90	0.545
694.08	0.546
694.27	0.546
694.46	0.556
694.64	0.556
694.83	0.556
695.02	0.555
695.20	0.555
695.39	0.555
695.58	0.555
695.76	0.556
695.95	0.555
696.14	0.554
696.32	0.552
696.51	0.542
696.70	0.542
696.88	0.543
697.07	0.542
697.26	0.544
697.44	0.546
697.63	0.544
697.81	0.542
698.00	0.542
698.19	0.542
698.37	0.542
698.56	0.541
698.75	0.541
698.93	0.540
699.12	0.539
699.31	0.538
699.49	0.537
699.68	0.539
699.87	0.541
700.05	0.541
700.24	0.540
700.42	0.543
700.61	0.542
700.80	0.540
700.98	0.541
701.17	0.543
701.36	0.541
701.54	0.541
701.73	0.542
701.91	0.539
702.10	0.539
702.29	0.536
702.47	0.534
702.66	0.536
702.84	0.538
703.03	0.535
703.22	0.537
703.40	0.537
703.59	0.537
703.77	0.536
703.96	0.536
704.15	0.537
704.33	0.538
704.52	0.537
704.70	0.536
704.89	0.536
705.08	0.535
705.26	0.531
705.45	0.531
705.63	0.532
705.82	0.529
706.00	0.528
706.19	0.527
706.38	0.527
706.56	0.527
706.75	0.525
706.93	0.524
707.12	0.525
707.30	0.526
707.49	0.523
707.68	0.520
707.86	0.520
708.05	0.520
708.23	0.517
708.42	0.518
708.60	0.520
708.79	0.520
708.98	0.519
709.16	0.518
709.35	0.520
709.53	0.524
709.72	0.523
709.90	0.525
710.09	0.527
710.27	0.528
710.46	0.531
710.64	0.530
710.83	0.532
711.02	0.534
711.20	0.532
711.39	0.531
711.57	0.528
711.76	0.530
711.94	0.527
712.13	0.528
712.31	0.528
712.50	0.523
712.68	0.520
712.87	0.521
713.05	0.521
713.24	0.522
713.42	0.521
713.61	0.522
713.79	0.523
713.98	0.523
714.16	0.523
714.35	0.523
714.54	0.525
714.72	0.525
714.91	0.523
715.09	0.529
715.28	0.532
715.46	0.532
715.65	0.529
715.83	0.529
716.02	0.532
716.20	0.529
716.39	0.529
716.57	0.530
716.76	0.532
716.94	0.532
717.12	0.525
717.31	0.526
717.49	0.529
717.68	0.532
717.86	0.531
718.05	0.533
718.23	0.535
718.42	0.537
718.60	0.537
718.79	0.545
718.97	0.548
719.16	0.548
719.34	0.545
719.53	0.545
719.71	0.545
719.90	0.546
720.08	0.543
720.27	0.543
720.45	0.543
720.63	0.542
720.82	0.536
721.00	0.538
721.19	0.542
721.37	0.542
721.56	0.541
721.74	0.544
721.93	0.552
722.11	0.560
722.30	0.560
722.48	0.565
722.66	0.567
722.85	0.567
723.03	0.567
723.22	0.565
723.40	0.569
723.59	0.569
723.77	0.572
723.95	0.567
724.14	0.568
724.32	0.569
724.51	0.568
724.69	0.569
724.88	0.570
725.06	0.567
725.24	0.568
725.43	0.570
725.61	0.572
725.80	0.566
725.98	0.564
726.16	0.561
726.35	0.567
726.53	0.565
726.72	0.565
726.90	0.575
727.09	0.577
727.27	0.582
727.45	0.579
727.64	0.589
727.82	0.597
728.01	0.601
728.19	0.599
728.37	0.604
728.56	0.608
728.74	0.615
728.92	0.604
729.11	0.606
729.29	0.606
729.48	0.608
729.66	0.596
729.84	0.596
730.03	0.600
730.21	0.603
730.40	0.593
730.58	0.594
730.76	0.593
730.95	0.595
731.13	0.594
731.31	0.609
731.50	0.618
731.68	0.622
731.86	0.618
732.05	0.633
732.23	0.636
732.42	0.640
732.60	0.643
732.78	0.650
732.97	0.669
733.15	0.675
733.33	0.661
733.52	0.669
733.70	0.681
733.88	0.687
734.07	0.672
734.25	0.699
734.43	0.706
734.62	0.709
734.80	0.705
734.98	0.694
735.17	0.702
735.35	0.710
735.53	0.698
735.72	0.701
735.90	0.727
736.08	0.746
736.27	0.723
736.45	0.735
736.63	0.748
736.82	0.758
737.00	0.760
737.18	0.772
737.37	0.807
737.55	0.833
737.73	0.829
737.92	0.835
738.10	0.835
738.28	0.856
738.46	0.843
738.65	0.858
738.83	0.882
739.01	0.943
739.20	0.930
739.38	0.912
739.56	0.900
739.75	0.906
739.93	0.863
740.11	0.891
740.29	0.893
740.48	0.901
740.66	0.877
740.84	0.872
741.03	0.833
741.21	0.848
741.39	0.829
741.57	0.847
741.76	0.863
741.94	0.872
742.12	0.832
742.31	0.837
742.49	0.859
742.67	0.882
742.85	0.898
743.04	0.902
743.22	0.912
743.40	0.972
743.58	0.952
743.77	0.974
743.95	1.015
744.13	1.070
744.31	1.047
744.50	1.036
744.68	1.039
744.86	1.011
745.04	1.025
745.23	1.100
745.41	1.080
745.59	1.085
745.77	1.045
745.96	1.025
746.14	1.039
746.32	1.031
746.50	1.028
746.69	1.014
746.87	1.027
747.05	1.007
747.23	0.925
747.42	0.907
747.60	0.941
747.78	0.945
747.96	0.982
748.14	0.931
748.33	0.968
748.51	0.960
748.69	0.947
748.87	0.978
749.06	0.979
749.24	0.975
749.42	0.953
749.60	0.928
749.78	0.932
749.97	0.885
750.15	0.876
750.33	0.877
750.51	0.906
750.69	0.909
750.88	0.909
751.06	0.919
751.24	0.950
751.42	0.945
751.60	0.937
751.79	1.020
751.97	1.079
752.15	1.079
752.33	1.044
752.51	1.118
752.69	1.150
752.88	1.116
753.06	1.170
753.24	1.135
753.42	1.181
753.60	1.417
753.78	1.214
753.97	1.233
754.15	1.258
754.33	1.292
754.51	1.127
754.69	1.097
754.87	1.135
755.06	1.052
755.24	1.052
755.42	1.059
755.60	0.947
755.78	0.955
755.96	0.890
756.15	0.889
756.33	0.895
756.51	0.915
756.69	0.899
756.87	0.858
757.05	0.878
757.23	0.859
757.42	0.823
757.60	0.822
757.78	0.808
757.96	0.810
758.14	0.793
758.32	0.777
758.50	0.790
758.69	0.788
758.87	0.781
759.05	0.784
759.23	0.798
759.41	0.799
759.59	0.789
759.77	0.816
759.95	0.844
760.13	0.897
760.32	0.892
760.50	0.888
760.68	0.916
760.86	0.916
761.04	0.886
761.22	0.890
761.40	0.944
761.58	0.947
761.76	0.914
761.95	0.894
762.13	0.848
762.31	0.849
762.49	0.813
762.67	0.832
762.85	0.848
763.03	0.843
763.21	0.823
763.39	0.800
763.57	0.801
763.75	0.796
763.94	0.776
764.12	0.775
764.30	0.801
764.48	0.806
764.66	0.767
764.84	0.766
765.02	0.807
765.20	0.812
765.38	0.794
765.56	0.804
765.74	0.848
765.92	0.850
766.10	0.859
766.28	0.852
766.46	0.883
766.65	0.884
766.83	0.867
767.01	0.848
767.19	0.858
767.37	0.858
767.55	0.841
767.73	0.818
767.91	0.821
768.09	0.808
768.27	0.796
768.45	0.785
768.63	0.793
768.81	0.793
768.99	0.766
769.17	0.789
769.35	0.805
769.53	0.802
769.71	0.783
769.89	0.793
770.07	0.801
770.25	0.782
770.43	0.762
770.61	0.784
770.79	0.793
770.97	0.799
771.15	0.770
771.33	0.773
771.51	0.777
771.69	0.788
771.87	0.795
772.05	0.800
772.24	0.811
772.42	0.819
772.60	0.795
772.78	0.858
772.96	0.891
773.14	0.882
773.32	0.856
773.49	0.865
773.67	0.860
773.85	0.841
774.03	0.829
774.21	0.862
774.39	0.876
774.57	0.900
774.75	0.822
774.93	0.817
775.11	0.845
775.29	0.854
775.47	0.852
775.65	0.866
775.83	0.884
776.01	0.911
776.19	0.857
776.37	0.857
776.55	0.860
776.73	0.855
776.91	0.850
777.09	0.829
777.27	0.828
777.45	0.822
777.63	0.794
777.81	0.790
777.99	0.776
778.17	0.775
778.35	0.754
778.53	0.739
778.71	0.750
778.89	0.737
779.07	0.726
779.24	0.731
779.42	0.728
779.60	0.750
779.78	0.744
779.96	0.749
780.14	0.757
780.32	0.779
780.50	0.763
780.68	0.759
780.86	0.750
781.04	0.768
781.22	0.769
781.40	0.780
781.58	0.772
781.75	0.764
781.93	0.744
782.11	0.746
782.29	0.729
782.47	0.729
782.65	0.717
782.83	0.746
783.01	0.740
783.19	0.733
783.37	0.719
783.55	0.719
783.72	0.741
783.90	0.753
784.08	0.742
784.26	0.756
784.44	0.777
784.62	0.778
784.80	0.744
784.98	0.750
785.16	0.758
785.33	0.772
785.51	0.758
785.69	0.744
785.87	0.742
786.05	0.755
786.23	0.751
786.41	0.750
786.59	0.754
786.77	0.753
786.94	0.740
787.12	0.742
787.30	0.746
787.48	0.742
787.66	0.728
787.84	0.729
788.02	0.719
788.19	0.715
788.37	0.699
788.55	0.701
788.73	0.703
788.91	0.695
789.09	0.677
789.27	0.665
789.44	0.677
789.62	0.683
789.80	0.693
789.98	0.719
790.16	0.706
790.34	0.704
790.51	0.692
790.69	0.714
790.87	0.721
791.05	0.720
791.23	0.715
791.41	0.715
791.58	0.722
791.76	0.700
791.94	0.666
792.12	0.675
792.30	0.678
792.48	0.676
792.65	0.667
792.83	0.677
793.01	0.684
793.19	0.681
793.37	0.665
793.54	0.661
793.72	0.674
793.90	0.672
794.08	0.662
794.26	0.663
794.43	0.672
794.61	0.656
794.79	0.642
794.97	0.640
795.15	0.645
795.32	0.650
795.50	0.641
795.68	0.635
795.86	0.640
796.04	0.639
796.21	0.633
796.39	0.631
796.57	0.643
796.75	0.651
796.92	0.653
797.10	0.659
797.28	0.661
797.46	0.664
797.64	0.665
797.81	0.675
797.99	0.681
798.17	0.684
798.35	0.679
798.52	0.682
798.70	0.676
798.88	0.684
799.06	0.680
799.23	0.683
799.41	0.690
799.59	0.683
799.77	0.669
799.94	0.677
800.12	0.687
800.30	0.703
800.48	0.703
800.65	0.705
800.83	0.694
801.01	0.688
801.19	0.687
801.36	0.681
801.54	0.686
801.72	0.695
801.90	0.681
802.07	0.675
802.25	0.662
802.43	0.645
802.60	0.641
802.78	0.649
802.96	0.655
803.14	0.649
803.31	0.647
803.49	0.646
803.67	0.644
803.84	0.649
804.02	0.640
804.20	0.644
804.38	0.650
804.55	0.650
804.73	0.635
804.91	0.634
805.08	0.648
805.26	0.644
805.44	0.712
805.61	0.712
805.79	0.712
805.97	0.711
806.15	0.703
806.32	0.698
806.50	0.705
806.68	0.705
806.85	0.696
807.03	0.685
807.21	0.705
807.38	0.636
807.56	0.627
807.74	0.637
807.91	0.644
808.09	0.646
808.27	0.664
808.44	0.688
808.62	0.697
808.80	0.700
808.97	0.694
809.15	0.687
809.33	0.704
809.50	0.711
809.68	0.696
809.86	0.706
810.03	0.737
810.21	0.717
810.39	0.699
810.56	0.707
810.74	0.731
810.91	0.810
811.09	0.796
811.27	0.818
811.44	0.827
811.62	0.830
811.80	0.812
811.97	0.781
812.15	0.781
812.33	0.776
812.50	0.760
812.68	0.747
812.85	0.687
813.03	0.690
813.21	0.657
813.38	0.650
813.56	0.653
813.74	0.663
813.91	0.669
814.09	0.697
814.26	0.692
814.44	0.694
814.62	0.685
814.79	0.689
814.97	0.696
815.14	0.701
815.32	0.704
815.50	0.721
815.67	0.725
815.85	0.717
816.02	0.707
816.20	0.716
816.38	0.735
816.55	0.740
816.73	0.737
816.90	0.748
817.08	0.777
817.26	0.785
817.43	0.763
817.61	0.788
817.78	0.812
817.96	0.790
818.13	0.776
818.31	0.777
818.49	0.792
818.66	0.782
818.84	0.768
819.01	0.750
819.19	0.755
819.36	0.759
819.54	0.728
819.71	0.775
819.89	0.790
820.07	0.804
820.24	0.795
820.42	0.798
820.59	0.821
820.77	0.845
820.94	0.835
821.12	0.857
821.29	0.873
821.47	0.874
821.64	0.802
821.82	0.816
822.00	0.812
822.17	0.810
822.35	0.801
822.52	0.805
822.70	0.795
822.87	0.804
823.05	0.782
823.22	0.797
823.40	0.826
823.57	0.847
823.75	0.827
823.92	0.860
824.10	0.886
824.27	0.931
824.45	0.921
824.62	0.998
824.80	1.021
824.97	1.044
825.15	1.032
825.32	1.048
825.50	1.059
825.67	1.077
825.85	1.047
826.02	1.075
826.20	1.112
826.37	1.296
826.55	1.171
826.72	1.471
826.90	1.619
827.07	1.766
827.25	1.608
827.42	2.133
827.60	-0.000
827.77	-0.000
827.95	-0.000
828.12	-0.000
828.30	2.427
828.47	-0.000
828.65	1.567
828.82	1.686
829.00	1.811
829.17	2.606
829.34	3.044
829.52	-0.000
829.69	-0.000
829.87	-0.000
830.04	-0.000
830.22	-0.000
830.39	-0.000
830.57	-0.000
830.74	-0.000
830.92	-0.000
831.09	-0.000
831.26	-0.000
831.44	-0.000
831.61	-0.000
831.79	-0.000
831.96	-0.000
832.14	-0.000
832.31	-0.000
832.49	-0.000
832.66	-0.000
832.83	-0.000
833.01	-0.000
833.18	-0.000
833.36	-0.000
833.53	-0.000
833.70	-0.000
833.88	-0.000
834.05	-0.000
834.23	-0.000
834.40	-0.000
834.58	-0.000
834.75	-0.000
834.92	-0.000
835.10	-0.000
835.27	-0.000
835.45	-0.000
835.62	-0.000
835.79	-0.000
835.97	-0.000
836.14	-0.000
836.32	-0.000
836.49	-0.000
836.66	-0.000
836.84	-0.000
837.01	-0.000
837.18	-0.000
837.36	-0.000
837.53	-0.000
837.71	-0.000
837.88	-0.000
838.05	-0.000
838.23	-0.000
838.40	-0.000
838.58	-0.000
838.75	-0.000
838.92	-0.000
839.10	-0.000
839.27	-0.000
839.44	-0.000
839.62	-0.000
839.79	-0.000
839.96	-0.000
840.14	-0.000
840.31	-0.000
840.48	-0.000
840.66	-0.000
840.83	-0.000
841.01	-0.000
841.18	-0.000
841.35	-0.000
841.53	-0.000
841.70	-0.000
841.87	-0.000
842.05	-0.000
842.22	-0.000
842.39	-0.000
842.57	-0.000
842.74	-0.000
842.91	-0.000
843.09	-0.000
843.26	-0.000
843.43	-0.000
843.60	-0.000
843.78	-0.000
843.95	-0.000
844.12	-0.000
844.30	-0.000
844.47	-0.000
844.64	-0.000
844.82	-0.000
844.99	-0.000
845.16	-0.000
845.34	-0.000
845.51	-0.000
845.68	-0.000
845.85	-0.000
846.03	-0.000
846.20	-0.000
846.37	-0.000
846.55	-0.000
846.72	-0.000
846.89	-0.000
847.06	-0.000
847.24	-0.000
847.41	-0.000
847.58	-0.000
847.76	-0.000
847.93	-0.000
848.10	-0.000
848.27	-0.000
848.45	-0.000
848.62	-0.000
848.79	-0.000
848.97	-0.000
849.14	-0.000
849.31	-0.000
849.48	-0.000
849.66	-0.000
849.83	-0.000
850.00	-0.000
850.17	-0.000
850.35	-0.000
850.52	-0.000
850.69	-0.000
850.86	-0.000
851.04	-0.000
851.21	-0.000
851.38	-0.000
851.55	-0.000
851.72	-0.000
851.90	-0.000
852.07	-0.000
852.24	-0.000
852.41	-0.000
852.59	-0.000
852.76	-0.000
852.93	-0.000
853.10	-0.000
853.28	-0.000
853.45	-0.000
853.62	-0.000
853.79	-0.000
853.96	-0.000
854.14	-0.000
854.31	-0.000
854.48	-0.000
854.65	-0.000
854.82	-0.000
855.00	-0.000
855.17	-0.000
855.34	-0.000
855.51	-0.000
855.68	-0.000
855.86	-0.000
856.03	-0.000
856.20	-0.000
856.37	-0.000
856.54	-0.000
856.72	-0.000
856.89	-0.000
857.06	-0.000
857.23	-0.000
857.40	-0.000
857.57	-0.000
857.75	-0.000
857.92	-0.000
858.09	-0.000
858.26	-0.000
858.43	-0.000
858.60	-0.000
858.78	-0.000
858.95	-0.000
859.12	-0.000
859.29	-0.000
859.46	-0.000
859.63	-0.000
859.81	-0.000
859.98	-0.000
860.15	-0.000
860.32	-0.000
860.49	-0.000
860.66	-0.000
860.83	-0.000
861.01	-0.000
861.18	-0.000
861.35	-0.000
861.52	-0.000
861.69	-0.000
861.86	-0.000
862.03	-0.000
862.21	-0.000
862.38	-0.000
862.55	-0.000
862.72	-0.000
862.89	-0.000
863.06	-0.000
863.23	-0.000
863.40	-0.000
863.58	-0.000
863.75	-0.000
863.92	-0.000
864.09	-0.000
864.26	-0.000
864.43	-0.000
864.60	-0.000
864.77	-0.000
864.94	-0.000
865.11	-0.000
865.29	-0.000
865.46	-0.000
865.63	-0.000
865.80	-0.000
865.97	-0.000
866.14	-0.000
866.31	-0.000
866.48	-0.000
866.65	-0.000
866.82	-0.000
866.99	-0.000
867.16	-0.000
867.34	-0.000
867.51	-0.000
867.68	-0.000
867.85	-0.000
868.02	-0.000
868.19	-0.000
868.36	-0.000
868.53	-0.000
868.70	-0.000
868.87	-0.000
869.04	-0.000
869.21	-0.000
869.38	-0.000
869.55	-0.000
869.72	-0.000
869.89	-0.000
870.06	-0.000
870.24	-0.000
870.41	-0.000
870.58	-0.000
870.75	-0.000
870.92	-0.000
871.09	-0.000
871.26	-0.000
871.43	-0.000
871.60	-0.000
871.77	-0.000
871.94	-0.000
872.11	-0.000
872.28	-0.000
872.45	-0.000
872.62	-0.000
872.79	-0.000
872.96	-0.000
873.13	-0.000
873.30	-0.000
873.47	-0.000
873.64	-0.000
873.81	-0.000
873.98	-0.000
874.15	-0.000
874.32	-0.000
874.49	-0.000
874.66	-0.000
874.83	-0.000
875.00	-0.000
875.17	-0.000
875.34	-0.000
875.51	-0.000
875.68	-0.000
875.85	-0.000
876.02	-0.000
876.19	-0.000
876.36	-0.000
876.53	-0.000
876.70	-0.000
876.87	-0.000
877.04	-0.000
877.21	-0.000
877.38	-0.000
877.55	-0.000
877.72	-0.000
877.89	-0.000
878.06	-0.000
878.23	-0.000
878.39	-0.000
878.56	-0.000
878.73	-0.000
878.90	-0.000
879.07	-0.000
879.24	-0.000
879.41	-0.000
879.58	-0.000
879.75	-0.000
879.92	-0.000
880.09	-0.000
880.26	-0.000
880.43	-0.000
880.60	-0.000
880.77	-0.000
880.94	-0.000
881.11	-0.000
881.27	-0.000
881.44	-0.000
881.61	-0.000
881.78	-0.000
881.95	-0.000
882.12	-0.000
882.29	-0.000
882.46	-0.000
882.63	-0.000
882.80	-0.000
882.97	-0.000
883.14	-0.000
883.30	-0.000
883.47	-0.000
883.64	-0.000
883.81	-0.000
883.98	-0.000
884.15	-0.000
884.32	-0.000
884.49	-0.000
884.66	-0.000
884.82	-0.000
884.99	-0.000
885.16	-0.000
885.33	-0.000
885.50	-0.000
885.67	-0.000
885.84	-0.000
886.01	-0.000
886.17	-0.000
886.34	-0.000
886.51	-0.000
886.68	-0.000
886.85	-0.000
887.02	-0.000
887.19	-0.000
887.36	-0.000
887.52	-0.000
887.69	-0.000
887.86	-0.000
888.03	-0.000
888.20	-0.000
888.37	-0.000
888.54	-0.000
888.70	-0.000
888.87	-0.000
889.04	-0.000
889.21	-0.000
889.38	-0.000
889.55	-0.000
889.71	-0.000
889.88	-0.000
890.05	-0.000
890.22	-0.000
890.39	-0.000
>>>>>End Processed Spectral Data<<<<<
