SpectraSuite Data File
++++++++++++++++++++++++++++++++++++
Date: Fri Jun 19 14:37:01 CEST 2015
User: introlabs
Dark Spectrum Present: Yes
Reference Spectrum Present: Yes
Number of Sampled Component Spectra: 1
Spectrometers: USB4H08886
Integration Time (usec): 745692 (USB4H08886)
Spectra Averaged: 5 (USB4H08886)
Boxcar Smoothing: 5 (USB4H08886)
Correct for Electrical Dark: Yes (USB4H08886)
Strobe/Lamp Enabled: No (USB4H08886)
Correct for Detector Non-linearity: Yes (USB4H08886)
Correct for Stray Light: Yes (USB4H08886)
Number of Pixels in Processed Spectrum: 3648
>>>>>Begin Processed Spectral Data<<<<<
178.14	-0.000
178.36	-0.000
178.57	-0.000
178.79	-0.000
179.01	-0.000
179.22	-0.000
179.44	-0.000
179.65	-0.000
179.87	-0.000
180.08	-0.000
180.30	-0.000
180.52	-0.000
180.73	-0.000
180.95	-0.000
181.16	-0.000
181.38	-0.000
181.59	-0.000
181.81	-0.000
182.03	-0.000
182.24	-0.000
182.46	-0.000
182.67	-0.000
182.89	-0.000
183.10	-0.000
183.32	-0.000
183.54	-0.000
183.75	-0.000
183.97	-0.000
184.18	-0.000
184.40	-0.000
184.61	-0.000
184.83	-0.000
185.04	-0.000
185.26	-0.000
185.48	-0.000
185.69	-0.000
185.91	-0.000
186.12	-0.000
186.34	-0.000
186.55	-0.000
186.77	-0.000
186.98	-0.000
187.20	-0.000
187.42	-0.000
187.63	-0.000
187.85	-0.000
188.06	-0.000
188.28	-0.000
188.49	-0.000
188.71	-0.000
188.92	-0.000
189.14	-0.000
189.36	-0.000
189.57	-0.000
189.79	-0.000
190.00	-0.000
190.22	-0.000
190.43	-0.000
190.65	-0.000
190.86	-0.000
191.08	-0.000
191.29	-0.000
191.51	-0.000
191.72	-0.000
191.94	-0.000
192.16	-0.000
192.37	-0.000
192.59	-0.000
192.80	-0.000
193.02	-0.000
193.23	-0.000
193.45	-0.000
193.66	-0.000
193.88	-0.000
194.09	-0.000
194.31	-0.000
194.52	-0.000
194.74	-0.000
194.95	-0.000
195.17	-0.000
195.38	-0.000
195.60	-0.000
195.81	-0.000
196.03	-0.000
196.25	-0.000
196.46	-0.000
196.68	-0.000
196.89	-0.000
197.11	-0.000
197.32	-0.000
197.54	-0.000
197.75	-0.000
197.97	-0.000
198.18	-0.000
198.40	-0.000
198.61	-0.000
198.83	-0.000
199.04	-0.000
199.26	-0.000
199.47	-0.000
199.69	-0.000
199.90	-0.000
200.12	-0.000
200.33	-0.000
200.55	-0.000
200.76	-0.000
200.98	-0.000
201.19	-0.000
201.41	-0.000
201.62	-0.000
201.84	-0.000
202.05	-0.000
202.27	-0.000
202.48	-0.000
202.70	-0.000
202.91	-0.000
203.13	-0.000
203.34	-0.000
203.56	-0.000
203.77	-0.000
203.99	-0.000
204.20	-0.000
204.42	-0.000
204.63	-0.000
204.85	-0.000
205.06	-0.000
205.28	-0.000
205.49	-0.000
205.71	-0.000
205.92	-0.000
206.14	-0.000
206.35	-0.000
206.56	-0.000
206.78	-0.000
206.99	-0.000
207.21	-0.000
207.42	-0.000
207.64	-0.000
207.85	-0.000
208.07	-0.000
208.28	-0.000
208.50	-0.000
208.71	-0.000
208.93	-0.000
209.14	-0.000
209.36	-0.000
209.57	-0.000
209.79	-0.000
210.00	-0.000
210.22	-0.000
210.43	-0.000
210.64	-0.000
210.86	-0.000
211.07	-0.000
211.29	-0.000
211.50	-0.000
211.72	-0.000
211.93	-0.000
212.15	-0.000
212.36	-0.000
212.58	-0.000
212.79	-0.000
213.01	-0.000
213.22	-0.000
213.43	-0.000
213.65	-0.000
213.86	-0.000
214.08	-0.000
214.29	-0.000
214.51	-0.000
214.72	-0.000
214.94	-0.000
215.15	-0.000
215.36	-0.000
215.58	-0.000
215.79	-0.000
216.01	-0.000
216.22	-0.000
216.44	-0.000
216.65	-0.000
216.87	-0.000
217.08	-0.000
217.29	-0.000
217.51	-0.000
217.72	-0.000
217.94	-0.000
218.15	-0.000
218.37	-0.000
218.58	-0.000
218.80	-0.000
219.01	-0.000
219.22	-0.000
219.44	-0.000
219.65	-0.000
219.87	-0.000
220.08	-0.000
220.30	-0.000
220.51	-0.000
220.72	-0.000
220.94	-0.000
221.15	-0.000
221.37	-0.000
221.58	-0.000
221.79	-0.000
222.01	-0.000
222.22	-0.000
222.44	-0.000
222.65	-0.000
222.87	-0.000
223.08	-0.000
223.29	-0.000
223.51	-0.000
223.72	-0.000
223.94	-0.000
224.15	-0.000
224.36	-0.000
224.58	-0.000
224.79	-0.000
225.01	-0.000
225.22	-0.000
225.44	-0.000
225.65	-0.000
225.86	-0.000
226.08	-0.000
226.29	-0.000
226.51	-0.000
226.72	-0.000
226.93	-0.000
227.15	-0.000
227.36	-0.000
227.58	-0.000
227.79	-0.000
228.00	-0.000
228.22	-0.000
228.43	-0.000
228.65	-0.000
228.86	-0.000
229.07	-0.000
229.29	-0.000
229.50	-0.000
229.72	-0.000
229.93	-0.000
230.14	-0.000
230.36	-0.000
230.57	-0.000
230.78	-0.000
231.00	-0.000
231.21	-0.000
231.43	-0.000
231.64	-0.000
231.85	-0.000
232.07	-0.000
232.28	-0.000
232.50	-0.000
232.71	-0.000
232.92	-0.000
233.14	-0.000
233.35	-0.000
233.56	-0.000
233.78	-0.000
233.99	-0.000
234.21	-0.000
234.42	-0.000
234.63	-0.000
234.85	-0.000
235.06	-0.000
235.27	-0.000
235.49	-0.000
235.70	-0.000
235.91	-0.000
236.13	-0.000
236.34	-0.000
236.56	-0.000
236.77	-0.000
236.98	-0.000
237.20	-0.000
237.41	-0.000
237.62	-0.000
237.84	-0.000
238.05	-0.000
238.26	-0.000
238.48	-0.000
238.69	-0.000
238.91	-0.000
239.12	-0.000
239.33	-0.000
239.55	-0.000
239.76	-0.000
239.97	-0.000
240.19	-0.000
240.40	-0.000
240.61	-0.000
240.83	-0.000
241.04	-0.000
241.25	-0.000
241.47	-0.000
241.68	-0.000
241.89	-0.000
242.11	-0.000
242.32	-0.000
242.53	-0.000
242.75	-0.000
242.96	-0.000
243.17	-0.000
243.39	-0.000
243.60	-0.000
243.81	-0.000
244.03	-0.000
244.24	-0.000
244.45	-0.000
244.67	-0.000
244.88	-0.000
245.09	-0.000
245.31	-0.000
245.52	-0.000
245.73	-0.000
245.95	-0.000
246.16	-0.000
246.37	-0.000
246.59	-0.000
246.80	-0.000
247.01	-0.000
247.23	-0.000
247.44	-0.000
247.65	-0.000
247.87	-0.000
248.08	-0.000
248.29	-0.000
248.51	-0.000
248.72	-0.000
248.93	-0.000
249.15	-0.000
249.36	-0.000
249.57	-0.000
249.78	-0.000
250.00	-0.000
250.21	-0.000
250.42	-0.000
250.64	-0.000
250.85	-0.000
251.06	-0.000
251.28	-0.000
251.49	-0.000
251.70	-0.000
251.92	-0.000
252.13	-0.000
252.34	-0.000
252.55	-0.000
252.77	-0.000
252.98	-0.000
253.19	-0.000
253.41	-0.000
253.62	-0.000
253.83	-0.000
254.05	-0.000
254.26	-0.000
254.47	-0.000
254.68	-0.000
254.90	-0.000
255.11	-0.000
255.32	-0.000
255.54	-0.000
255.75	-0.000
255.96	-0.000
256.17	-0.000
256.39	-0.000
256.60	-0.000
256.81	-0.000
257.03	-0.000
257.24	-0.000
257.45	-0.000
257.66	-0.000
257.88	-0.000
258.09	-0.000
258.30	-0.000
258.51	-0.000
258.73	-0.000
258.94	-0.000
259.15	-0.000
259.37	-0.000
259.58	-0.000
259.79	-0.000
260.00	-0.000
260.22	-0.000
260.43	-0.000
260.64	-0.000
260.85	-0.000
261.07	-0.000
261.28	-0.000
261.49	-0.000
261.71	-0.000
261.92	-0.000
262.13	-0.000
262.34	-0.000
262.56	-0.000
262.77	-0.000
262.98	-0.000
263.19	-0.000
263.41	-0.000
263.62	-0.000
263.83	-0.000
264.04	-0.000
264.26	-0.000
264.47	-0.000
264.68	-0.000
264.89	-0.000
265.11	-0.000
265.32	-0.000
265.53	-0.000
265.74	-0.000
265.96	-0.000
266.17	-0.000
266.38	-0.000
266.59	-0.000
266.81	-0.000
267.02	-0.000
267.23	-0.000
267.44	-0.000
267.65	-0.000
267.87	-0.000
268.08	-0.000
268.29	-0.000
268.50	-0.000
268.72	-0.000
268.93	-0.000
269.14	-0.000
269.35	-0.000
269.57	-0.000
269.78	-0.000
269.99	-0.000
270.20	-0.000
270.41	-0.000
270.63	-0.000
270.84	-0.000
271.05	-0.000
271.26	-0.000
271.48	-0.000
271.69	-0.000
271.90	-0.000
272.11	-0.000
272.32	-0.000
272.54	-0.000
272.75	-0.000
272.96	-0.000
273.17	-0.000
273.39	-0.000
273.60	-0.000
273.81	-0.000
274.02	-0.000
274.23	-0.000
274.45	-0.000
274.66	-0.000
274.87	-0.000
275.08	-0.000
275.29	-0.000
275.51	-0.000
275.72	-0.000
275.93	-0.000
276.14	-0.000
276.35	-0.000
276.57	-0.000
276.78	-0.000
276.99	-0.000
277.20	-0.000
277.41	-0.000
277.63	-0.000
277.84	-0.000
278.05	-0.000
278.26	-0.000
278.47	-0.000
278.69	-0.000
278.90	-0.000
279.11	-0.000
279.32	-0.000
279.53	-0.000
279.74	-0.000
279.96	-0.000
280.17	-0.000
280.38	-0.000
280.59	-0.000
280.80	-0.000
281.02	-0.000
281.23	-0.000
281.44	-0.000
281.65	-0.000
281.86	-0.000
282.07	-0.000
282.29	-0.000
282.50	-0.000
282.71	-0.000
282.92	-0.000
283.13	-0.000
283.35	-0.000
283.56	-0.000
283.77	-0.000
283.98	-0.000
284.19	-0.000
284.40	-0.000
284.62	-0.000
284.83	-0.000
285.04	-0.000
285.25	-0.000
285.46	-0.000
285.67	-0.000
285.88	-0.000
286.10	-0.000
286.31	-0.000
286.52	-0.000
286.73	-0.000
286.94	-0.000
287.15	-0.000
287.37	-0.000
287.58	-0.000
287.79	-0.000
288.00	-0.000
288.21	-0.000
288.42	-0.000
288.63	-0.000
288.85	-0.000
289.06	-0.000
289.27	-0.000
289.48	-0.000
289.69	-0.000
289.90	-0.000
290.11	-0.000
290.33	-0.000
290.54	-0.000
290.75	-0.000
290.96	-0.000
291.17	-0.000
291.38	-0.000
291.59	-0.000
291.81	-0.000
292.02	-0.000
292.23	-0.000
292.44	-0.000
292.65	-0.000
292.86	-0.000
293.07	-0.000
293.28	-0.000
293.50	-0.000
293.71	-0.000
293.92	-0.000
294.13	-0.000
294.34	-0.000
294.55	-0.000
294.76	-0.000
294.97	-0.000
295.19	-0.000
295.40	-0.000
295.61	-0.000
295.82	-0.000
296.03	-0.000
296.24	-0.000
296.45	2.260
296.66	1.821
296.87	1.821
297.09	1.911
297.30	2.168
297.51	1.736
297.72	1.702
297.93	1.802
298.14	1.766
298.35	1.710
298.56	1.684
298.77	1.828
298.99	1.793
299.20	1.780
299.41	1.756
299.62	1.709
299.83	1.702
300.04	1.632
300.25	1.624
300.46	1.669
300.67	1.640
300.88	1.580
301.10	1.573
301.31	1.661
301.52	1.587
301.73	1.529
301.94	1.531
302.15	1.553
302.36	1.504
302.57	1.439
302.78	1.443
302.99	1.494
303.20	1.509
303.41	1.414
303.63	1.390
303.84	1.397
304.05	1.392
304.26	1.333
304.47	1.339
304.68	1.338
304.89	1.329
305.10	1.288
305.31	1.275
305.52	1.322
305.73	1.315
305.94	1.276
306.15	1.270
306.37	1.293
306.58	1.300
306.79	1.268
307.00	1.293
307.21	1.337
307.42	1.330
307.63	1.292
307.84	1.257
308.05	1.298
308.26	1.300
308.47	1.277
308.68	1.275
308.89	1.276
309.10	1.271
309.31	1.226
309.52	1.212
309.73	1.228
309.95	1.220
310.16	1.191
310.37	1.178
310.58	1.197
310.79	1.194
311.00	1.185
311.21	1.188
311.42	1.190
311.63	1.186
311.84	1.171
312.05	1.167
312.26	1.190
312.47	1.200
312.68	1.179
312.89	1.161
313.10	1.170
313.31	1.145
313.52	1.144
313.73	1.146
313.94	1.149
314.15	1.129
314.36	1.110
314.57	1.106
314.78	1.095
314.99	1.087
315.21	1.075
315.42	1.079
315.63	1.093
315.84	1.071
316.05	1.055
316.26	1.062
316.47	1.079
316.68	1.074
316.89	1.054
317.10	1.074
317.31	1.079
317.52	1.082
317.73	1.060
317.94	1.058
318.15	1.100
318.36	1.101
318.57	1.085
318.78	1.076
318.99	1.112
319.20	1.109
319.41	1.074
319.62	1.074
319.83	1.088
320.04	1.082
320.25	1.070
320.46	1.035
320.67	1.038
320.88	1.034
321.09	1.019
321.30	1.006
321.51	1.024
321.72	1.021
321.93	1.005
322.14	0.997
322.35	1.026
322.56	1.027
322.77	1.014
322.98	1.026
323.19	1.034
323.40	1.040
323.61	1.017
323.82	1.009
324.03	1.016
324.24	1.013
324.45	1.000
324.66	0.980
324.87	0.977
325.08	0.978
325.29	0.957
325.50	0.951
325.71	0.957
325.92	0.964
326.13	0.951
326.34	0.951
326.55	0.959
326.76	0.958
326.97	0.946
327.18	0.941
327.39	0.965
327.60	0.966
327.80	0.966
328.01	0.964
328.22	0.965
328.43	0.969
328.64	0.956
328.85	0.960
329.06	0.964
329.27	0.962
329.48	0.957
329.69	0.939
329.90	0.949
330.11	0.942
330.32	0.935
330.53	0.928
330.74	0.929
330.95	0.928
331.16	0.914
331.37	0.920
331.58	0.921
331.79	0.921
332.00	0.912
332.21	0.906
332.42	0.911
332.63	0.902
332.83	0.898
333.04	0.900
333.25	0.913
333.46	0.912
333.67	0.898
333.88	0.901
334.09	0.910
334.30	0.907
334.51	0.897
334.72	0.892
334.93	0.895
335.14	0.895
335.35	0.887
335.56	0.881
335.77	0.889
335.98	0.889
336.18	0.884
336.39	0.877
336.60	0.882
336.81	0.881
337.02	0.880
337.23	0.885
337.44	0.886
337.65	0.888
337.86	0.878
338.07	0.873
338.28	0.878
338.49	0.875
338.70	0.867
338.91	0.873
339.11	0.880
339.32	0.876
339.53	0.864
339.74	0.862
339.95	0.859
340.16	0.857
340.37	0.850
340.58	0.848
340.79	0.852
341.00	0.851
341.21	0.841
341.41	0.842
341.62	0.843
341.83	0.844
342.04	0.839
342.25	0.849
342.46	0.854
342.67	0.852
342.88	0.843
343.09	0.843
343.30	0.849
343.50	0.852
343.71	0.843
343.92	0.841
344.13	0.846
344.34	0.847
344.55	0.830
344.76	0.830
344.97	0.835
345.18	0.834
345.38	0.831
345.59	0.826
345.80	0.825
346.01	0.822
346.22	0.818
346.43	0.812
346.64	0.821
346.85	0.820
347.06	0.813
347.26	0.813
347.47	0.818
347.68	0.813
347.89	0.810
348.10	0.805
348.31	0.812
348.52	0.811
348.73	0.808
348.93	0.804
349.14	0.806
349.35	0.805
349.56	0.799
349.77	0.793
349.98	0.799
350.19	0.797
350.39	0.792
350.60	0.788
350.81	0.803
351.02	0.802
351.23	0.797
351.44	0.800
351.65	0.804
351.86	0.802
352.06	0.801
352.27	0.801
352.48	0.802
352.69	0.802
352.90	0.796
353.11	0.782
353.31	0.790
353.52	0.785
353.73	0.776
353.94	0.778
354.15	0.783
354.36	0.784
354.57	0.775
354.77	0.777
354.98	0.777
355.19	0.777
355.40	0.776
355.61	0.781
355.82	0.786
356.02	0.785
356.23	0.778
356.44	0.779
356.65	0.781
356.86	0.782
357.07	0.775
357.27	0.777
357.48	0.780
357.69	0.776
357.90	0.761
358.11	0.758
358.32	0.762
358.52	0.764
358.73	0.755
358.94	0.758
359.15	0.763
359.36	0.763
359.56	0.759
359.77	0.756
359.98	0.763
360.19	0.762
360.40	0.760
360.61	0.761
360.81	0.760
361.02	0.761
361.23	0.752
361.44	0.751
361.65	0.751
361.85	0.751
362.06	0.749
362.27	0.751
362.48	0.752
362.69	0.754
362.89	0.748
363.10	0.750
363.31	0.754
363.52	0.757
363.73	0.752
363.93	0.752
364.14	0.754
364.35	0.755
364.56	0.745
364.77	0.747
364.97	0.749
365.18	0.749
365.39	0.743
365.60	0.739
365.81	0.740
366.01	0.739
366.22	0.736
366.43	0.735
366.64	0.737
366.84	0.743
367.05	0.738
367.26	0.738
367.47	0.739
367.68	0.740
367.88	0.737
368.09	0.735
368.30	0.738
368.51	0.738
368.71	0.737
368.92	0.741
369.13	0.738
369.34	0.739
369.55	0.739
369.75	0.739
369.96	0.746
370.17	0.746
370.38	0.742
370.58	0.742
370.79	0.747
371.00	0.746
371.21	0.737
371.41	0.742
371.62	0.745
371.83	0.741
372.04	0.738
372.24	0.731
372.45	0.733
372.66	0.733
372.87	0.731
373.07	0.728
373.28	0.729
373.49	0.732
373.70	0.723
373.90	0.722
374.11	0.731
374.32	0.730
374.53	0.729
374.73	0.729
374.94	0.731
375.15	0.731
375.36	0.728
375.56	0.737
375.77	0.737
375.98	0.737
376.19	0.735
376.39	0.728
376.60	0.732
376.81	0.733
377.02	0.730
377.22	0.729
377.43	0.729
377.64	0.729
377.84	0.720
378.05	0.724
378.26	0.730
378.47	0.730
378.67	0.727
378.88	0.724
379.09	0.724
379.30	0.725
379.50	0.721
379.71	0.724
379.92	0.727
380.12	0.726
380.33	0.718
380.54	0.715
380.75	0.721
380.95	0.721
381.16	0.719
381.37	0.719
381.57	0.721
381.78	0.722
381.99	0.722
382.20	0.721
382.40	0.724
382.61	0.724
382.82	0.721
383.02	0.714
383.23	0.717
383.44	0.717
383.64	0.716
383.85	0.718
384.06	0.721
384.27	0.718
384.47	0.717
384.68	0.718
384.89	0.723
385.09	0.723
385.30	0.723
385.51	0.722
385.71	0.724
385.92	0.725
386.13	0.724
386.33	0.726
386.54	0.727
386.75	0.726
386.95	0.722
387.16	0.717
387.37	0.719
387.58	0.720
387.78	0.718
387.99	0.716
388.20	0.718
388.40	0.715
388.61	0.710
388.82	0.713
389.02	0.715
389.23	0.716
389.44	0.714
389.64	0.715
389.85	0.726
390.06	0.726
390.26	0.726
390.47	0.726
390.68	0.728
390.88	0.726
391.09	0.723
391.30	0.722
391.50	0.722
391.71	0.722
391.92	0.719
392.12	0.711
392.33	0.711
392.53	0.712
392.74	0.712
392.95	0.711
393.15	0.714
393.36	0.716
393.57	0.714
393.77	0.717
393.98	0.719
394.19	0.719
394.39	0.718
394.60	0.719
394.81	0.721
395.01	0.718
395.22	0.717
395.43	0.718
395.63	0.722
395.84	0.723
396.04	0.719
396.25	0.721
396.46	0.723
396.66	0.722
396.87	0.720
397.08	0.717
397.28	0.719
397.49	0.720
397.69	0.716
397.90	0.711
398.11	0.713
398.31	0.714
398.52	0.709
398.73	0.710
398.93	0.710
399.14	0.708
399.34	0.707
399.55	0.708
399.76	0.709
399.96	0.710
400.17	0.708
400.37	0.707
400.58	0.713
400.79	0.715
400.99	0.713
401.20	0.718
401.41	0.721
401.61	0.722
401.82	0.727
402.02	0.727
402.23	0.728
402.44	0.728
402.64	0.728
402.85	0.723
403.05	0.721
403.26	0.720
403.47	0.715
403.67	0.713
403.88	0.714
404.08	0.707
404.29	0.706
404.50	0.706
404.70	0.706
404.91	0.704
405.11	0.702
405.32	0.703
405.52	0.702
405.73	0.702
405.94	0.700
406.14	0.703
406.35	0.705
406.55	0.704
406.76	0.701
406.97	0.702
407.17	0.705
407.38	0.705
407.58	0.703
407.79	0.706
407.99	0.709
408.20	0.710
408.41	0.706
408.61	0.704
408.82	0.705
409.02	0.706
409.23	0.703
409.43	0.702
409.64	0.703
409.84	0.703
410.05	0.699
410.26	0.697
410.46	0.697
410.67	0.696
410.87	0.697
411.08	0.698
411.28	0.700
411.49	0.702
411.69	0.699
411.90	0.701
412.11	0.702
412.31	0.703
412.52	0.702
412.72	0.704
412.93	0.705
413.13	0.704
413.34	0.700
413.54	0.702
413.75	0.703
413.95	0.703
414.16	0.700
414.37	0.703
414.57	0.702
414.78	0.705
414.98	0.702
415.19	0.703
415.39	0.701
415.60	0.703
415.80	0.702
416.01	0.700
416.21	0.702
416.42	0.702
416.62	0.697
416.83	0.698
417.03	0.697
417.24	0.697
417.44	0.695
417.65	0.694
417.86	0.694
418.06	0.693
418.27	0.691
418.47	0.692
418.68	0.693
418.88	0.694
419.09	0.692
419.29	0.693
419.50	0.694
419.70	0.693
419.91	0.692
420.11	0.689
420.32	0.692
420.52	0.691
420.73	0.691
420.93	0.692
421.14	0.694
421.34	0.692
421.55	0.689
421.75	0.689
421.96	0.690
422.16	0.690
422.37	0.689
422.57	0.686
422.78	0.687
422.98	0.684
423.19	0.682
423.39	0.679
423.60	0.683
423.80	0.684
424.01	0.683
424.21	0.686
424.42	0.686
424.62	0.686
424.83	0.685
425.03	0.685
425.23	0.687
425.44	0.687
425.64	0.688
425.85	0.686
426.05	0.687
426.26	0.687
426.46	0.684
426.67	0.683
426.87	0.689
427.08	0.689
427.28	0.687
427.49	0.688
427.69	0.689
427.90	0.687
428.10	0.684
428.31	0.685
428.51	0.686
428.71	0.685
428.92	0.686
429.12	0.683
429.33	0.684
429.53	0.688
429.74	0.692
429.94	0.692
430.15	0.692
430.35	0.692
430.56	0.688
430.76	0.687
430.96	0.688
431.17	0.686
431.37	0.683
431.58	0.681
431.78	0.678
431.99	0.671
432.19	0.672
432.40	0.674
432.60	0.675
432.80	0.678
433.01	0.676
433.21	0.676
433.42	0.677
433.62	0.678
433.83	0.678
434.03	0.680
434.23	0.683
434.44	0.682
434.64	0.680
434.85	0.685
435.05	0.685
435.26	0.686
435.46	0.684
435.66	0.684
435.87	0.684
436.07	0.685
436.28	0.680
436.48	0.677
436.69	0.677
436.89	0.677
437.09	0.671
437.30	0.670
437.50	0.670
437.71	0.682
437.91	0.680
438.11	0.681
438.32	0.686
438.52	0.687
438.73	0.685
438.93	0.684
439.13	0.683
439.34	0.687
439.54	0.685
439.75	0.684
439.95	0.674
440.15	0.679
440.36	0.677
440.56	0.674
440.77	0.675
440.97	0.675
441.17	0.674
441.38	0.675
441.58	0.672
441.79	0.672
441.99	0.670
442.19	0.669
442.40	0.667
442.60	0.667
442.81	0.664
443.01	0.665
443.21	0.665
443.42	0.664
443.62	0.663
443.82	0.663
444.03	0.665
444.23	0.665
444.44	0.665
444.64	0.664
444.84	0.666
445.05	0.666
445.25	0.663
445.45	0.664
445.66	0.667
445.86	0.665
446.06	0.667
446.27	0.666
446.47	0.669
446.68	0.668
446.88	0.667
447.08	0.666
447.29	0.667
447.49	0.667
447.69	0.667
447.90	0.665
448.10	0.669
448.30	0.666
448.51	0.667
448.71	0.664
448.91	0.666
449.12	0.665
449.32	0.666
449.52	0.665
449.73	0.669
449.93	0.668
450.14	0.669
450.34	0.668
450.54	0.670
450.75	0.668
450.95	0.667
451.15	0.667
451.36	0.670
451.56	0.667
451.76	0.666
451.97	0.663
452.17	0.664
452.37	0.662
452.58	0.659
452.78	0.658
452.98	0.661
453.19	0.659
453.39	0.659
453.59	0.658
453.79	0.659
454.00	0.658
454.20	0.657
454.40	0.657
454.61	0.659
454.81	0.660
455.01	0.658
455.22	0.659
455.42	0.661
455.62	0.659
455.83	0.659
456.03	0.662
456.23	0.663
456.44	0.663
456.64	0.663
456.84	0.662
457.04	0.663
457.25	0.663
457.45	0.659
457.65	0.658
457.86	0.659
458.06	0.658
458.26	0.654
458.47	0.653
458.67	0.654
458.87	0.655
459.07	0.653
459.28	0.654
459.48	0.656
459.68	0.656
459.89	0.655
460.09	0.654
460.29	0.655
460.49	0.656
460.70	0.656
460.90	0.655
461.10	0.656
461.31	0.655
461.51	0.653
461.71	0.654
461.91	0.655
462.12	0.655
462.32	0.654
462.52	0.655
462.72	0.657
462.93	0.658
463.13	0.656
463.33	0.657
463.53	0.659
463.74	0.658
463.94	0.654
464.14	0.655
464.35	0.657
464.55	0.657
464.75	0.655
464.95	0.653
465.16	0.655
465.36	0.654
465.56	0.653
465.76	0.653
465.97	0.653
466.17	0.653
466.37	0.651
466.57	0.652
466.78	0.653
466.98	0.652
467.18	0.650
467.38	0.649
467.59	0.650
467.79	0.652
467.99	0.650
468.19	0.652
468.39	0.655
468.60	0.655
468.80	0.653
469.00	0.654
469.20	0.656
469.41	0.656
469.61	0.656
469.81	0.656
470.01	0.655
470.22	0.655
470.42	0.653
470.62	0.650
470.82	0.652
471.02	0.652
471.23	0.650
471.43	0.650
471.63	0.653
471.83	0.652
472.04	0.650
472.24	0.649
472.44	0.654
472.64	0.654
472.84	0.653
473.05	0.653
473.25	0.655
473.45	0.654
473.65	0.653
473.85	0.653
474.06	0.655
474.26	0.655
474.46	0.656
474.66	0.652
474.86	0.653
475.07	0.653
475.27	0.651
475.47	0.649
475.67	0.650
475.87	0.652
476.08	0.649
476.28	0.650
476.48	0.651
476.68	0.649
476.88	0.646
477.09	0.648
477.29	0.650
477.49	0.649
477.69	0.649
477.89	0.648
478.09	0.648
478.30	0.650
478.50	0.647
478.70	0.647
478.90	0.647
479.10	0.650
479.31	0.651
479.51	0.649
479.71	0.650
479.91	0.650
480.11	0.649
480.31	0.649
480.52	0.649
480.72	0.649
480.92	0.647
481.12	0.646
481.32	0.644
481.52	0.641
481.72	0.641
481.93	0.645
482.13	0.645
482.33	0.645
482.53	0.643
482.73	0.644
482.93	0.645
483.14	0.645
483.34	0.644
483.54	0.645
483.74	0.645
483.94	0.644
484.14	0.640
484.34	0.640
484.55	0.641
484.75	0.641
484.95	0.638
485.15	0.638
485.35	0.638
485.55	0.638
485.75	0.635
485.96	0.636
486.16	0.637
486.36	0.636
486.56	0.635
486.76	0.635
486.96	0.635
487.16	0.634
487.36	0.632
487.57	0.632
487.77	0.632
487.97	0.633
488.17	0.631
488.37	0.630
488.57	0.630
488.77	0.631
488.97	0.630
489.18	0.629
489.38	0.632
489.58	0.633
489.78	0.632
489.98	0.632
490.18	0.632
490.38	0.632
490.58	0.631
490.78	0.632
490.98	0.634
491.19	0.634
491.39	0.633
491.59	0.632
491.79	0.635
491.99	0.635
492.19	0.635
492.39	0.638
492.59	0.638
492.79	0.640
492.99	0.640
493.20	0.640
493.40	0.640
493.60	0.642
493.80	0.640
494.00	0.638
494.20	0.638
494.40	0.638
494.60	0.635
494.80	0.639
495.00	0.638
495.20	0.637
495.40	0.635
495.61	0.637
495.81	0.637
496.01	0.640
496.21	0.641
496.41	0.641
496.61	0.641
496.81	0.640
497.01	0.635
497.21	0.635
497.41	0.635
497.61	0.635
497.81	0.632
498.01	0.632
498.21	0.630
498.41	0.628
498.61	0.628
498.82	0.630
499.02	0.632
499.22	0.632
499.42	0.632
499.62	0.633
499.82	0.634
500.02	0.635
500.22	0.634
500.42	0.636
500.62	0.637
500.82	0.637
501.02	0.635
501.22	0.635
501.42	0.635
501.62	0.638
501.82	0.637
502.02	0.637
502.22	0.636
502.42	0.639
502.62	0.636
502.82	0.636
503.02	0.637
503.22	0.636
503.42	0.634
503.63	0.634
503.83	0.631
504.03	0.630
504.23	0.629
504.43	0.629
504.63	0.630
504.83	0.630
505.03	0.629
505.23	0.631
505.43	0.632
505.63	0.633
505.83	0.633
506.03	0.635
506.23	0.637
506.43	0.637
506.63	0.636
506.83	0.635
507.03	0.637
507.23	0.636
507.43	0.634
507.63	0.634
507.83	0.634
508.03	0.634
508.23	0.634
508.43	0.632
508.63	0.634
508.83	0.635
509.03	0.636
509.23	0.635
509.43	0.636
509.63	0.636
509.83	0.635
510.03	0.638
510.23	0.640
510.43	0.640
510.63	0.640
510.83	0.640
511.03	0.642
511.23	0.639
511.43	0.639
511.63	0.640
511.83	0.643
512.03	0.643
512.22	0.639
512.42	0.639
512.62	0.640
512.82	0.639
513.02	0.639
513.22	0.638
513.42	0.641
513.62	0.644
513.82	0.642
514.02	0.641
514.22	0.642
514.42	0.643
514.62	0.643
514.82	0.643
515.02	0.646
515.22	0.649
515.42	0.648
515.62	0.649
515.82	0.648
516.02	0.649
516.22	0.650
516.42	0.651
516.62	0.653
516.82	0.654
517.01	0.652
517.21	0.651
517.41	0.654
517.61	0.655
517.81	0.651
518.01	0.651
518.21	0.650
518.41	0.649
518.61	0.648
518.81	0.648
519.01	0.648
519.21	0.648
519.41	0.647
519.61	0.642
519.81	0.644
520.00	0.645
520.20	0.645
520.40	0.648
520.60	0.649
520.80	0.648
521.00	0.648
521.20	0.650
521.40	0.654
521.60	0.654
521.80	0.653
522.00	0.653
522.20	0.655
522.39	0.655
522.59	0.652
522.79	0.654
522.99	0.656
523.19	0.654
523.39	0.652
523.59	0.650
523.79	0.653
523.99	0.655
524.19	0.654
524.38	0.652
524.58	0.654
524.78	0.655
524.98	0.652
525.18	0.655
525.38	0.656
525.58	0.657
525.78	0.654
525.98	0.653
526.18	0.653
526.37	0.653
526.57	0.654
526.77	0.653
526.97	0.654
527.17	0.654
527.37	0.650
527.57	0.653
527.77	0.655
527.96	0.655
528.16	0.654
528.36	0.655
528.56	0.657
528.76	0.655
528.96	0.654
529.16	0.655
529.36	0.658
529.55	0.658
529.75	0.654
529.95	0.654
530.15	0.656
530.35	0.657
530.55	0.655
530.75	0.656
530.94	0.658
531.14	0.658
531.34	0.657
531.54	0.655
531.74	0.658
531.94	0.661
532.13	0.660
532.33	0.662
532.53	0.661
532.73	0.661
532.93	0.659
533.13	0.660
533.33	0.660
533.52	0.660
533.72	0.663
533.92	0.661
534.12	0.659
534.32	0.659
534.52	0.657
534.71	0.658
534.91	0.661
535.11	0.662
535.31	0.661
535.51	0.663
535.71	0.665
535.90	0.661
536.10	0.663
536.30	0.665
536.50	0.666
536.70	0.666
536.89	0.664
537.09	0.663
537.29	0.665
537.49	0.665
537.69	0.663
537.89	0.664
538.08	0.664
538.28	0.662
538.48	0.662
538.68	0.664
538.88	0.665
539.07	0.665
539.27	0.663
539.47	0.662
539.67	0.662
539.87	0.664
540.06	0.661
540.26	0.662
540.46	0.664
540.66	0.661
540.86	0.659
541.05	0.659
541.25	0.661
541.45	0.661
541.65	0.660
541.84	0.662
542.04	0.662
542.24	0.663
542.44	0.662
542.64	0.664
542.83	0.667
543.03	0.667
543.23	0.665
543.43	0.666
543.62	0.668
543.82	0.668
544.02	0.667
544.22	0.667
544.42	0.670
544.61	0.670
544.81	0.667
545.01	0.666
545.21	0.668
545.40	0.669
545.60	0.667
545.80	0.670
546.00	0.670
546.19	0.669
546.39	0.668
546.59	0.665
546.79	0.667
546.98	0.667
547.18	0.667
547.38	0.667
547.58	0.670
547.77	0.669
547.97	0.665
548.17	0.668
548.37	0.668
548.56	0.668
548.76	0.667
548.96	0.669
549.16	0.671
549.35	0.670
549.55	0.668
549.75	0.668
549.95	0.672
550.14	0.672
550.34	0.670
550.54	0.675
550.73	0.679
550.93	0.680
551.13	0.676
551.33	0.675
551.52	0.676
551.72	0.677
551.92	0.675
552.12	0.675
552.31	0.676
552.51	0.676
552.71	0.671
552.90	0.671
553.10	0.673
553.30	0.673
553.50	0.673
553.69	0.674
553.89	0.675
554.09	0.675
554.28	0.672
554.48	0.674
554.68	0.675
554.87	0.675
555.07	0.671
555.27	0.671
555.47	0.672
555.66	0.672
555.86	0.671
556.06	0.672
556.25	0.674
556.45	0.682
556.65	0.680
556.84	0.683
557.04	0.686
557.24	0.688
557.43	0.688
557.63	0.691
557.83	0.693
558.02	0.693
558.22	0.697
558.42	0.698
558.61	0.690
558.81	0.690
559.01	0.686
559.21	0.685
559.40	0.686
559.60	0.687
559.80	0.683
559.99	0.685
560.19	0.686
560.39	0.680
560.58	0.677
560.78	0.678
560.97	0.681
561.17	0.680
561.37	0.678
561.56	0.680
561.76	0.681
561.96	0.681
562.15	0.678
562.35	0.680
562.55	0.682
562.74	0.682
562.94	0.680
563.14	0.678
563.33	0.679
563.53	0.679
563.73	0.677
563.92	0.679
564.12	0.682
564.31	0.684
564.51	0.682
564.71	0.684
564.90	0.687
565.10	0.687
565.30	0.690
565.49	0.691
565.69	0.694
565.89	0.694
566.08	0.691
566.28	0.693
566.47	0.695
566.67	0.693
566.87	0.690
567.06	0.692
567.26	0.699
567.46	0.694
567.65	0.694
567.85	0.695
568.04	0.697
568.24	0.696
568.44	0.693
568.63	0.691
568.83	0.693
569.02	0.691
569.22	0.686
569.42	0.683
569.61	0.686
569.81	0.684
570.00	0.682
570.20	0.683
570.40	0.684
570.59	0.684
570.79	0.682
570.98	0.681
571.18	0.682
571.38	0.682
571.57	0.679
571.77	0.677
571.96	0.680
572.16	0.678
572.35	0.672
572.55	0.673
572.75	0.671
572.94	0.671
573.14	0.669
573.33	0.669
573.53	0.670
573.73	0.669
573.92	0.667
574.12	0.665
574.31	0.668
574.51	0.669
574.70	0.667
574.90	0.669
575.09	0.671
575.29	0.671
575.49	0.669
575.68	0.670
575.88	0.671
576.07	0.672
576.27	0.670
576.46	0.669
576.66	0.668
576.86	0.667
577.05	0.664
577.25	0.662
577.44	0.664
577.64	0.664
577.83	0.662
578.03	0.663
578.22	0.662
578.42	0.662
578.61	0.660
578.81	0.661
579.00	0.661
579.20	0.661
579.40	0.660
579.59	0.659
579.79	0.659
579.98	0.659
580.18	0.658
580.37	0.659
580.57	0.661
580.76	0.666
580.96	0.664
581.15	0.665
581.35	0.667
581.54	0.666
581.74	0.666
581.93	0.667
582.13	0.668
582.32	0.665
582.52	0.664
582.71	0.663
582.91	0.659
583.10	0.658
583.30	0.657
583.49	0.656
583.69	0.660
583.88	0.661
584.08	0.660
584.27	0.662
584.47	0.665
584.66	0.666
584.86	0.665
585.05	0.667
585.25	0.670
585.44	0.669
585.64	0.668
585.83	0.665
586.03	0.665
586.22	0.663
586.42	0.660
586.61	0.661
586.81	0.664
587.00	0.664
587.20	0.661
587.39	0.662
587.59	0.664
587.78	0.665
587.98	0.665
588.17	0.666
588.37	0.668
588.56	0.671
588.76	0.666
588.95	0.666
589.15	0.670
589.34	0.673
589.54	0.671
589.73	0.672
589.92	0.675
590.12	0.675
590.31	0.672
590.51	0.677
590.70	0.678
590.90	0.679
591.09	0.676
591.29	0.675
591.48	0.675
591.68	0.676
591.87	0.674
592.06	0.673
592.26	0.676
592.45	0.676
592.65	0.670
592.84	0.669
593.04	0.672
593.23	0.674
593.43	0.672
593.62	0.671
593.81	0.672
594.01	0.672
594.20	0.670
594.40	0.669
594.59	0.671
594.79	0.672
594.98	0.670
595.17	0.669
595.37	0.670
595.56	0.672
595.76	0.671
595.95	0.672
596.14	0.674
596.34	0.676
596.53	0.674
596.73	0.677
596.92	0.678
597.12	0.681
597.31	0.681
597.50	0.680
597.70	0.682
597.89	0.681
598.09	0.678
598.28	0.679
598.47	0.682
598.67	0.681
598.86	0.677
599.06	0.679
599.25	0.679
599.44	0.677
599.64	0.675
599.83	0.672
600.03	0.675
600.22	0.676
600.41	0.676
600.61	0.673
600.80	0.675
601.00	0.676
601.19	0.672
601.38	0.670
601.58	0.672
601.77	0.673
601.96	0.675
602.16	0.675
602.35	0.684
602.55	0.681
602.74	0.683
602.93	0.684
603.13	0.689
603.32	0.690
603.51	0.690
603.71	0.693
603.90	0.695
604.09	0.695
604.29	0.693
604.48	0.687
604.68	0.689
604.87	0.687
605.06	0.684
605.26	0.680
605.45	0.681
605.64	0.680
605.84	0.675
606.03	0.675
606.22	0.673
606.42	0.673
606.61	0.669
606.80	0.669
607.00	0.670
607.19	0.671
607.38	0.669
607.58	0.671
607.77	0.674
607.96	0.674
608.16	0.673
608.35	0.678
608.54	0.681
608.74	0.684
608.93	0.689
609.12	0.692
609.32	0.694
609.51	0.698
609.70	0.696
609.90	0.698
610.09	0.702
610.28	0.707
610.48	0.701
610.67	0.701
610.86	0.702
611.06	0.696
611.25	0.694
611.44	0.694
611.64	0.694
611.83	0.697
612.02	0.693
612.21	0.692
612.41	0.690
612.60	0.689
612.79	0.685
612.99	0.685
613.18	0.688
613.37	0.685
613.57	0.683
613.76	0.685
613.95	0.682
614.14	0.682
614.34	0.679
614.53	0.681
614.72	0.684
614.92	0.684
615.11	0.681
615.30	0.678
615.49	0.679
615.69	0.682
615.88	0.679
616.07	0.680
616.26	0.682
616.46	0.683
616.65	0.680
616.84	0.679
617.04	0.680
617.23	0.683
617.42	0.684
617.61	0.688
617.81	0.689
618.00	0.690
618.19	0.689
618.38	0.692
618.58	0.695
618.77	0.696
618.96	0.696
619.15	0.698
619.35	0.700
619.54	0.700
619.73	0.695
619.92	0.696
620.12	0.701
620.31	0.702
620.50	0.697
620.69	0.697
620.89	0.700
621.08	0.701
621.27	0.700
621.46	0.699
621.66	0.702
621.85	0.702
622.04	0.699
622.23	0.700
622.43	0.700
622.62	0.700
622.81	0.700
623.00	0.700
623.19	0.703
623.39	0.702
623.58	0.699
623.77	0.698
623.96	0.701
624.16	0.700
624.35	0.696
624.54	0.699
624.73	0.702
624.92	0.699
625.12	0.696
625.31	0.698
625.50	0.701
625.69	0.701
625.88	0.698
626.08	0.697
626.27	0.699
626.46	0.699
626.65	0.696
626.84	0.696
627.04	0.702
627.23	0.702
627.42	0.697
627.61	0.699
627.80	0.702
628.00	0.703
628.19	0.701
628.38	0.704
628.57	0.707
628.76	0.706
628.96	0.703
629.15	0.704
629.34	0.707
629.53	0.707
629.72	0.701
629.91	0.702
630.11	0.708
630.30	0.708
630.49	0.711
630.68	0.710
630.87	0.714
631.06	0.716
631.26	0.711
631.45	0.713
631.64	0.722
631.83	0.724
632.02	0.721
632.21	0.720
632.41	0.727
632.60	0.721
632.79	0.720
632.98	0.720
633.17	0.721
633.36	0.723
633.55	0.719
633.75	0.715
633.94	0.717
634.13	0.716
634.32	0.713
634.51	0.707
634.70	0.708
634.89	0.708
635.09	0.704
635.28	0.705
635.47	0.706
635.66	0.709
635.85	0.705
636.04	0.706
636.23	0.711
636.43	0.712
636.62	0.710
636.81	0.711
637.00	0.713
637.19	0.717
637.38	0.714
637.57	0.713
637.76	0.715
637.95	0.715
638.15	0.711
638.34	0.708
638.53	0.712
638.72	0.713
638.91	0.710
639.10	0.708
639.29	0.708
639.48	0.709
639.67	0.710
639.87	0.709
640.06	0.715
640.25	0.714
640.44	0.715
640.63	0.714
640.82	0.718
641.01	0.718
641.20	0.717
641.39	0.718
641.58	0.720
641.78	0.719
641.97	0.714
642.16	0.728
642.35	0.730
642.54	0.728
642.73	0.724
642.92	0.723
643.11	0.726
643.30	0.725
643.49	0.721
643.68	0.722
643.87	0.723
644.06	0.724
644.25	0.703
644.45	0.704
644.64	0.706
644.83	0.706
645.02	0.702
645.21	0.701
645.40	0.703
645.59	0.703
645.78	0.698
645.97	0.701
646.16	0.702
646.35	0.701
646.54	0.700
646.73	0.701
646.92	0.703
647.11	0.703
647.30	0.699
647.49	0.701
647.68	0.700
647.88	0.698
648.07	0.691
648.26	0.694
648.45	0.697
648.64	0.694
648.83	0.691
649.02	0.693
649.21	0.703
649.40	0.702
649.59	0.697
649.78	0.698
649.97	0.713
650.16	0.713
650.35	0.707
650.54	0.709
650.73	0.718
650.92	0.714
651.11	0.707
651.30	0.706
651.49	0.711
651.68	0.710
651.87	0.707
652.06	0.696
652.25	0.699
652.44	0.702
652.63	0.699
652.82	0.698
653.01	0.699
653.20	0.697
653.39	0.685
653.58	0.682
653.77	0.682
653.96	0.677
654.15	0.670
654.34	0.668
654.53	0.663
654.72	0.657
654.91	0.648
655.10	0.644
655.29	0.643
655.48	0.641
655.67	0.636
655.86	0.634
656.05	0.632
656.24	0.632
656.43	0.627
656.62	0.626
656.81	0.627
657.00	0.624
657.19	0.621
657.38	0.621
657.57	0.620
657.76	0.622
657.95	0.620
658.14	0.623
658.33	0.626
658.51	0.631
658.70	0.631
658.89	0.632
659.08	0.641
659.27	0.649
659.46	0.649
659.65	0.656
659.84	0.659
660.03	0.663
660.22	0.663
660.41	0.667
660.60	0.666
660.79	0.667
660.98	0.673
661.17	0.672
661.36	0.670
661.55	0.671
661.74	0.668
661.92	0.671
662.11	0.673
662.30	0.671
662.49	0.665
662.68	0.665
662.87	0.669
663.06	0.663
663.25	0.663
663.44	0.663
663.63	0.664
663.82	0.663
664.01	0.658
664.20	0.657
664.38	0.658
664.57	0.659
664.76	0.658
664.95	0.659
665.14	0.663
665.33	0.659
665.52	0.667
665.71	0.671
665.90	0.670
666.09	0.672
666.28	0.670
666.46	0.669
666.65	0.671
666.84	0.669
667.03	0.663
667.22	0.662
667.41	0.665
667.60	0.655
667.79	0.649
667.98	0.649
668.16	0.650
668.35	0.650
668.54	0.646
668.73	0.647
668.92	0.648
669.11	0.646
669.30	0.640
669.49	0.636
669.67	0.638
669.86	0.640
670.05	0.638
670.24	0.635
670.43	0.633
670.62	0.632
670.81	0.626
671.00	0.627
671.18	0.628
671.37	0.626
671.56	0.623
671.75	0.622
671.94	0.619
672.13	0.617
672.32	0.612
672.50	0.612
672.69	0.613
672.88	0.613
673.07	0.608
673.26	0.610
673.45	0.612
673.63	0.612
673.82	0.608
674.01	0.610
674.20	0.610
674.39	0.610
674.58	0.608
674.76	0.608
674.95	0.606
675.14	0.606
675.33	0.602
675.52	0.601
675.71	0.601
675.89	0.600
676.08	0.596
676.27	0.596
676.46	0.597
676.65	0.596
676.84	0.597
677.02	0.599
677.21	0.601
677.40	0.600
677.59	0.597
677.78	0.598
677.96	0.601
678.15	0.601
678.34	0.599
678.53	0.600
678.72	0.599
678.90	0.595
679.09	0.591
679.28	0.588
679.47	0.588
679.66	0.587
679.84	0.584
680.03	0.581
680.22	0.580
680.41	0.582
680.60	0.578
680.78	0.578
680.97	0.580
681.16	0.580
681.35	0.579
681.53	0.578
681.72	0.579
681.91	0.580
682.10	0.578
682.29	0.581
682.47	0.579
682.66	0.578
682.85	0.577
683.04	0.575
683.22	0.574
683.41	0.576
683.60	0.575
683.79	0.576
683.97	0.576
684.16	0.574
684.35	0.570
684.54	0.571
684.72	0.572
684.91	0.573
685.10	0.571
685.29	0.572
685.47	0.569
685.66	0.568
685.85	0.565
686.04	0.565
686.22	0.568
686.41	0.570
686.60	0.567
686.79	0.570
686.97	0.571
687.16	0.572
687.35	0.570
687.54	0.573
687.72	0.577
687.91	0.576
688.10	0.578
688.29	0.577
688.47	0.575
688.66	0.575
688.85	0.570
689.03	0.568
689.22	0.573
689.41	0.573
689.60	0.569
689.78	0.566
689.97	0.567
690.16	0.564
690.34	0.561
690.53	0.560
690.72	0.561
690.91	0.559
691.09	0.557
691.28	0.551
691.47	0.550
691.65	0.549
691.84	0.547
692.03	0.545
692.21	0.543
692.40	0.543
692.59	0.540
692.77	0.539
692.96	0.541
693.15	0.541
693.34	0.539
693.52	0.539
693.71	0.539
693.90	0.540
694.08	0.540
694.27	0.542
694.46	0.551
694.64	0.552
694.83	0.551
695.02	0.550
695.20	0.550
695.39	0.550
695.58	0.549
695.76	0.550
695.95	0.550
696.14	0.549
696.32	0.547
696.51	0.538
696.70	0.538
696.88	0.539
697.07	0.538
697.26	0.539
697.44	0.540
697.63	0.539
697.81	0.536
698.00	0.536
698.19	0.535
698.37	0.535
698.56	0.535
698.75	0.534
698.93	0.534
699.12	0.534
699.31	0.533
699.49	0.533
699.68	0.534
699.87	0.537
700.05	0.537
700.24	0.536
700.42	0.538
700.61	0.537
700.80	0.535
700.98	0.535
701.17	0.536
701.36	0.535
701.54	0.534
701.73	0.535
701.91	0.532
702.10	0.531
702.29	0.529
702.47	0.528
702.66	0.529
702.84	0.531
703.03	0.528
703.22	0.530
703.40	0.529
703.59	0.530
703.77	0.530
703.96	0.530
704.15	0.531
704.33	0.531
704.52	0.531
704.70	0.531
704.89	0.531
705.08	0.530
705.26	0.525
705.45	0.526
705.63	0.525
705.82	0.522
706.00	0.521
706.19	0.520
706.38	0.520
706.56	0.520
706.75	0.517
706.93	0.516
707.12	0.517
707.30	0.517
707.49	0.515
707.68	0.513
707.86	0.512
708.05	0.512
708.23	0.509
708.42	0.510
708.60	0.512
708.79	0.512
708.98	0.511
709.16	0.510
709.35	0.512
709.53	0.516
709.72	0.515
709.90	0.517
710.09	0.519
710.27	0.521
710.46	0.525
710.64	0.524
710.83	0.525
711.02	0.527
711.20	0.526
711.39	0.524
711.57	0.522
711.76	0.523
711.94	0.521
712.13	0.521
712.31	0.521
712.50	0.517
712.68	0.514
712.87	0.515
713.05	0.516
713.24	0.516
713.42	0.516
713.61	0.516
713.79	0.517
713.98	0.517
714.16	0.518
714.35	0.518
714.54	0.519
714.72	0.519
714.91	0.517
715.09	0.523
715.28	0.526
715.46	0.526
715.65	0.524
715.83	0.524
716.02	0.526
716.20	0.522
716.39	0.521
716.57	0.523
716.76	0.525
716.94	0.524
717.12	0.517
717.31	0.518
717.49	0.520
717.68	0.522
717.86	0.522
718.05	0.525
718.23	0.527
718.42	0.530
718.60	0.530
718.79	0.538
718.97	0.540
719.16	0.539
719.34	0.537
719.53	0.537
719.71	0.537
719.90	0.538
720.08	0.534
720.27	0.534
720.45	0.534
720.63	0.532
720.82	0.526
721.00	0.530
721.19	0.534
721.37	0.533
721.56	0.533
721.74	0.536
721.93	0.546
722.11	0.553
722.30	0.552
722.48	0.556
722.66	0.557
722.85	0.557
723.03	0.556
723.22	0.554
723.40	0.557
723.59	0.557
723.77	0.560
723.95	0.553
724.14	0.555
724.32	0.557
724.51	0.557
724.69	0.558
724.88	0.558
725.06	0.557
725.24	0.558
725.43	0.559
725.61	0.562
725.80	0.556
725.98	0.554
726.16	0.550
726.35	0.556
726.53	0.555
726.72	0.554
726.90	0.564
727.09	0.565
727.27	0.571
727.45	0.569
727.64	0.577
727.82	0.586
728.01	0.591
728.19	0.587
728.37	0.592
728.56	0.596
728.74	0.603
728.92	0.591
729.11	0.592
729.29	0.593
729.48	0.595
729.66	0.585
729.84	0.583
730.03	0.587
730.21	0.590
730.40	0.580
730.58	0.581
730.76	0.580
730.95	0.583
731.13	0.584
731.31	0.597
731.50	0.606
731.68	0.609
731.86	0.605
732.05	0.618
732.23	0.621
732.42	0.624
732.60	0.626
732.78	0.632
732.97	0.648
733.15	0.654
733.33	0.641
733.52	0.648
733.70	0.658
733.88	0.668
734.07	0.653
734.25	0.677
734.43	0.685
734.62	0.688
734.80	0.681
734.98	0.673
735.17	0.679
735.35	0.685
735.53	0.674
735.72	0.678
735.90	0.697
736.08	0.715
736.27	0.693
736.45	0.703
736.63	0.715
736.82	0.724
737.00	0.723
737.18	0.733
737.37	0.764
737.55	0.786
737.73	0.779
737.92	0.783
738.10	0.782
738.28	0.801
738.46	0.788
738.65	0.800
738.83	0.823
739.01	0.872
739.20	0.861
739.38	0.842
739.56	0.834
739.75	0.839
739.93	0.806
740.11	0.829
740.29	0.827
740.48	0.830
740.66	0.812
740.84	0.807
741.03	0.776
741.21	0.786
741.39	0.769
741.57	0.783
741.76	0.798
741.94	0.804
742.12	0.769
742.31	0.775
742.49	0.798
742.67	0.820
742.85	0.830
743.04	0.830
743.22	0.839
743.40	0.887
743.58	0.864
743.77	0.880
743.95	0.913
744.13	0.961
744.31	0.944
744.50	0.936
744.68	0.931
744.86	0.910
745.04	0.924
745.23	0.986
745.41	0.972
745.59	0.980
745.77	0.946
745.96	0.930
746.14	0.937
746.32	0.933
746.50	0.922
746.69	0.913
746.87	0.919
747.05	0.905
747.23	0.833
747.42	0.818
747.60	0.839
747.78	0.843
747.96	0.872
748.14	0.831
748.33	0.859
748.51	0.852
748.69	0.839
748.87	0.868
749.06	0.866
749.24	0.867
749.42	0.856
749.60	0.840
749.78	0.849
749.97	0.805
750.15	0.801
750.33	0.804
750.51	0.831
750.69	0.839
750.88	0.839
751.06	0.848
751.24	0.872
751.42	0.865
751.60	0.859
751.79	0.925
751.97	0.971
752.15	0.970
752.33	0.934
752.51	0.987
752.69	1.003
752.88	0.977
753.06	1.023
753.24	1.000
753.42	1.032
753.60	1.191
753.78	1.056
753.97	1.073
754.15	1.088
754.33	1.123
754.51	1.006
754.69	0.999
754.87	1.032
755.06	0.957
755.24	0.954
755.42	0.959
755.60	0.864
755.78	0.874
755.96	0.822
756.15	0.825
756.33	0.830
756.51	0.849
756.69	0.833
756.87	0.800
757.05	0.820
757.23	0.805
757.42	0.775
757.60	0.773
757.78	0.764
757.96	0.764
758.14	0.746
758.32	0.731
758.50	0.743
758.69	0.741
758.87	0.733
759.05	0.737
759.23	0.748
759.41	0.747
759.59	0.741
759.77	0.762
759.95	0.789
760.13	0.836
760.32	0.836
760.50	0.829
760.68	0.852
760.86	0.852
761.04	0.825
761.22	0.826
761.40	0.876
761.58	0.876
761.76	0.850
761.95	0.833
762.13	0.790
762.31	0.792
762.49	0.762
762.67	0.779
762.85	0.792
763.03	0.786
763.21	0.771
763.39	0.750
763.57	0.754
763.75	0.745
763.94	0.728
764.12	0.731
764.30	0.751
764.48	0.756
764.66	0.721
764.84	0.722
765.02	0.759
765.20	0.765
765.38	0.746
765.56	0.751
765.74	0.792
765.92	0.795
766.10	0.800
766.28	0.796
766.46	0.823
766.65	0.822
766.83	0.805
767.01	0.789
767.19	0.796
767.37	0.797
767.55	0.783
767.73	0.766
767.91	0.767
768.09	0.758
768.27	0.745
768.45	0.738
768.63	0.745
768.81	0.748
768.99	0.724
769.17	0.747
769.35	0.763
769.53	0.760
769.71	0.740
769.89	0.747
770.07	0.753
770.25	0.736
770.43	0.714
770.61	0.736
770.79	0.742
770.97	0.754
771.15	0.724
771.33	0.725
771.51	0.730
771.69	0.741
771.87	0.749
772.05	0.750
772.24	0.757
772.42	0.765
772.60	0.745
772.78	0.799
772.96	0.822
773.14	0.815
773.32	0.795
773.49	0.800
773.67	0.798
773.85	0.780
774.03	0.772
774.21	0.804
774.39	0.815
774.57	0.837
774.75	0.769
774.93	0.764
775.11	0.787
775.29	0.792
775.47	0.794
775.65	0.806
775.83	0.821
776.01	0.841
776.19	0.794
776.37	0.793
776.55	0.791
776.73	0.790
776.91	0.786
777.09	0.771
777.27	0.770
777.45	0.758
777.63	0.734
777.81	0.729
777.99	0.720
778.17	0.723
778.35	0.705
778.53	0.694
778.71	0.699
778.89	0.687
779.07	0.678
779.24	0.682
779.42	0.685
779.60	0.703
779.78	0.699
779.96	0.702
780.14	0.709
780.32	0.727
780.50	0.712
780.68	0.711
780.86	0.701
781.04	0.716
781.22	0.717
781.40	0.727
781.58	0.719
781.75	0.711
781.93	0.695
782.11	0.694
782.29	0.683
782.47	0.682
782.65	0.672
782.83	0.703
783.01	0.700
783.19	0.694
783.37	0.680
783.55	0.683
783.72	0.703
783.90	0.713
784.08	0.705
784.26	0.714
784.44	0.732
784.62	0.735
784.80	0.701
784.98	0.704
785.16	0.711
785.33	0.726
785.51	0.713
785.69	0.700
785.87	0.698
786.05	0.710
786.23	0.707
786.41	0.707
786.59	0.713
786.77	0.712
786.94	0.699
787.12	0.703
787.30	0.702
787.48	0.702
787.66	0.689
787.84	0.690
788.02	0.681
788.19	0.678
788.37	0.665
788.55	0.665
788.73	0.666
788.91	0.661
789.09	0.645
789.27	0.636
789.44	0.647
789.62	0.652
789.80	0.661
789.98	0.686
790.16	0.672
790.34	0.668
790.51	0.658
790.69	0.677
790.87	0.683
791.05	0.679
791.23	0.673
791.41	0.672
791.58	0.678
791.76	0.659
791.94	0.629
792.12	0.639
792.30	0.641
792.48	0.638
792.65	0.630
792.83	0.637
793.01	0.645
793.19	0.642
793.37	0.629
793.54	0.627
793.72	0.638
793.90	0.636
794.08	0.628
794.26	0.629
794.43	0.639
794.61	0.624
794.79	0.612
794.97	0.611
795.15	0.618
795.32	0.622
795.50	0.610
795.68	0.605
795.86	0.610
796.04	0.610
796.21	0.604
796.39	0.602
796.57	0.616
796.75	0.625
796.92	0.624
797.10	0.629
797.28	0.630
797.46	0.634
797.64	0.635
797.81	0.642
797.99	0.647
798.17	0.651
798.35	0.644
798.52	0.648
798.70	0.643
798.88	0.651
799.06	0.648
799.23	0.650
799.41	0.657
799.59	0.652
799.77	0.640
799.94	0.649
800.12	0.658
800.30	0.675
800.48	0.673
800.65	0.671
800.83	0.663
801.01	0.657
801.19	0.659
801.36	0.657
801.54	0.661
801.72	0.671
801.90	0.657
802.07	0.651
802.25	0.638
802.43	0.622
802.60	0.621
802.78	0.627
802.96	0.633
803.14	0.624
803.31	0.621
803.49	0.621
803.67	0.618
803.84	0.623
804.02	0.617
804.20	0.618
804.38	0.624
804.55	0.623
804.73	0.609
804.91	0.610
805.08	0.622
805.26	0.618
805.44	0.680
805.61	0.681
805.79	0.680
805.97	0.680
806.15	0.672
806.32	0.667
806.50	0.671
806.68	0.672
806.85	0.663
807.03	0.655
807.21	0.672
807.38	0.606
807.56	0.596
807.74	0.605
807.91	0.610
808.09	0.613
808.27	0.629
808.44	0.654
808.62	0.660
808.80	0.661
808.97	0.655
809.15	0.649
809.33	0.665
809.50	0.672
809.68	0.658
809.86	0.667
810.03	0.696
810.21	0.679
810.39	0.664
810.56	0.671
810.74	0.693
810.91	0.760
811.09	0.753
811.27	0.773
811.44	0.779
811.62	0.781
811.80	0.763
811.97	0.734
812.15	0.734
812.33	0.726
812.50	0.712
812.68	0.703
812.85	0.651
813.03	0.652
813.21	0.622
813.38	0.615
813.56	0.619
813.74	0.629
813.91	0.637
814.09	0.666
814.26	0.661
814.44	0.664
814.62	0.654
814.79	0.659
814.97	0.663
815.14	0.668
815.32	0.673
815.50	0.688
815.67	0.690
815.85	0.680
816.02	0.669
816.20	0.678
816.38	0.692
816.55	0.699
816.73	0.698
816.90	0.705
817.08	0.734
817.26	0.742
817.43	0.721
817.61	0.745
817.78	0.766
817.96	0.745
818.13	0.734
818.31	0.735
818.49	0.746
818.66	0.734
818.84	0.721
819.01	0.699
819.19	0.704
819.36	0.706
819.54	0.678
819.71	0.717
819.89	0.732
820.07	0.740
820.24	0.734
820.42	0.733
820.59	0.751
820.77	0.774
820.94	0.765
821.12	0.781
821.29	0.797
821.47	0.798
821.64	0.735
821.82	0.743
822.00	0.743
822.17	0.741
822.35	0.734
822.52	0.736
822.70	0.725
822.87	0.736
823.05	0.717
823.22	0.731
823.40	0.757
823.57	0.782
823.75	0.765
823.92	0.791
824.10	0.808
824.27	0.849
824.45	0.838
824.62	0.902
824.80	0.914
824.97	0.923
825.15	0.905
825.32	0.913
825.50	0.912
825.67	0.922
825.85	0.898
826.02	0.914
826.20	0.934
826.37	1.055
826.55	0.978
826.72	1.153
826.90	1.227
827.07	1.284
827.25	1.231
827.42	1.382
827.60	1.532
827.77	1.713
827.95	1.651
828.12	1.793
828.30	1.398
828.47	1.489
828.65	1.168
828.82	1.203
829.00	1.253
829.17	1.317
829.34	1.313
829.52	1.348
829.69	-0.000
829.87	-0.000
830.04	-0.000
830.22	-0.000
830.39	-0.000
830.57	-0.000
830.74	-0.000
830.92	-0.000
831.09	-0.000
831.26	-0.000
831.44	-0.000
831.61	-0.000
831.79	-0.000
831.96	-0.000
832.14	-0.000
832.31	-0.000
832.49	-0.000
832.66	-0.000
832.83	-0.000
833.01	-0.000
833.18	-0.000
833.36	-0.000
833.53	-0.000
833.70	-0.000
833.88	-0.000
834.05	-0.000
834.23	-0.000
834.40	-0.000
834.58	-0.000
834.75	-0.000
834.92	-0.000
835.10	-0.000
835.27	-0.000
835.45	-0.000
835.62	-0.000
835.79	-0.000
835.97	-0.000
836.14	-0.000
836.32	-0.000
836.49	-0.000
836.66	-0.000
836.84	-0.000
837.01	-0.000
837.18	-0.000
837.36	-0.000
837.53	-0.000
837.71	-0.000
837.88	-0.000
838.05	-0.000
838.23	-0.000
838.40	-0.000
838.58	-0.000
838.75	-0.000
838.92	-0.000
839.10	-0.000
839.27	-0.000
839.44	-0.000
839.62	-0.000
839.79	-0.000
839.96	-0.000
840.14	-0.000
840.31	-0.000
840.48	-0.000
840.66	-0.000
840.83	-0.000
841.01	-0.000
841.18	-0.000
841.35	-0.000
841.53	-0.000
841.70	-0.000
841.87	-0.000
842.05	-0.000
842.22	-0.000
842.39	-0.000
842.57	-0.000
842.74	-0.000
842.91	-0.000
843.09	-0.000
843.26	-0.000
843.43	-0.000
843.60	-0.000
843.78	-0.000
843.95	-0.000
844.12	-0.000
844.30	-0.000
844.47	-0.000
844.64	-0.000
844.82	-0.000
844.99	-0.000
845.16	-0.000
845.34	-0.000
845.51	-0.000
845.68	-0.000
845.85	-0.000
846.03	-0.000
846.20	-0.000
846.37	-0.000
846.55	-0.000
846.72	-0.000
846.89	-0.000
847.06	-0.000
847.24	-0.000
847.41	-0.000
847.58	-0.000
847.76	-0.000
847.93	-0.000
848.10	-0.000
848.27	-0.000
848.45	-0.000
848.62	-0.000
848.79	-0.000
848.97	-0.000
849.14	-0.000
849.31	-0.000
849.48	-0.000
849.66	-0.000
849.83	-0.000
850.00	-0.000
850.17	-0.000
850.35	-0.000
850.52	-0.000
850.69	-0.000
850.86	-0.000
851.04	-0.000
851.21	-0.000
851.38	-0.000
851.55	-0.000
851.72	-0.000
851.90	-0.000
852.07	-0.000
852.24	-0.000
852.41	-0.000
852.59	-0.000
852.76	-0.000
852.93	-0.000
853.10	-0.000
853.28	-0.000
853.45	-0.000
853.62	-0.000
853.79	-0.000
853.96	-0.000
854.14	-0.000
854.31	-0.000
854.48	-0.000
854.65	-0.000
854.82	-0.000
855.00	-0.000
855.17	-0.000
855.34	-0.000
855.51	-0.000
855.68	-0.000
855.86	-0.000
856.03	-0.000
856.20	-0.000
856.37	-0.000
856.54	-0.000
856.72	-0.000
856.89	-0.000
857.06	-0.000
857.23	-0.000
857.40	-0.000
857.57	-0.000
857.75	-0.000
857.92	-0.000
858.09	-0.000
858.26	-0.000
858.43	-0.000
858.60	-0.000
858.78	-0.000
858.95	-0.000
859.12	-0.000
859.29	-0.000
859.46	-0.000
859.63	-0.000
859.81	-0.000
859.98	-0.000
860.15	-0.000
860.32	-0.000
860.49	-0.000
860.66	-0.000
860.83	-0.000
861.01	-0.000
861.18	-0.000
861.35	-0.000
861.52	-0.000
861.69	-0.000
861.86	-0.000
862.03	-0.000
862.21	-0.000
862.38	-0.000
862.55	-0.000
862.72	-0.000
862.89	-0.000
863.06	-0.000
863.23	-0.000
863.40	-0.000
863.58	-0.000
863.75	-0.000
863.92	-0.000
864.09	-0.000
864.26	-0.000
864.43	-0.000
864.60	-0.000
864.77	-0.000
864.94	-0.000
865.11	-0.000
865.29	-0.000
865.46	-0.000
865.63	-0.000
865.80	-0.000
865.97	-0.000
866.14	-0.000
866.31	-0.000
866.48	-0.000
866.65	-0.000
866.82	-0.000
866.99	-0.000
867.16	-0.000
867.34	-0.000
867.51	-0.000
867.68	-0.000
867.85	-0.000
868.02	-0.000
868.19	-0.000
868.36	-0.000
868.53	-0.000
868.70	-0.000
868.87	-0.000
869.04	-0.000
869.21	-0.000
869.38	-0.000
869.55	-0.000
869.72	-0.000
869.89	-0.000
870.06	-0.000
870.24	-0.000
870.41	-0.000
870.58	-0.000
870.75	-0.000
870.92	-0.000
871.09	-0.000
871.26	-0.000
871.43	-0.000
871.60	-0.000
871.77	-0.000
871.94	-0.000
872.11	-0.000
872.28	-0.000
872.45	-0.000
872.62	-0.000
872.79	-0.000
872.96	-0.000
873.13	-0.000
873.30	-0.000
873.47	-0.000
873.64	-0.000
873.81	-0.000
873.98	-0.000
874.15	-0.000
874.32	-0.000
874.49	-0.000
874.66	-0.000
874.83	-0.000
875.00	-0.000
875.17	-0.000
875.34	-0.000
875.51	-0.000
875.68	-0.000
875.85	-0.000
876.02	-0.000
876.19	-0.000
876.36	-0.000
876.53	-0.000
876.70	-0.000
876.87	-0.000
877.04	-0.000
877.21	-0.000
877.38	-0.000
877.55	-0.000
877.72	-0.000
877.89	-0.000
878.06	-0.000
878.23	-0.000
878.39	-0.000
878.56	-0.000
878.73	-0.000
878.90	-0.000
879.07	-0.000
879.24	-0.000
879.41	-0.000
879.58	-0.000
879.75	-0.000
879.92	-0.000
880.09	-0.000
880.26	-0.000
880.43	-0.000
880.60	-0.000
880.77	-0.000
880.94	-0.000
881.11	-0.000
881.27	-0.000
881.44	-0.000
881.61	-0.000
881.78	-0.000
881.95	-0.000
882.12	-0.000
882.29	-0.000
882.46	-0.000
882.63	-0.000
882.80	-0.000
882.97	-0.000
883.14	-0.000
883.30	-0.000
883.47	-0.000
883.64	-0.000
883.81	-0.000
883.98	-0.000
884.15	-0.000
884.32	-0.000
884.49	-0.000
884.66	-0.000
884.82	-0.000
884.99	-0.000
885.16	-0.000
885.33	-0.000
885.50	-0.000
885.67	-0.000
885.84	-0.000
886.01	-0.000
886.17	-0.000
886.34	-0.000
886.51	-0.000
886.68	-0.000
886.85	-0.000
887.02	-0.000
887.19	-0.000
887.36	-0.000
887.52	-0.000
887.69	-0.000
887.86	-0.000
888.03	-0.000
888.20	-0.000
888.37	-0.000
888.54	-0.000
888.70	-0.000
888.87	-0.000
889.04	-0.000
889.21	-0.000
889.38	-0.000
889.55	-0.000
889.71	-0.000
889.88	-0.000
890.05	-0.000
890.22	-0.000
890.39	-0.000
>>>>>End Processed Spectral Data<<<<<
