SpectraSuite Data File
++++++++++++++++++++++++++++++++++++
Date: Fri Jun 19 12:53:31 CEST 2015
User: introlabs
Dark Spectrum Present: Yes
Reference Spectrum Present: Yes
Number of Sampled Component Spectra: 1
Spectrometers: USB4H08886
Integration Time (usec): 745692 (USB4H08886)
Spectra Averaged: 5 (USB4H08886)
Boxcar Smoothing: 5 (USB4H08886)
Correct for Electrical Dark: Yes (USB4H08886)
Strobe/Lamp Enabled: No (USB4H08886)
Correct for Detector Non-linearity: Yes (USB4H08886)
Correct for Stray Light: Yes (USB4H08886)
Number of Pixels in Processed Spectrum: 3648
>>>>>Begin Processed Spectral Data<<<<<
178.14	-0.000
178.36	-0.000
178.57	-0.000
178.79	-0.000
179.01	-0.000
179.22	-0.000
179.44	-0.000
179.65	-0.000
179.87	-0.000
180.08	-0.000
180.30	-0.000
180.52	-0.000
180.73	-0.000
180.95	-0.000
181.16	-0.000
181.38	-0.000
181.59	-0.000
181.81	-0.000
182.03	-0.000
182.24	-0.000
182.46	-0.000
182.67	-0.000
182.89	-0.000
183.10	-0.000
183.32	-0.000
183.54	-0.000
183.75	-0.000
183.97	-0.000
184.18	-0.000
184.40	-0.000
184.61	-0.000
184.83	-0.000
185.04	-0.000
185.26	-0.000
185.48	-0.000
185.69	-0.000
185.91	-0.000
186.12	-0.000
186.34	-0.000
186.55	-0.000
186.77	-0.000
186.98	-0.000
187.20	-0.000
187.42	-0.000
187.63	-0.000
187.85	-0.000
188.06	-0.000
188.28	-0.000
188.49	-0.000
188.71	-0.000
188.92	-0.000
189.14	-0.000
189.36	-0.000
189.57	-0.000
189.79	-0.000
190.00	-0.000
190.22	-0.000
190.43	-0.000
190.65	-0.000
190.86	-0.000
191.08	-0.000
191.29	-0.000
191.51	-0.000
191.72	-0.000
191.94	-0.000
192.16	-0.000
192.37	-0.000
192.59	-0.000
192.80	-0.000
193.02	-0.000
193.23	-0.000
193.45	-0.000
193.66	-0.000
193.88	-0.000
194.09	-0.000
194.31	-0.000
194.52	-0.000
194.74	-0.000
194.95	-0.000
195.17	-0.000
195.38	-0.000
195.60	-0.000
195.81	-0.000
196.03	-0.000
196.25	-0.000
196.46	-0.000
196.68	-0.000
196.89	-0.000
197.11	-0.000
197.32	-0.000
197.54	-0.000
197.75	-0.000
197.97	-0.000
198.18	-0.000
198.40	-0.000
198.61	-0.000
198.83	-0.000
199.04	-0.000
199.26	-0.000
199.47	-0.000
199.69	-0.000
199.90	-0.000
200.12	-0.000
200.33	-0.000
200.55	-0.000
200.76	-0.000
200.98	-0.000
201.19	-0.000
201.41	-0.000
201.62	-0.000
201.84	-0.000
202.05	-0.000
202.27	-0.000
202.48	-0.000
202.70	-0.000
202.91	-0.000
203.13	-0.000
203.34	-0.000
203.56	-0.000
203.77	-0.000
203.99	-0.000
204.20	-0.000
204.42	-0.000
204.63	-0.000
204.85	-0.000
205.06	-0.000
205.28	-0.000
205.49	-0.000
205.71	-0.000
205.92	-0.000
206.14	-0.000
206.35	-0.000
206.56	-0.000
206.78	-0.000
206.99	-0.000
207.21	-0.000
207.42	-0.000
207.64	-0.000
207.85	-0.000
208.07	-0.000
208.28	-0.000
208.50	-0.000
208.71	-0.000
208.93	-0.000
209.14	-0.000
209.36	-0.000
209.57	-0.000
209.79	-0.000
210.00	-0.000
210.22	-0.000
210.43	-0.000
210.64	-0.000
210.86	-0.000
211.07	-0.000
211.29	-0.000
211.50	-0.000
211.72	-0.000
211.93	-0.000
212.15	-0.000
212.36	-0.000
212.58	-0.000
212.79	-0.000
213.01	-0.000
213.22	-0.000
213.43	-0.000
213.65	-0.000
213.86	-0.000
214.08	-0.000
214.29	-0.000
214.51	-0.000
214.72	-0.000
214.94	-0.000
215.15	-0.000
215.36	-0.000
215.58	-0.000
215.79	-0.000
216.01	-0.000
216.22	-0.000
216.44	-0.000
216.65	-0.000
216.87	-0.000
217.08	-0.000
217.29	-0.000
217.51	-0.000
217.72	-0.000
217.94	-0.000
218.15	-0.000
218.37	-0.000
218.58	-0.000
218.80	-0.000
219.01	-0.000
219.22	-0.000
219.44	-0.000
219.65	-0.000
219.87	-0.000
220.08	-0.000
220.30	-0.000
220.51	-0.000
220.72	-0.000
220.94	-0.000
221.15	-0.000
221.37	-0.000
221.58	-0.000
221.79	-0.000
222.01	-0.000
222.22	-0.000
222.44	-0.000
222.65	-0.000
222.87	-0.000
223.08	-0.000
223.29	-0.000
223.51	-0.000
223.72	-0.000
223.94	-0.000
224.15	-0.000
224.36	-0.000
224.58	-0.000
224.79	-0.000
225.01	-0.000
225.22	-0.000
225.44	-0.000
225.65	-0.000
225.86	-0.000
226.08	-0.000
226.29	-0.000
226.51	-0.000
226.72	-0.000
226.93	-0.000
227.15	-0.000
227.36	-0.000
227.58	-0.000
227.79	-0.000
228.00	-0.000
228.22	-0.000
228.43	-0.000
228.65	-0.000
228.86	-0.000
229.07	-0.000
229.29	-0.000
229.50	-0.000
229.72	-0.000
229.93	-0.000
230.14	-0.000
230.36	-0.000
230.57	-0.000
230.78	-0.000
231.00	-0.000
231.21	-0.000
231.43	-0.000
231.64	-0.000
231.85	-0.000
232.07	-0.000
232.28	-0.000
232.50	-0.000
232.71	-0.000
232.92	-0.000
233.14	-0.000
233.35	-0.000
233.56	-0.000
233.78	-0.000
233.99	-0.000
234.21	-0.000
234.42	-0.000
234.63	-0.000
234.85	-0.000
235.06	-0.000
235.27	-0.000
235.49	-0.000
235.70	-0.000
235.91	-0.000
236.13	-0.000
236.34	-0.000
236.56	-0.000
236.77	-0.000
236.98	-0.000
237.20	-0.000
237.41	-0.000
237.62	-0.000
237.84	-0.000
238.05	-0.000
238.26	-0.000
238.48	-0.000
238.69	-0.000
238.91	-0.000
239.12	-0.000
239.33	-0.000
239.55	-0.000
239.76	-0.000
239.97	-0.000
240.19	-0.000
240.40	-0.000
240.61	-0.000
240.83	-0.000
241.04	-0.000
241.25	-0.000
241.47	-0.000
241.68	-0.000
241.89	-0.000
242.11	-0.000
242.32	-0.000
242.53	-0.000
242.75	-0.000
242.96	-0.000
243.17	-0.000
243.39	-0.000
243.60	-0.000
243.81	-0.000
244.03	-0.000
244.24	-0.000
244.45	-0.000
244.67	-0.000
244.88	-0.000
245.09	-0.000
245.31	-0.000
245.52	-0.000
245.73	-0.000
245.95	-0.000
246.16	-0.000
246.37	-0.000
246.59	-0.000
246.80	-0.000
247.01	-0.000
247.23	-0.000
247.44	-0.000
247.65	-0.000
247.87	-0.000
248.08	-0.000
248.29	-0.000
248.51	-0.000
248.72	-0.000
248.93	-0.000
249.15	-0.000
249.36	-0.000
249.57	-0.000
249.78	-0.000
250.00	-0.000
250.21	-0.000
250.42	-0.000
250.64	-0.000
250.85	-0.000
251.06	-0.000
251.28	-0.000
251.49	-0.000
251.70	-0.000
251.92	-0.000
252.13	-0.000
252.34	-0.000
252.55	-0.000
252.77	-0.000
252.98	-0.000
253.19	-0.000
253.41	-0.000
253.62	-0.000
253.83	-0.000
254.05	-0.000
254.26	-0.000
254.47	-0.000
254.68	-0.000
254.90	-0.000
255.11	-0.000
255.32	-0.000
255.54	-0.000
255.75	-0.000
255.96	-0.000
256.17	-0.000
256.39	-0.000
256.60	-0.000
256.81	-0.000
257.03	-0.000
257.24	-0.000
257.45	-0.000
257.66	-0.000
257.88	-0.000
258.09	-0.000
258.30	-0.000
258.51	-0.000
258.73	-0.000
258.94	-0.000
259.15	-0.000
259.37	-0.000
259.58	-0.000
259.79	-0.000
260.00	-0.000
260.22	-0.000
260.43	-0.000
260.64	-0.000
260.85	-0.000
261.07	-0.000
261.28	-0.000
261.49	-0.000
261.71	-0.000
261.92	-0.000
262.13	-0.000
262.34	-0.000
262.56	-0.000
262.77	-0.000
262.98	-0.000
263.19	-0.000
263.41	-0.000
263.62	-0.000
263.83	-0.000
264.04	-0.000
264.26	-0.000
264.47	-0.000
264.68	-0.000
264.89	-0.000
265.11	-0.000
265.32	-0.000
265.53	-0.000
265.74	-0.000
265.96	-0.000
266.17	-0.000
266.38	-0.000
266.59	-0.000
266.81	-0.000
267.02	-0.000
267.23	-0.000
267.44	-0.000
267.65	-0.000
267.87	-0.000
268.08	-0.000
268.29	-0.000
268.50	-0.000
268.72	-0.000
268.93	-0.000
269.14	-0.000
269.35	-0.000
269.57	-0.000
269.78	-0.000
269.99	-0.000
270.20	-0.000
270.41	-0.000
270.63	-0.000
270.84	-0.000
271.05	-0.000
271.26	-0.000
271.48	-0.000
271.69	-0.000
271.90	-0.000
272.11	-0.000
272.32	-0.000
272.54	-0.000
272.75	-0.000
272.96	-0.000
273.17	-0.000
273.39	-0.000
273.60	-0.000
273.81	-0.000
274.02	-0.000
274.23	-0.000
274.45	-0.000
274.66	-0.000
274.87	-0.000
275.08	-0.000
275.29	-0.000
275.51	-0.000
275.72	-0.000
275.93	-0.000
276.14	-0.000
276.35	-0.000
276.57	-0.000
276.78	-0.000
276.99	-0.000
277.20	-0.000
277.41	-0.000
277.63	-0.000
277.84	-0.000
278.05	-0.000
278.26	-0.000
278.47	-0.000
278.69	-0.000
278.90	-0.000
279.11	-0.000
279.32	-0.000
279.53	-0.000
279.74	-0.000
279.96	-0.000
280.17	-0.000
280.38	-0.000
280.59	-0.000
280.80	-0.000
281.02	-0.000
281.23	-0.000
281.44	-0.000
281.65	-0.000
281.86	-0.000
282.07	-0.000
282.29	-0.000
282.50	-0.000
282.71	-0.000
282.92	-0.000
283.13	-0.000
283.35	-0.000
283.56	-0.000
283.77	-0.000
283.98	-0.000
284.19	-0.000
284.40	-0.000
284.62	-0.000
284.83	-0.000
285.04	-0.000
285.25	-0.000
285.46	-0.000
285.67	-0.000
285.88	-0.000
286.10	-0.000
286.31	-0.000
286.52	-0.000
286.73	-0.000
286.94	-0.000
287.15	-0.000
287.37	-0.000
287.58	-0.000
287.79	-0.000
288.00	-0.000
288.21	-0.000
288.42	-0.000
288.63	-0.000
288.85	-0.000
289.06	-0.000
289.27	-0.000
289.48	-0.000
289.69	-0.000
289.90	-0.000
290.11	-0.000
290.33	-0.000
290.54	-0.000
290.75	-0.000
290.96	-0.000
291.17	-0.000
291.38	-0.000
291.59	-0.000
291.81	-0.000
292.02	-0.000
292.23	-0.000
292.44	-0.000
292.65	-0.000
292.86	-0.000
293.07	-0.000
293.28	-0.000
293.50	-0.000
293.71	-0.000
293.92	-0.000
294.13	-0.000
294.34	-0.000
294.55	-0.000
294.76	-0.000
294.97	-0.000
295.19	-0.000
295.40	-0.000
295.61	-0.000
295.82	-0.000
296.03	-0.000
296.24	-0.000
296.45	-0.000
296.66	2.382
296.87	2.476
297.09	-0.000
297.30	-0.000
297.51	2.203
297.72	2.065
297.93	2.403
298.14	2.225
298.35	2.057
298.56	1.970
298.77	2.270
298.99	2.157
299.20	2.036
299.41	1.970
299.62	1.911
299.83	1.890
300.04	1.763
300.25	1.748
300.46	1.837
300.67	1.788
300.88	1.691
301.10	1.696
301.31	1.820
301.52	1.719
301.73	1.621
301.94	1.614
302.15	1.637
302.36	1.574
302.57	1.486
302.78	1.491
302.99	1.546
303.20	1.569
303.41	1.455
303.63	1.438
303.84	1.451
304.05	1.443
304.26	1.367
304.47	1.378
304.68	1.387
304.89	1.375
305.10	1.326
305.31	1.306
305.52	1.358
305.73	1.347
305.94	1.296
306.15	1.287
306.37	1.319
306.58	1.330
306.79	1.290
307.00	1.311
307.21	1.358
307.42	1.347
307.63	1.309
307.84	1.268
308.05	1.312
308.26	1.310
308.47	1.280
308.68	1.274
308.89	1.276
309.10	1.267
309.31	1.220
309.52	1.212
309.73	1.231
309.95	1.223
310.16	1.192
310.37	1.179
310.58	1.200
310.79	1.198
311.00	1.189
311.21	1.190
311.42	1.199
311.63	1.194
311.84	1.170
312.05	1.168
312.26	1.195
312.47	1.209
312.68	1.183
312.89	1.164
313.10	1.174
313.31	1.147
313.52	1.144
313.73	1.145
313.94	1.153
314.15	1.134
314.36	1.108
314.57	1.099
314.78	1.088
314.99	1.081
315.21	1.066
315.42	1.070
315.63	1.086
315.84	1.063
316.05	1.047
316.26	1.054
316.47	1.073
316.68	1.070
316.89	1.048
317.10	1.068
317.31	1.075
317.52	1.076
317.73	1.052
317.94	1.051
318.15	1.097
318.36	1.094
318.57	1.075
318.78	1.064
318.99	1.103
319.20	1.102
319.41	1.067
319.62	1.067
319.83	1.080
320.04	1.076
320.25	1.059
320.46	1.025
320.67	1.031
320.88	1.025
321.09	1.008
321.30	0.992
321.51	1.008
321.72	1.005
321.93	0.990
322.14	0.982
322.35	1.011
322.56	1.012
322.77	0.999
322.98	1.008
323.19	1.018
323.40	1.025
323.61	1.001
323.82	0.996
324.03	1.001
324.24	0.996
324.45	0.984
324.66	0.964
324.87	0.962
325.08	0.961
325.29	0.940
325.50	0.933
325.71	0.938
325.92	0.947
326.13	0.931
326.34	0.933
326.55	0.943
326.76	0.940
326.97	0.929
327.18	0.923
327.39	0.950
327.60	0.951
327.80	0.951
328.01	0.949
328.22	0.950
328.43	0.953
328.64	0.941
328.85	0.943
329.06	0.947
329.27	0.946
329.48	0.940
329.69	0.921
329.90	0.933
330.11	0.925
330.32	0.917
330.53	0.911
330.74	0.911
330.95	0.909
331.16	0.894
331.37	0.901
331.58	0.903
331.79	0.902
332.00	0.892
332.21	0.885
332.42	0.891
332.63	0.881
332.83	0.875
333.04	0.877
333.25	0.891
333.46	0.889
333.67	0.875
333.88	0.877
334.09	0.888
334.30	0.884
334.51	0.874
334.72	0.870
334.93	0.875
335.14	0.876
335.35	0.867
335.56	0.862
335.77	0.872
335.98	0.870
336.18	0.863
336.39	0.856
336.60	0.861
336.81	0.859
337.02	0.857
337.23	0.861
337.44	0.864
337.65	0.866
337.86	0.855
338.07	0.850
338.28	0.855
338.49	0.852
338.70	0.844
338.91	0.851
339.11	0.860
339.32	0.855
339.53	0.843
339.74	0.840
339.95	0.838
340.16	0.835
340.37	0.827
340.58	0.825
340.79	0.830
341.00	0.830
341.21	0.819
341.41	0.819
341.62	0.823
341.83	0.824
342.04	0.820
342.25	0.830
342.46	0.836
342.67	0.835
342.88	0.828
343.09	0.827
343.30	0.835
343.50	0.840
343.71	0.829
343.92	0.826
344.13	0.830
344.34	0.829
344.55	0.813
344.76	0.812
344.97	0.817
345.18	0.815
345.38	0.812
345.59	0.806
345.80	0.804
346.01	0.803
346.22	0.798
346.43	0.793
346.64	0.802
346.85	0.801
347.06	0.793
347.26	0.794
347.47	0.800
347.68	0.795
347.89	0.791
348.10	0.787
348.31	0.793
348.52	0.792
348.73	0.789
348.93	0.786
349.14	0.789
349.35	0.788
349.56	0.781
349.77	0.775
349.98	0.782
350.19	0.779
350.39	0.774
350.60	0.770
350.81	0.787
351.02	0.786
351.23	0.782
351.44	0.784
351.65	0.789
351.86	0.786
352.06	0.786
352.27	0.786
352.48	0.787
352.69	0.787
352.90	0.781
353.11	0.767
353.31	0.773
353.52	0.769
353.73	0.760
353.94	0.761
354.15	0.768
354.36	0.768
354.57	0.759
354.77	0.761
354.98	0.761
355.19	0.760
355.40	0.760
355.61	0.767
355.82	0.772
356.02	0.772
356.23	0.764
356.44	0.765
356.65	0.769
356.86	0.769
357.07	0.763
357.27	0.766
357.48	0.770
357.69	0.765
357.90	0.749
358.11	0.745
358.32	0.750
358.52	0.753
358.73	0.743
358.94	0.746
359.15	0.752
359.36	0.752
359.56	0.746
359.77	0.744
359.98	0.751
360.19	0.751
360.40	0.748
360.61	0.748
360.81	0.747
361.02	0.748
361.23	0.739
361.44	0.737
361.65	0.738
361.85	0.738
362.06	0.735
362.27	0.737
362.48	0.738
362.69	0.740
362.89	0.733
363.10	0.735
363.31	0.740
363.52	0.743
363.73	0.738
363.93	0.738
364.14	0.740
364.35	0.743
364.56	0.732
364.77	0.735
364.97	0.737
365.18	0.738
365.39	0.731
365.60	0.727
365.81	0.729
366.01	0.729
366.22	0.726
366.43	0.725
366.64	0.727
366.84	0.732
367.05	0.728
367.26	0.727
367.47	0.729
367.68	0.730
367.88	0.727
368.09	0.725
368.30	0.728
368.51	0.728
368.71	0.726
368.92	0.730
369.13	0.729
369.34	0.729
369.55	0.728
369.75	0.728
369.96	0.736
370.17	0.736
370.38	0.732
370.58	0.732
370.79	0.737
371.00	0.736
371.21	0.726
371.41	0.732
371.62	0.736
371.83	0.731
372.04	0.728
372.24	0.721
372.45	0.723
372.66	0.723
372.87	0.719
373.07	0.716
373.28	0.718
373.49	0.722
373.70	0.712
373.90	0.712
374.11	0.723
374.32	0.722
374.53	0.722
374.73	0.722
374.94	0.724
375.15	0.724
375.36	0.721
375.56	0.729
375.77	0.730
375.98	0.730
376.19	0.726
376.39	0.719
376.60	0.723
376.81	0.723
377.02	0.720
377.22	0.719
377.43	0.719
377.64	0.719
377.84	0.709
378.05	0.714
378.26	0.720
378.47	0.719
378.67	0.715
378.88	0.712
379.09	0.713
379.30	0.714
379.50	0.711
379.71	0.713
379.92	0.716
380.12	0.715
380.33	0.706
380.54	0.702
380.75	0.710
380.95	0.710
381.16	0.707
381.37	0.707
381.57	0.709
381.78	0.710
381.99	0.709
382.20	0.709
382.40	0.713
382.61	0.713
382.82	0.709
383.02	0.702
383.23	0.706
383.44	0.706
383.64	0.704
383.85	0.706
384.06	0.709
384.27	0.706
384.47	0.703
384.68	0.704
384.89	0.710
385.09	0.709
385.30	0.708
385.51	0.707
385.71	0.711
385.92	0.711
386.13	0.709
386.33	0.711
386.54	0.712
386.75	0.711
386.95	0.707
387.16	0.702
387.37	0.705
387.58	0.706
387.78	0.702
387.99	0.700
388.20	0.702
388.40	0.699
388.61	0.694
388.82	0.696
389.02	0.700
389.23	0.699
389.44	0.697
389.64	0.696
389.85	0.707
390.06	0.707
390.26	0.706
390.47	0.705
390.68	0.708
390.88	0.707
391.09	0.703
391.30	0.702
391.50	0.702
391.71	0.702
391.92	0.699
392.12	0.691
392.33	0.692
392.53	0.692
392.74	0.691
392.95	0.691
393.15	0.694
393.36	0.695
393.57	0.692
393.77	0.696
393.98	0.698
394.19	0.697
394.39	0.696
394.60	0.697
394.81	0.698
395.01	0.696
395.22	0.694
395.43	0.696
395.63	0.700
395.84	0.702
396.04	0.697
396.25	0.699
396.46	0.701
396.66	0.700
396.87	0.697
397.08	0.694
397.28	0.696
397.49	0.697
397.69	0.692
397.90	0.687
398.11	0.689
398.31	0.689
398.52	0.685
398.73	0.686
398.93	0.685
399.14	0.684
399.34	0.682
399.55	0.684
399.76	0.684
399.96	0.685
400.17	0.683
400.37	0.681
400.58	0.689
400.79	0.690
400.99	0.687
401.20	0.692
401.41	0.695
401.61	0.696
401.82	0.700
402.02	0.699
402.23	0.700
402.44	0.699
402.64	0.699
402.85	0.693
403.05	0.692
403.26	0.691
403.47	0.685
403.67	0.683
403.88	0.685
404.08	0.679
404.29	0.677
404.50	0.677
404.70	0.678
404.91	0.677
405.11	0.674
405.32	0.674
405.52	0.675
405.73	0.674
405.94	0.672
406.14	0.674
406.35	0.676
406.55	0.676
406.76	0.673
406.97	0.673
407.17	0.676
407.38	0.675
407.58	0.673
407.79	0.676
407.99	0.679
408.20	0.680
408.41	0.676
408.61	0.674
408.82	0.676
409.02	0.675
409.23	0.673
409.43	0.672
409.64	0.674
409.84	0.673
410.05	0.669
410.26	0.668
410.46	0.667
410.67	0.666
410.87	0.667
411.08	0.669
411.28	0.671
411.49	0.673
411.69	0.670
411.90	0.671
412.11	0.673
412.31	0.674
412.52	0.672
412.72	0.673
412.93	0.674
413.13	0.673
413.34	0.670
413.54	0.671
413.75	0.672
413.95	0.671
414.16	0.668
414.37	0.671
414.57	0.672
414.78	0.675
414.98	0.673
415.19	0.674
415.39	0.672
415.60	0.674
415.80	0.673
416.01	0.672
416.21	0.674
416.42	0.674
416.62	0.668
416.83	0.668
417.03	0.669
417.24	0.668
417.44	0.666
417.65	0.665
417.86	0.665
418.06	0.663
418.27	0.661
418.47	0.662
418.68	0.663
418.88	0.664
419.09	0.661
419.29	0.662
419.50	0.663
419.70	0.662
419.91	0.660
420.11	0.659
420.32	0.661
420.52	0.661
420.73	0.660
420.93	0.661
421.14	0.663
421.34	0.662
421.55	0.658
421.75	0.658
421.96	0.660
422.16	0.661
422.37	0.659
422.57	0.657
422.78	0.659
422.98	0.656
423.19	0.654
423.39	0.653
423.60	0.657
423.80	0.659
424.01	0.657
424.21	0.660
424.42	0.661
424.62	0.660
424.83	0.660
425.03	0.660
425.23	0.662
425.44	0.662
425.64	0.662
425.85	0.661
426.05	0.662
426.26	0.663
426.46	0.659
426.67	0.658
426.87	0.663
427.08	0.664
427.28	0.661
427.49	0.662
427.69	0.663
427.90	0.662
428.10	0.658
428.31	0.658
428.51	0.660
428.71	0.660
428.92	0.660
429.12	0.658
429.33	0.659
429.53	0.663
429.74	0.666
429.94	0.667
430.15	0.667
430.35	0.667
430.56	0.664
430.76	0.663
430.96	0.664
431.17	0.662
431.37	0.659
431.58	0.658
431.78	0.655
431.99	0.648
432.19	0.649
432.40	0.651
432.60	0.652
432.80	0.655
433.01	0.653
433.21	0.653
433.42	0.656
433.62	0.657
433.83	0.657
434.03	0.660
434.23	0.663
434.44	0.662
434.64	0.660
434.85	0.665
435.05	0.667
435.26	0.667
435.46	0.664
435.66	0.663
435.87	0.663
436.07	0.663
436.28	0.658
436.48	0.655
436.69	0.655
436.89	0.655
437.09	0.649
437.30	0.647
437.50	0.649
437.71	0.660
437.91	0.660
438.11	0.661
438.32	0.666
438.52	0.666
438.73	0.665
438.93	0.664
439.13	0.664
439.34	0.668
439.54	0.665
439.75	0.665
439.95	0.656
440.15	0.661
440.36	0.659
440.56	0.657
440.77	0.658
440.97	0.659
441.17	0.657
441.38	0.658
441.58	0.656
441.79	0.656
441.99	0.653
442.19	0.652
442.40	0.650
442.60	0.650
442.81	0.647
443.01	0.648
443.21	0.649
443.42	0.648
443.62	0.646
443.82	0.647
444.03	0.649
444.23	0.649
444.44	0.649
444.64	0.648
444.84	0.649
445.05	0.649
445.25	0.646
445.45	0.647
445.66	0.650
445.86	0.650
446.06	0.651
446.27	0.650
446.47	0.654
446.68	0.652
446.88	0.651
447.08	0.651
447.29	0.654
447.49	0.654
447.69	0.653
447.90	0.652
448.10	0.656
448.30	0.653
448.51	0.654
448.71	0.651
448.91	0.654
449.12	0.652
449.32	0.654
449.52	0.652
449.73	0.656
449.93	0.655
450.14	0.655
450.34	0.654
450.54	0.657
450.75	0.654
450.95	0.654
451.15	0.654
451.36	0.656
451.56	0.653
451.76	0.652
451.97	0.650
452.17	0.650
452.37	0.649
452.58	0.646
452.78	0.646
452.98	0.648
453.19	0.647
453.39	0.647
453.59	0.646
453.79	0.648
454.00	0.647
454.20	0.646
454.40	0.647
454.61	0.649
454.81	0.650
455.01	0.648
455.22	0.648
455.42	0.651
455.62	0.649
455.83	0.649
456.03	0.652
456.23	0.654
456.44	0.655
456.64	0.653
456.84	0.654
457.04	0.654
457.25	0.654
457.45	0.651
457.65	0.650
457.86	0.650
458.06	0.649
458.26	0.644
458.47	0.643
458.67	0.644
458.87	0.645
459.07	0.642
459.28	0.645
459.48	0.648
459.68	0.647
459.89	0.646
460.09	0.645
460.29	0.647
460.49	0.648
460.70	0.647
460.90	0.647
461.10	0.648
461.31	0.647
461.51	0.644
461.71	0.645
461.91	0.647
462.12	0.647
462.32	0.646
462.52	0.647
462.72	0.650
462.93	0.650
463.13	0.648
463.33	0.649
463.53	0.651
463.74	0.650
463.94	0.646
464.14	0.646
464.35	0.648
464.55	0.648
464.75	0.645
464.95	0.643
465.16	0.645
465.36	0.644
465.56	0.643
465.76	0.642
465.97	0.643
466.17	0.644
466.37	0.642
466.57	0.643
466.78	0.645
466.98	0.645
467.18	0.643
467.38	0.642
467.59	0.644
467.79	0.645
467.99	0.644
468.19	0.646
468.39	0.649
468.60	0.649
468.80	0.647
469.00	0.649
469.20	0.649
469.41	0.650
469.61	0.650
469.81	0.650
470.01	0.650
470.22	0.650
470.42	0.648
470.62	0.645
470.82	0.647
471.02	0.647
471.23	0.644
471.43	0.644
471.63	0.647
471.83	0.646
472.04	0.644
472.24	0.642
472.44	0.647
472.64	0.647
472.84	0.645
473.05	0.645
473.25	0.648
473.45	0.647
473.65	0.645
473.85	0.645
474.06	0.647
474.26	0.648
474.46	0.648
474.66	0.646
474.86	0.647
475.07	0.647
475.27	0.645
475.47	0.642
475.67	0.643
475.87	0.646
476.08	0.642
476.28	0.643
476.48	0.645
476.68	0.643
476.88	0.641
477.09	0.642
477.29	0.644
477.49	0.645
477.69	0.644
477.89	0.644
478.09	0.643
478.30	0.645
478.50	0.642
478.70	0.641
478.90	0.642
479.10	0.644
479.31	0.644
479.51	0.642
479.71	0.643
479.91	0.643
480.11	0.642
480.31	0.642
480.52	0.642
480.72	0.642
480.92	0.640
481.12	0.639
481.32	0.638
481.52	0.636
481.72	0.636
481.93	0.640
482.13	0.641
482.33	0.640
482.53	0.638
482.73	0.638
482.93	0.639
483.14	0.638
483.34	0.638
483.54	0.638
483.74	0.638
483.94	0.637
484.14	0.632
484.34	0.632
484.55	0.633
484.75	0.633
484.95	0.632
485.15	0.631
485.35	0.632
485.55	0.631
485.75	0.629
485.96	0.629
486.16	0.631
486.36	0.630
486.56	0.629
486.76	0.628
486.96	0.629
487.16	0.628
487.36	0.626
487.57	0.626
487.77	0.628
487.97	0.628
488.17	0.626
488.37	0.626
488.57	0.627
488.77	0.627
488.97	0.626
489.18	0.625
489.38	0.628
489.58	0.629
489.78	0.629
489.98	0.628
490.18	0.628
490.38	0.629
490.58	0.627
490.78	0.627
490.98	0.629
491.19	0.629
491.39	0.628
491.59	0.627
491.79	0.630
491.99	0.630
492.19	0.629
492.39	0.632
492.59	0.632
492.79	0.635
492.99	0.635
493.20	0.635
493.40	0.635
493.60	0.637
493.80	0.635
494.00	0.633
494.20	0.634
494.40	0.633
494.60	0.631
494.80	0.635
495.00	0.635
495.20	0.633
495.40	0.631
495.61	0.633
495.81	0.633
496.01	0.637
496.21	0.637
496.41	0.637
496.61	0.638
496.81	0.636
497.01	0.631
497.21	0.631
497.41	0.632
497.61	0.632
497.81	0.629
498.01	0.630
498.21	0.628
498.41	0.626
498.61	0.625
498.82	0.627
499.02	0.630
499.22	0.630
499.42	0.629
499.62	0.630
499.82	0.631
500.02	0.632
500.22	0.631
500.42	0.633
500.62	0.634
500.82	0.634
501.02	0.632
501.22	0.632
501.42	0.632
501.62	0.634
501.82	0.633
502.02	0.633
502.22	0.633
502.42	0.635
502.62	0.632
502.82	0.632
503.02	0.634
503.22	0.634
503.42	0.631
503.63	0.632
503.83	0.629
504.03	0.628
504.23	0.627
504.43	0.627
504.63	0.628
504.83	0.628
505.03	0.627
505.23	0.628
505.43	0.629
505.63	0.630
505.83	0.630
506.03	0.632
506.23	0.634
506.43	0.635
506.63	0.634
506.83	0.633
507.03	0.635
507.23	0.635
507.43	0.632
507.63	0.634
507.83	0.634
508.03	0.634
508.23	0.633
508.43	0.631
508.63	0.633
508.83	0.633
509.03	0.634
509.23	0.632
509.43	0.634
509.63	0.634
509.83	0.632
510.03	0.635
510.23	0.637
510.43	0.638
510.63	0.638
510.83	0.638
511.03	0.640
511.23	0.637
511.43	0.637
511.63	0.638
511.83	0.641
512.03	0.641
512.22	0.637
512.42	0.637
512.62	0.638
512.82	0.637
513.02	0.636
513.22	0.636
513.42	0.638
513.62	0.641
513.82	0.639
514.02	0.638
514.22	0.640
514.42	0.641
514.62	0.640
514.82	0.640
515.02	0.643
515.22	0.647
515.42	0.645
515.62	0.648
515.82	0.647
516.02	0.649
516.22	0.649
516.42	0.650
516.62	0.652
516.82	0.653
517.01	0.651
517.21	0.650
517.41	0.654
517.61	0.654
517.81	0.650
518.01	0.649
518.21	0.649
518.41	0.647
518.61	0.646
518.81	0.647
519.01	0.648
519.21	0.648
519.41	0.647
519.61	0.641
519.81	0.644
520.00	0.644
520.20	0.644
520.40	0.647
520.60	0.649
520.80	0.647
521.00	0.648
521.20	0.649
521.40	0.654
521.60	0.654
521.80	0.653
522.00	0.654
522.20	0.656
522.39	0.656
522.59	0.652
522.79	0.654
522.99	0.656
523.19	0.654
523.39	0.651
523.59	0.649
523.79	0.652
523.99	0.654
524.19	0.653
524.38	0.651
524.58	0.653
524.78	0.653
524.98	0.651
525.18	0.653
525.38	0.655
525.58	0.656
525.78	0.653
525.98	0.651
526.18	0.652
526.37	0.651
526.57	0.653
526.77	0.652
526.97	0.654
527.17	0.654
527.37	0.650
527.57	0.653
527.77	0.656
527.96	0.656
528.16	0.655
528.36	0.656
528.56	0.659
528.76	0.656
528.96	0.656
529.16	0.656
529.36	0.660
529.55	0.660
529.75	0.656
529.95	0.655
530.15	0.657
530.35	0.659
530.55	0.656
530.75	0.656
530.94	0.659
531.14	0.658
531.34	0.656
531.54	0.653
531.74	0.657
531.94	0.661
532.13	0.659
532.33	0.660
532.53	0.659
532.73	0.659
532.93	0.657
533.13	0.658
533.33	0.659
533.52	0.660
533.72	0.663
533.92	0.661
534.12	0.659
534.32	0.659
534.52	0.657
534.71	0.659
534.91	0.663
535.11	0.665
535.31	0.663
535.51	0.665
535.71	0.666
535.90	0.663
536.10	0.664
536.30	0.666
536.50	0.667
536.70	0.667
536.89	0.664
537.09	0.664
537.29	0.666
537.49	0.666
537.69	0.664
537.89	0.665
538.08	0.665
538.28	0.664
538.48	0.664
538.68	0.665
538.88	0.667
539.07	0.667
539.27	0.664
539.47	0.663
539.67	0.664
539.87	0.664
540.06	0.661
540.26	0.662
540.46	0.665
540.66	0.662
540.86	0.659
541.05	0.659
541.25	0.661
541.45	0.662
541.65	0.660
541.84	0.662
542.04	0.663
542.24	0.664
542.44	0.663
542.64	0.663
542.83	0.667
543.03	0.667
543.23	0.665
543.43	0.666
543.62	0.668
543.82	0.668
544.02	0.666
544.22	0.666
544.42	0.670
544.61	0.670
544.81	0.667
545.01	0.666
545.21	0.669
545.40	0.669
545.60	0.667
545.80	0.669
546.00	0.670
546.19	0.669
546.39	0.667
546.59	0.665
546.79	0.667
546.98	0.667
547.18	0.666
547.38	0.667
547.58	0.669
547.77	0.670
547.97	0.666
548.17	0.668
548.37	0.669
548.56	0.669
548.76	0.668
548.96	0.670
549.16	0.673
549.35	0.673
549.55	0.670
549.75	0.670
549.95	0.674
550.14	0.674
550.34	0.672
550.54	0.677
550.73	0.681
550.93	0.682
551.13	0.679
551.33	0.677
551.52	0.679
551.72	0.680
551.92	0.677
552.12	0.677
552.31	0.679
552.51	0.679
552.71	0.674
552.90	0.674
553.10	0.675
553.30	0.675
553.50	0.674
553.69	0.675
553.89	0.676
554.09	0.677
554.28	0.674
554.48	0.675
554.68	0.678
554.87	0.677
555.07	0.674
555.27	0.674
555.47	0.676
555.66	0.676
555.86	0.674
556.06	0.677
556.25	0.678
556.45	0.686
556.65	0.684
556.84	0.688
557.04	0.692
557.24	0.693
557.43	0.692
557.63	0.695
557.83	0.697
558.02	0.698
558.22	0.701
558.42	0.701
558.61	0.694
558.81	0.693
559.01	0.689
559.21	0.689
559.40	0.690
559.60	0.690
559.80	0.686
559.99	0.687
560.19	0.689
560.39	0.683
560.58	0.681
560.78	0.682
560.97	0.686
561.17	0.685
561.37	0.682
561.56	0.683
561.76	0.685
561.96	0.685
562.15	0.682
562.35	0.685
562.55	0.687
562.74	0.687
562.94	0.685
563.14	0.683
563.33	0.683
563.53	0.684
563.73	0.681
563.92	0.682
564.12	0.685
564.31	0.687
564.51	0.684
564.71	0.685
564.90	0.688
565.10	0.689
565.30	0.692
565.49	0.692
565.69	0.695
565.89	0.696
566.08	0.692
566.28	0.693
566.47	0.696
566.67	0.693
566.87	0.689
567.06	0.691
567.26	0.697
567.46	0.692
567.65	0.692
567.85	0.693
568.04	0.696
568.24	0.695
568.44	0.692
568.63	0.690
568.83	0.693
569.02	0.692
569.22	0.687
569.42	0.683
569.61	0.687
569.81	0.685
570.00	0.682
570.20	0.684
570.40	0.686
570.59	0.686
570.79	0.683
570.98	0.681
571.18	0.682
571.38	0.682
571.57	0.678
571.77	0.676
571.96	0.680
572.16	0.677
572.35	0.672
572.55	0.672
572.75	0.671
572.94	0.671
573.14	0.669
573.33	0.669
573.53	0.670
573.73	0.670
573.92	0.668
574.12	0.665
574.31	0.668
574.51	0.669
574.70	0.666
574.90	0.667
575.09	0.669
575.29	0.670
575.49	0.667
575.68	0.667
575.88	0.669
576.07	0.670
576.27	0.668
576.46	0.666
576.66	0.665
576.86	0.665
577.05	0.662
577.25	0.661
577.44	0.663
577.64	0.663
577.83	0.661
578.03	0.662
578.22	0.661
578.42	0.660
578.61	0.658
578.81	0.660
579.00	0.661
579.20	0.661
579.40	0.659
579.59	0.657
579.79	0.658
579.98	0.657
580.18	0.657
580.37	0.657
580.57	0.660
580.76	0.665
580.96	0.663
581.15	0.663
581.35	0.666
581.54	0.666
581.74	0.665
581.93	0.666
582.13	0.668
582.32	0.665
582.52	0.663
582.71	0.663
582.91	0.659
583.10	0.659
583.30	0.658
583.49	0.657
583.69	0.661
583.88	0.663
584.08	0.662
584.27	0.664
584.47	0.668
584.66	0.669
584.86	0.667
585.05	0.669
585.25	0.672
585.44	0.671
585.64	0.669
585.83	0.665
586.03	0.666
586.22	0.665
586.42	0.661
586.61	0.662
586.81	0.664
587.00	0.664
587.20	0.662
587.39	0.663
587.59	0.666
587.78	0.667
587.98	0.668
588.17	0.669
588.37	0.671
588.56	0.674
588.76	0.669
588.95	0.669
589.15	0.674
589.34	0.676
589.54	0.674
589.73	0.674
589.92	0.677
590.12	0.677
590.31	0.674
590.51	0.679
590.70	0.680
590.90	0.681
591.09	0.678
591.29	0.676
591.48	0.676
591.68	0.677
591.87	0.675
592.06	0.675
592.26	0.678
592.45	0.677
592.65	0.670
592.84	0.670
593.04	0.674
593.23	0.676
593.43	0.673
593.62	0.673
593.81	0.674
594.01	0.673
594.20	0.670
594.40	0.670
594.59	0.673
594.79	0.674
594.98	0.673
595.17	0.672
595.37	0.673
595.56	0.675
595.76	0.673
595.95	0.675
596.14	0.678
596.34	0.679
596.53	0.677
596.73	0.678
596.92	0.679
597.12	0.681
597.31	0.680
597.50	0.679
597.70	0.681
597.89	0.681
598.09	0.677
598.28	0.679
598.47	0.681
598.67	0.679
598.86	0.675
599.06	0.677
599.25	0.678
599.44	0.676
599.64	0.673
599.83	0.671
600.03	0.675
600.22	0.676
600.41	0.676
600.61	0.674
600.80	0.678
601.00	0.678
601.19	0.673
601.38	0.672
601.58	0.675
601.77	0.677
601.96	0.679
602.16	0.678
602.35	0.688
602.55	0.685
602.74	0.685
602.93	0.686
603.13	0.692
603.32	0.693
603.51	0.692
603.71	0.695
603.90	0.697
604.09	0.697
604.29	0.693
604.48	0.688
604.68	0.690
604.87	0.688
605.06	0.684
605.26	0.681
605.45	0.683
605.64	0.681
605.84	0.676
606.03	0.675
606.22	0.674
606.42	0.674
606.61	0.670
606.80	0.670
607.00	0.672
607.19	0.673
607.38	0.671
607.58	0.673
607.77	0.676
607.96	0.677
608.16	0.675
608.35	0.680
608.54	0.684
608.74	0.687
608.93	0.692
609.12	0.695
609.32	0.697
609.51	0.700
609.70	0.698
609.90	0.701
610.09	0.705
610.28	0.710
610.48	0.703
610.67	0.704
610.86	0.705
611.06	0.699
611.25	0.697
611.44	0.697
611.64	0.698
611.83	0.700
612.02	0.696
612.21	0.695
612.41	0.694
612.60	0.693
612.79	0.689
612.99	0.689
613.18	0.692
613.37	0.690
613.57	0.687
613.76	0.689
613.95	0.687
614.14	0.687
614.34	0.683
614.53	0.684
614.72	0.688
614.92	0.688
615.11	0.684
615.30	0.680
615.49	0.682
615.69	0.685
615.88	0.680
616.07	0.682
616.26	0.685
616.46	0.687
616.65	0.684
616.84	0.682
617.04	0.684
617.23	0.687
617.42	0.688
617.61	0.692
617.81	0.693
618.00	0.695
618.19	0.693
618.38	0.696
618.58	0.700
618.77	0.701
618.96	0.700
619.15	0.702
619.35	0.705
619.54	0.705
619.73	0.700
619.92	0.703
620.12	0.707
620.31	0.707
620.50	0.702
620.69	0.702
620.89	0.707
621.08	0.706
621.27	0.706
621.46	0.705
621.66	0.710
621.85	0.710
622.04	0.705
622.23	0.706
622.43	0.707
622.62	0.706
622.81	0.704
623.00	0.704
623.19	0.708
623.39	0.706
623.58	0.703
623.77	0.702
623.96	0.706
624.16	0.707
624.35	0.701
624.54	0.704
624.73	0.709
624.92	0.707
625.12	0.704
625.31	0.705
625.50	0.709
625.69	0.710
625.88	0.704
626.08	0.704
626.27	0.706
626.46	0.706
626.65	0.703
626.84	0.703
627.04	0.709
627.23	0.708
627.42	0.703
627.61	0.704
627.80	0.708
628.00	0.709
628.19	0.706
628.38	0.709
628.57	0.713
628.76	0.712
628.96	0.708
629.15	0.709
629.34	0.712
629.53	0.713
629.72	0.707
629.91	0.708
630.11	0.713
630.30	0.714
630.49	0.716
630.68	0.716
630.87	0.722
631.06	0.724
631.26	0.719
631.45	0.722
631.64	0.731
631.83	0.734
632.02	0.730
632.21	0.730
632.41	0.738
632.60	0.732
632.79	0.730
632.98	0.730
633.17	0.731
633.36	0.732
633.55	0.727
633.75	0.723
633.94	0.724
634.13	0.724
634.32	0.721
634.51	0.714
634.70	0.717
634.89	0.716
635.09	0.712
635.28	0.713
635.47	0.715
635.66	0.717
635.85	0.713
636.04	0.715
636.23	0.721
636.43	0.723
636.62	0.722
636.81	0.721
637.00	0.725
637.19	0.728
637.38	0.724
637.57	0.723
637.76	0.726
637.95	0.727
638.15	0.723
638.34	0.719
638.53	0.722
638.72	0.724
638.91	0.721
639.10	0.718
639.29	0.719
639.48	0.720
639.67	0.720
639.87	0.719
640.06	0.724
640.25	0.723
640.44	0.723
640.63	0.724
640.82	0.726
641.01	0.726
641.20	0.727
641.39	0.728
641.58	0.731
641.78	0.729
641.97	0.724
642.16	0.740
642.35	0.742
642.54	0.741
642.73	0.734
642.92	0.732
643.11	0.737
643.30	0.735
643.49	0.730
643.68	0.732
643.87	0.735
644.06	0.736
644.25	0.714
644.45	0.716
644.64	0.718
644.83	0.719
645.02	0.716
645.21	0.715
645.40	0.719
645.59	0.718
645.78	0.711
645.97	0.711
646.16	0.713
646.35	0.713
646.54	0.711
646.73	0.711
646.92	0.713
647.11	0.712
647.30	0.707
647.49	0.709
647.68	0.710
647.88	0.708
648.07	0.701
648.26	0.703
648.45	0.706
648.64	0.701
648.83	0.698
649.02	0.701
649.21	0.712
649.40	0.711
649.59	0.705
649.78	0.706
649.97	0.722
650.16	0.722
650.35	0.716
650.54	0.718
650.73	0.728
650.92	0.725
651.11	0.717
651.30	0.714
651.49	0.720
651.68	0.720
651.87	0.716
652.06	0.704
652.25	0.708
652.44	0.710
652.63	0.704
652.82	0.703
653.01	0.702
653.20	0.700
653.39	0.687
653.58	0.684
653.77	0.684
653.96	0.679
654.15	0.671
654.34	0.668
654.53	0.665
654.72	0.660
654.91	0.651
655.10	0.647
655.29	0.646
655.48	0.644
655.67	0.639
655.86	0.636
656.05	0.636
656.24	0.636
656.43	0.631
656.62	0.630
656.81	0.632
657.00	0.631
657.19	0.629
657.38	0.630
657.57	0.630
657.76	0.633
657.95	0.631
658.14	0.635
658.33	0.639
658.51	0.645
658.70	0.645
658.89	0.646
659.08	0.654
659.27	0.661
659.46	0.661
659.65	0.667
659.84	0.670
660.03	0.674
660.22	0.674
660.41	0.678
660.60	0.677
660.79	0.678
660.98	0.683
661.17	0.682
661.36	0.682
661.55	0.682
661.74	0.680
661.92	0.683
662.11	0.685
662.30	0.683
662.49	0.676
662.68	0.676
662.87	0.680
663.06	0.674
663.25	0.675
663.44	0.675
663.63	0.676
663.82	0.675
664.01	0.668
664.20	0.666
664.38	0.668
664.57	0.669
664.76	0.668
664.95	0.668
665.14	0.674
665.33	0.668
665.52	0.676
665.71	0.680
665.90	0.680
666.09	0.682
666.28	0.680
666.46	0.680
666.65	0.682
666.84	0.680
667.03	0.673
667.22	0.671
667.41	0.674
667.60	0.663
667.79	0.656
667.98	0.657
668.16	0.659
668.35	0.658
668.54	0.652
668.73	0.653
668.92	0.654
669.11	0.654
669.30	0.647
669.49	0.643
669.67	0.645
669.86	0.648
670.05	0.645
670.24	0.643
670.43	0.640
670.62	0.639
670.81	0.634
671.00	0.635
671.18	0.635
671.37	0.634
671.56	0.632
671.75	0.632
671.94	0.629
672.13	0.627
672.32	0.622
672.50	0.621
672.69	0.623
672.88	0.623
673.07	0.618
673.26	0.621
673.45	0.622
673.63	0.621
673.82	0.617
674.01	0.619
674.20	0.619
674.39	0.618
674.58	0.617
674.76	0.616
674.95	0.615
675.14	0.615
675.33	0.609
675.52	0.608
675.71	0.608
675.89	0.607
676.08	0.602
676.27	0.602
676.46	0.603
676.65	0.603
676.84	0.602
677.02	0.604
677.21	0.606
677.40	0.606
677.59	0.603
677.78	0.604
677.96	0.607
678.15	0.607
678.34	0.605
678.53	0.605
678.72	0.606
678.90	0.602
679.09	0.597
679.28	0.594
679.47	0.594
679.66	0.594
679.84	0.590
680.03	0.587
680.22	0.587
680.41	0.588
680.60	0.584
680.78	0.584
680.97	0.587
681.16	0.587
681.35	0.586
681.53	0.585
681.72	0.587
681.91	0.589
682.10	0.587
682.29	0.590
682.47	0.587
682.66	0.588
682.85	0.586
683.04	0.583
683.22	0.583
683.41	0.585
683.60	0.584
683.79	0.584
683.97	0.583
684.16	0.582
684.35	0.578
684.54	0.580
684.72	0.579
684.91	0.580
685.10	0.578
685.29	0.580
685.47	0.578
685.66	0.577
685.85	0.573
686.04	0.573
686.22	0.575
686.41	0.577
686.60	0.574
686.79	0.577
686.97	0.578
687.16	0.580
687.35	0.577
687.54	0.580
687.72	0.584
687.91	0.584
688.10	0.586
688.29	0.585
688.47	0.584
688.66	0.584
688.85	0.580
689.03	0.577
689.22	0.582
689.41	0.582
689.60	0.577
689.78	0.575
689.97	0.576
690.16	0.573
690.34	0.568
690.53	0.568
690.72	0.568
690.91	0.566
691.09	0.563
691.28	0.557
691.47	0.556
691.65	0.555
691.84	0.552
692.03	0.551
692.21	0.549
692.40	0.550
692.59	0.547
692.77	0.547
692.96	0.549
693.15	0.550
693.34	0.548
693.52	0.548
693.71	0.549
693.90	0.550
694.08	0.550
694.27	0.551
694.46	0.561
694.64	0.563
694.83	0.562
695.02	0.559
695.20	0.559
695.39	0.559
695.58	0.558
695.76	0.559
695.95	0.559
696.14	0.558
696.32	0.556
696.51	0.546
696.70	0.546
696.88	0.546
697.07	0.545
697.26	0.547
697.44	0.548
697.63	0.547
697.81	0.544
698.00	0.544
698.19	0.544
698.37	0.544
698.56	0.544
698.75	0.544
698.93	0.544
699.12	0.544
699.31	0.542
699.49	0.542
699.68	0.544
699.87	0.546
700.05	0.545
700.24	0.544
700.42	0.546
700.61	0.545
700.80	0.542
700.98	0.542
701.17	0.544
701.36	0.543
701.54	0.542
701.73	0.543
701.91	0.541
702.10	0.540
702.29	0.538
702.47	0.538
702.66	0.540
702.84	0.541
703.03	0.539
703.22	0.541
703.40	0.541
703.59	0.543
703.77	0.542
703.96	0.543
704.15	0.544
704.33	0.544
704.52	0.543
704.70	0.542
704.89	0.542
705.08	0.541
705.26	0.535
705.45	0.535
705.63	0.535
705.82	0.531
706.00	0.530
706.19	0.529
706.38	0.529
706.56	0.529
706.75	0.526
706.93	0.525
707.12	0.527
707.30	0.528
707.49	0.526
707.68	0.524
707.86	0.524
708.05	0.524
708.23	0.521
708.42	0.521
708.60	0.524
708.79	0.524
708.98	0.522
709.16	0.521
709.35	0.523
709.53	0.527
709.72	0.526
709.90	0.527
710.09	0.529
710.27	0.531
710.46	0.534
710.64	0.533
710.83	0.535
711.02	0.537
711.20	0.534
711.39	0.533
711.57	0.531
711.76	0.531
711.94	0.528
712.13	0.529
712.31	0.529
712.50	0.524
712.68	0.522
712.87	0.522
713.05	0.523
713.24	0.524
713.42	0.522
713.61	0.523
713.79	0.524
713.98	0.524
714.16	0.525
714.35	0.525
714.54	0.526
714.72	0.526
714.91	0.524
715.09	0.530
715.28	0.533
715.46	0.533
715.65	0.530
715.83	0.530
716.02	0.533
716.20	0.529
716.39	0.528
716.57	0.529
716.76	0.532
716.94	0.533
717.12	0.525
717.31	0.526
717.49	0.530
717.68	0.531
717.86	0.530
718.05	0.532
718.23	0.535
718.42	0.537
718.60	0.538
718.79	0.546
718.97	0.549
719.16	0.549
719.34	0.546
719.53	0.546
719.71	0.547
719.90	0.549
720.08	0.546
720.27	0.546
720.45	0.546
720.63	0.544
720.82	0.538
721.00	0.540
721.19	0.544
721.37	0.543
721.56	0.543
721.74	0.545
721.93	0.555
722.11	0.560
722.30	0.560
722.48	0.564
722.66	0.567
722.85	0.567
723.03	0.565
723.22	0.564
723.40	0.568
723.59	0.567
723.77	0.570
723.95	0.563
724.14	0.566
724.32	0.568
724.51	0.567
724.69	0.568
724.88	0.569
725.06	0.568
725.24	0.568
725.43	0.570
725.61	0.573
725.80	0.567
725.98	0.565
726.16	0.561
726.35	0.568
726.53	0.566
726.72	0.564
726.90	0.575
727.09	0.576
727.27	0.582
727.45	0.578
727.64	0.588
727.82	0.597
728.01	0.602
728.19	0.598
728.37	0.603
728.56	0.609
728.74	0.617
728.92	0.604
729.11	0.607
729.29	0.607
729.48	0.609
729.66	0.596
729.84	0.596
730.03	0.600
730.21	0.602
730.40	0.591
730.58	0.592
730.76	0.592
730.95	0.594
731.13	0.592
731.31	0.605
731.50	0.617
731.68	0.622
731.86	0.617
732.05	0.631
732.23	0.635
732.42	0.638
732.60	0.641
732.78	0.645
732.97	0.666
733.15	0.674
733.33	0.660
733.52	0.667
733.70	0.679
733.88	0.690
734.07	0.676
734.25	0.704
734.43	0.717
734.62	0.720
734.80	0.713
734.98	0.701
735.17	0.710
735.35	0.716
735.53	0.703
735.72	0.708
735.90	0.732
736.08	0.749
736.27	0.722
736.45	0.731
736.63	0.747
736.82	0.760
737.00	0.760
737.18	0.771
737.37	0.810
737.55	0.835
737.73	0.826
737.92	0.832
738.10	0.835
738.28	0.858
738.46	0.845
738.65	0.856
738.83	0.881
739.01	0.942
739.20	0.930
739.38	0.905
739.56	0.899
739.75	0.901
739.93	0.855
740.11	0.877
740.29	0.876
740.48	0.882
740.66	0.857
740.84	0.851
741.03	0.816
741.21	0.825
741.39	0.806
741.57	0.819
741.76	0.840
741.94	0.850
742.12	0.812
742.31	0.825
742.49	0.849
742.67	0.879
742.85	0.892
743.04	0.898
743.22	0.913
743.40	0.967
743.58	0.944
743.77	0.967
743.95	1.012
744.13	1.072
744.31	1.040
744.50	1.034
744.68	1.041
744.86	1.014
745.04	1.030
745.23	1.106
745.41	1.102
745.59	1.108
745.77	1.052
745.96	1.036
746.14	1.055
746.32	1.059
746.50	1.045
746.69	1.021
746.87	1.036
747.05	1.012
747.23	0.927
747.42	0.910
747.60	0.948
747.78	0.955
747.96	0.990
748.14	0.936
748.33	0.966
748.51	0.955
748.69	0.941
748.87	0.974
749.06	0.978
749.24	0.978
749.42	0.950
749.60	0.930
749.78	0.948
749.97	0.897
750.15	0.889
750.33	0.893
750.51	0.928
750.69	0.934
750.88	0.933
751.06	0.942
751.24	0.978
751.42	0.967
751.60	0.952
751.79	1.033
751.97	1.090
752.15	1.088
752.33	1.050
752.51	1.130
752.69	1.165
752.88	1.125
753.06	1.178
753.24	1.143
753.42	1.206
753.60	1.464
753.78	1.227
753.97	1.255
754.15	1.291
754.33	1.334
754.51	1.144
754.69	1.126
754.87	1.169
755.06	1.073
755.24	1.066
755.42	1.072
755.60	0.957
755.78	0.964
755.96	0.896
756.15	0.894
756.33	0.898
756.51	0.919
756.69	0.894
756.87	0.856
757.05	0.878
757.23	0.860
757.42	0.822
757.60	0.821
757.78	0.813
757.96	0.813
758.14	0.794
758.32	0.780
758.50	0.797
758.69	0.797
758.87	0.787
759.05	0.794
759.23	0.810
759.41	0.813
759.59	0.801
759.77	0.825
759.95	0.859
760.13	0.914
760.32	0.906
760.50	0.902
760.68	0.933
760.86	0.934
761.04	0.899
761.22	0.903
761.40	0.960
761.58	0.963
761.76	0.927
761.95	0.905
762.13	0.857
762.31	0.858
762.49	0.822
762.67	0.843
762.85	0.860
763.03	0.853
763.21	0.828
763.39	0.809
763.57	0.816
763.75	0.811
763.94	0.792
764.12	0.794
764.30	0.824
764.48	0.824
764.66	0.783
764.84	0.780
765.02	0.824
765.20	0.830
765.38	0.806
765.56	0.810
765.74	0.857
765.92	0.857
766.10	0.864
766.28	0.857
766.46	0.895
766.65	0.895
766.83	0.878
767.01	0.860
767.19	0.874
767.37	0.873
767.55	0.854
767.73	0.833
767.91	0.837
768.09	0.826
768.27	0.811
768.45	0.798
768.63	0.804
768.81	0.806
768.99	0.777
769.17	0.800
769.35	0.818
769.53	0.820
769.71	0.795
769.89	0.809
770.07	0.818
770.25	0.799
770.43	0.774
770.61	0.804
770.79	0.814
770.97	0.823
771.15	0.790
771.33	0.792
771.51	0.794
771.69	0.807
771.87	0.811
772.05	0.817
772.24	0.827
772.42	0.839
772.60	0.810
772.78	0.877
772.96	0.914
773.14	0.907
773.32	0.881
773.49	0.893
773.67	0.897
773.85	0.873
774.03	0.856
774.21	0.895
774.39	0.912
774.57	0.938
774.75	0.849
774.93	0.841
775.11	0.871
775.29	0.878
775.47	0.875
775.65	0.880
775.83	0.900
776.01	0.931
776.19	0.872
776.37	0.871
776.55	0.872
776.73	0.870
776.91	0.863
777.09	0.846
777.27	0.846
777.45	0.835
777.63	0.809
777.81	0.807
777.99	0.790
778.17	0.789
778.35	0.767
778.53	0.757
778.71	0.764
778.89	0.750
779.07	0.737
779.24	0.743
779.42	0.746
779.60	0.769
779.78	0.762
779.96	0.770
780.14	0.780
780.32	0.800
780.50	0.780
780.68	0.783
780.86	0.778
781.04	0.797
781.22	0.802
781.40	0.815
781.58	0.806
781.75	0.798
781.93	0.776
782.11	0.778
782.29	0.763
782.47	0.760
782.65	0.742
782.83	0.772
783.01	0.765
783.19	0.753
783.37	0.734
783.55	0.736
783.72	0.756
783.90	0.767
784.08	0.757
784.26	0.771
784.44	0.795
784.62	0.797
784.80	0.758
784.98	0.764
785.16	0.774
785.33	0.789
785.51	0.771
785.69	0.755
785.87	0.755
786.05	0.765
786.23	0.759
786.41	0.756
786.59	0.765
786.77	0.765
786.94	0.749
787.12	0.752
787.30	0.757
787.48	0.754
787.66	0.740
787.84	0.742
788.02	0.735
788.19	0.733
788.37	0.715
788.55	0.718
788.73	0.720
788.91	0.714
789.09	0.693
789.27	0.681
789.44	0.697
789.62	0.705
789.80	0.713
789.98	0.739
790.16	0.728
790.34	0.725
790.51	0.709
790.69	0.730
790.87	0.742
791.05	0.740
791.23	0.732
791.41	0.732
791.58	0.741
791.76	0.716
791.94	0.681
792.12	0.690
792.30	0.693
792.48	0.690
792.65	0.682
792.83	0.689
793.01	0.700
793.19	0.697
793.37	0.678
793.54	0.675
793.72	0.689
793.90	0.689
794.08	0.673
794.26	0.675
794.43	0.687
794.61	0.669
794.79	0.654
794.97	0.651
795.15	0.659
795.32	0.664
795.50	0.650
795.68	0.646
795.86	0.650
796.04	0.654
796.21	0.646
796.39	0.645
796.57	0.662
796.75	0.670
796.92	0.672
797.10	0.677
797.28	0.682
797.46	0.684
797.64	0.682
797.81	0.692
797.99	0.695
798.17	0.699
798.35	0.690
798.52	0.694
798.70	0.692
798.88	0.700
799.06	0.698
799.23	0.701
799.41	0.715
799.59	0.708
799.77	0.695
799.94	0.708
800.12	0.721
800.30	0.741
800.48	0.737
800.65	0.737
800.83	0.727
801.01	0.719
801.19	0.715
801.36	0.711
801.54	0.716
801.72	0.724
801.90	0.704
802.07	0.698
802.25	0.685
802.43	0.666
802.60	0.659
802.78	0.668
802.96	0.673
803.14	0.665
803.31	0.661
803.49	0.661
803.67	0.659
803.84	0.664
804.02	0.653
804.20	0.656
804.38	0.664
804.55	0.662
804.73	0.644
804.91	0.645
805.08	0.660
805.26	0.655
805.44	0.715
805.61	0.720
805.79	0.723
805.97	0.723
806.15	0.711
806.32	0.709
806.50	0.719
806.68	0.717
806.85	0.707
807.03	0.698
807.21	0.717
807.38	0.651
807.56	0.640
807.74	0.651
807.91	0.659
808.09	0.662
808.27	0.680
808.44	0.708
808.62	0.723
808.80	0.722
808.97	0.716
809.15	0.710
809.33	0.733
809.50	0.740
809.68	0.723
809.86	0.733
810.03	0.770
810.21	0.745
810.39	0.723
810.56	0.729
810.74	0.758
810.91	0.840
811.09	0.824
811.27	0.848
811.44	0.855
811.62	0.855
811.80	0.833
811.97	0.799
812.15	0.801
812.33	0.795
812.50	0.775
812.68	0.760
812.85	0.699
813.03	0.702
813.21	0.665
813.38	0.659
813.56	0.665
813.74	0.677
813.91	0.683
814.09	0.715
814.26	0.711
814.44	0.714
814.62	0.703
814.79	0.707
814.97	0.714
815.14	0.720
815.32	0.723
815.50	0.742
815.67	0.745
815.85	0.736
816.02	0.723
816.20	0.730
816.38	0.748
816.55	0.757
816.73	0.755
816.90	0.767
817.08	0.803
817.26	0.808
817.43	0.782
817.61	0.807
817.78	0.834
817.96	0.811
818.13	0.799
818.31	0.805
818.49	0.819
818.66	0.809
818.84	0.792
819.01	0.770
819.19	0.779
819.36	0.783
819.54	0.748
819.71	0.796
819.89	0.817
820.07	0.833
820.24	0.819
820.42	0.820
820.59	0.847
820.77	0.871
820.94	0.858
821.12	0.876
821.29	0.899
821.47	0.901
821.64	0.821
821.82	0.835
822.00	0.833
822.17	0.829
822.35	0.819
822.52	0.818
822.70	0.812
822.87	0.822
823.05	0.797
823.22	0.811
823.40	0.846
823.57	0.873
823.75	0.846
823.92	0.873
824.10	0.904
824.27	0.957
824.45	0.947
824.62	1.020
824.80	1.041
824.97	1.061
825.15	1.045
825.32	1.065
825.50	1.083
825.67	1.106
825.85	1.073
826.02	1.104
826.20	1.142
826.37	1.341
826.55	1.210
826.72	1.613
826.90	1.943
827.07	2.230
827.25	1.852
827.42	-0.000
827.60	-0.000
827.77	-0.000
827.95	-0.000
828.12	-0.000
828.30	-0.000
828.47	-0.000
828.65	1.754
828.82	2.120
829.00	-0.000
829.17	-0.000
829.34	-0.000
829.52	-0.000
829.69	-0.000
829.87	-0.000
830.04	-0.000
830.22	-0.000
830.39	-0.000
830.57	-0.000
830.74	-0.000
830.92	-0.000
831.09	-0.000
831.26	-0.000
831.44	-0.000
831.61	-0.000
831.79	-0.000
831.96	-0.000
832.14	-0.000
832.31	-0.000
832.49	-0.000
832.66	-0.000
832.83	-0.000
833.01	-0.000
833.18	-0.000
833.36	-0.000
833.53	-0.000
833.70	-0.000
833.88	-0.000
834.05	-0.000
834.23	-0.000
834.40	-0.000
834.58	-0.000
834.75	-0.000
834.92	-0.000
835.10	-0.000
835.27	-0.000
835.45	-0.000
835.62	-0.000
835.79	-0.000
835.97	-0.000
836.14	-0.000
836.32	-0.000
836.49	-0.000
836.66	-0.000
836.84	-0.000
837.01	-0.000
837.18	-0.000
837.36	-0.000
837.53	-0.000
837.71	-0.000
837.88	-0.000
838.05	-0.000
838.23	-0.000
838.40	-0.000
838.58	-0.000
838.75	-0.000
838.92	-0.000
839.10	-0.000
839.27	-0.000
839.44	-0.000
839.62	-0.000
839.79	-0.000
839.96	-0.000
840.14	-0.000
840.31	-0.000
840.48	-0.000
840.66	-0.000
840.83	-0.000
841.01	-0.000
841.18	-0.000
841.35	-0.000
841.53	-0.000
841.70	-0.000
841.87	-0.000
842.05	-0.000
842.22	-0.000
842.39	-0.000
842.57	-0.000
842.74	-0.000
842.91	-0.000
843.09	-0.000
843.26	-0.000
843.43	-0.000
843.60	-0.000
843.78	-0.000
843.95	-0.000
844.12	-0.000
844.30	-0.000
844.47	-0.000
844.64	-0.000
844.82	-0.000
844.99	-0.000
845.16	-0.000
845.34	-0.000
845.51	-0.000
845.68	-0.000
845.85	-0.000
846.03	-0.000
846.20	-0.000
846.37	-0.000
846.55	-0.000
846.72	-0.000
846.89	-0.000
847.06	-0.000
847.24	-0.000
847.41	-0.000
847.58	-0.000
847.76	-0.000
847.93	-0.000
848.10	-0.000
848.27	-0.000
848.45	-0.000
848.62	-0.000
848.79	-0.000
848.97	-0.000
849.14	-0.000
849.31	-0.000
849.48	-0.000
849.66	-0.000
849.83	-0.000
850.00	-0.000
850.17	-0.000
850.35	-0.000
850.52	-0.000
850.69	-0.000
850.86	-0.000
851.04	-0.000
851.21	-0.000
851.38	-0.000
851.55	-0.000
851.72	-0.000
851.90	-0.000
852.07	-0.000
852.24	-0.000
852.41	-0.000
852.59	-0.000
852.76	-0.000
852.93	-0.000
853.10	-0.000
853.28	-0.000
853.45	-0.000
853.62	-0.000
853.79	-0.000
853.96	-0.000
854.14	-0.000
854.31	-0.000
854.48	-0.000
854.65	-0.000
854.82	-0.000
855.00	-0.000
855.17	-0.000
855.34	-0.000
855.51	-0.000
855.68	-0.000
855.86	-0.000
856.03	-0.000
856.20	-0.000
856.37	-0.000
856.54	-0.000
856.72	-0.000
856.89	-0.000
857.06	-0.000
857.23	-0.000
857.40	-0.000
857.57	-0.000
857.75	-0.000
857.92	-0.000
858.09	-0.000
858.26	-0.000
858.43	-0.000
858.60	-0.000
858.78	-0.000
858.95	-0.000
859.12	-0.000
859.29	-0.000
859.46	-0.000
859.63	-0.000
859.81	-0.000
859.98	-0.000
860.15	-0.000
860.32	-0.000
860.49	-0.000
860.66	-0.000
860.83	-0.000
861.01	-0.000
861.18	-0.000
861.35	-0.000
861.52	-0.000
861.69	-0.000
861.86	-0.000
862.03	-0.000
862.21	-0.000
862.38	-0.000
862.55	-0.000
862.72	-0.000
862.89	-0.000
863.06	-0.000
863.23	-0.000
863.40	-0.000
863.58	-0.000
863.75	-0.000
863.92	-0.000
864.09	-0.000
864.26	-0.000
864.43	-0.000
864.60	-0.000
864.77	-0.000
864.94	-0.000
865.11	-0.000
865.29	-0.000
865.46	-0.000
865.63	-0.000
865.80	-0.000
865.97	-0.000
866.14	-0.000
866.31	-0.000
866.48	-0.000
866.65	-0.000
866.82	-0.000
866.99	-0.000
867.16	-0.000
867.34	-0.000
867.51	-0.000
867.68	-0.000
867.85	-0.000
868.02	-0.000
868.19	-0.000
868.36	-0.000
868.53	-0.000
868.70	-0.000
868.87	-0.000
869.04	-0.000
869.21	-0.000
869.38	-0.000
869.55	-0.000
869.72	-0.000
869.89	-0.000
870.06	-0.000
870.24	-0.000
870.41	-0.000
870.58	-0.000
870.75	-0.000
870.92	-0.000
871.09	-0.000
871.26	-0.000
871.43	-0.000
871.60	-0.000
871.77	-0.000
871.94	-0.000
872.11	-0.000
872.28	-0.000
872.45	-0.000
872.62	-0.000
872.79	-0.000
872.96	-0.000
873.13	-0.000
873.30	-0.000
873.47	-0.000
873.64	-0.000
873.81	-0.000
873.98	-0.000
874.15	-0.000
874.32	-0.000
874.49	-0.000
874.66	-0.000
874.83	-0.000
875.00	-0.000
875.17	-0.000
875.34	-0.000
875.51	-0.000
875.68	-0.000
875.85	-0.000
876.02	-0.000
876.19	-0.000
876.36	-0.000
876.53	-0.000
876.70	-0.000
876.87	-0.000
877.04	-0.000
877.21	-0.000
877.38	-0.000
877.55	-0.000
877.72	-0.000
877.89	-0.000
878.06	-0.000
878.23	-0.000
878.39	-0.000
878.56	-0.000
878.73	-0.000
878.90	-0.000
879.07	-0.000
879.24	-0.000
879.41	-0.000
879.58	-0.000
879.75	-0.000
879.92	-0.000
880.09	-0.000
880.26	-0.000
880.43	-0.000
880.60	-0.000
880.77	-0.000
880.94	-0.000
881.11	-0.000
881.27	-0.000
881.44	-0.000
881.61	-0.000
881.78	-0.000
881.95	-0.000
882.12	-0.000
882.29	-0.000
882.46	-0.000
882.63	-0.000
882.80	-0.000
882.97	-0.000
883.14	-0.000
883.30	-0.000
883.47	-0.000
883.64	-0.000
883.81	-0.000
883.98	-0.000
884.15	-0.000
884.32	-0.000
884.49	-0.000
884.66	-0.000
884.82	-0.000
884.99	-0.000
885.16	-0.000
885.33	-0.000
885.50	-0.000
885.67	-0.000
885.84	-0.000
886.01	-0.000
886.17	-0.000
886.34	-0.000
886.51	-0.000
886.68	-0.000
886.85	-0.000
887.02	-0.000
887.19	-0.000
887.36	-0.000
887.52	-0.000
887.69	-0.000
887.86	-0.000
888.03	-0.000
888.20	-0.000
888.37	-0.000
888.54	-0.000
888.70	-0.000
888.87	-0.000
889.04	-0.000
889.21	-0.000
889.38	-0.000
889.55	-0.000
889.71	-0.000
889.88	-0.000
890.05	-0.000
890.22	-0.000
890.39	-0.000
>>>>>End Processed Spectral Data<<<<<
