SpectraSuite Data File
++++++++++++++++++++++++++++++++++++
Date: Fri Jun 19 11:47:24 CEST 2015
User: introlabs
Dark Spectrum Present: Yes
Reference Spectrum Present: Yes
Number of Sampled Component Spectra: 1
Spectrometers: USB4H08886
Integration Time (usec): 5245692 (USB4H08886)
Spectra Averaged: 5 (USB4H08886)
Boxcar Smoothing: 5 (USB4H08886)
Correct for Electrical Dark: Yes (USB4H08886)
Strobe/Lamp Enabled: No (USB4H08886)
Correct for Detector Non-linearity: Yes (USB4H08886)
Correct for Stray Light: Yes (USB4H08886)
Number of Pixels in Processed Spectrum: 3648
>>>>>Begin Processed Spectral Data<<<<<
178.14	-0.000
178.36	-0.000
178.57	-0.000
178.79	-0.000
179.01	-0.000
179.22	-0.000
179.44	-0.000
179.65	-0.000
179.87	-0.000
180.08	-0.000
180.30	-0.000
180.52	-0.000
180.73	-0.000
180.95	-0.000
181.16	-0.000
181.38	-0.000
181.59	-0.000
181.81	-0.000
182.03	-0.000
182.24	-0.000
182.46	-0.000
182.67	-0.000
182.89	-0.000
183.10	-0.000
183.32	-0.000
183.54	-0.000
183.75	-0.000
183.97	-0.000
184.18	-0.000
184.40	-0.000
184.61	-0.000
184.83	-0.000
185.04	-0.000
185.26	-0.000
185.48	-0.000
185.69	-0.000
185.91	-0.000
186.12	-0.000
186.34	-0.000
186.55	-0.000
186.77	-0.000
186.98	-0.000
187.20	-0.000
187.42	-0.000
187.63	-0.000
187.85	-0.000
188.06	-0.000
188.28	-0.000
188.49	-0.000
188.71	-0.000
188.92	-0.000
189.14	-0.000
189.36	-0.000
189.57	-0.000
189.79	-0.000
190.00	-0.000
190.22	-0.000
190.43	-0.000
190.65	-0.000
190.86	-0.000
191.08	-0.000
191.29	-0.000
191.51	-0.000
191.72	-0.000
191.94	-0.000
192.16	-0.000
192.37	-0.000
192.59	-0.000
192.80	-0.000
193.02	-0.000
193.23	-0.000
193.45	-0.000
193.66	-0.000
193.88	-0.000
194.09	-0.000
194.31	-0.000
194.52	-0.000
194.74	-0.000
194.95	-0.000
195.17	-0.000
195.38	-0.000
195.60	-0.000
195.81	-0.000
196.03	-0.000
196.25	-0.000
196.46	-0.000
196.68	-0.000
196.89	-0.000
197.11	-0.000
197.32	-0.000
197.54	-0.000
197.75	-0.000
197.97	-0.000
198.18	-0.000
198.40	-0.000
198.61	-0.000
198.83	-0.000
199.04	-0.000
199.26	-0.000
199.47	-0.000
199.69	-0.000
199.90	-0.000
200.12	-0.000
200.33	-0.000
200.55	-0.000
200.76	-0.000
200.98	-0.000
201.19	-0.000
201.41	-0.000
201.62	-0.000
201.84	-0.000
202.05	-0.000
202.27	-0.000
202.48	-0.000
202.70	-0.000
202.91	-0.000
203.13	-0.000
203.34	-0.000
203.56	-0.000
203.77	-0.000
203.99	-0.000
204.20	-0.000
204.42	-0.000
204.63	-0.000
204.85	-0.000
205.06	-0.000
205.28	-0.000
205.49	-0.000
205.71	-0.000
205.92	-0.000
206.14	-0.000
206.35	-0.000
206.56	-0.000
206.78	-0.000
206.99	-0.000
207.21	-0.000
207.42	-0.000
207.64	-0.000
207.85	-0.000
208.07	-0.000
208.28	-0.000
208.50	-0.000
208.71	-0.000
208.93	-0.000
209.14	-0.000
209.36	-0.000
209.57	-0.000
209.79	-0.000
210.00	-0.000
210.22	-0.000
210.43	-0.000
210.64	-0.000
210.86	-0.000
211.07	-0.000
211.29	-0.000
211.50	-0.000
211.72	-0.000
211.93	-0.000
212.15	-0.000
212.36	-0.000
212.58	-0.000
212.79	-0.000
213.01	-0.000
213.22	-0.000
213.43	-0.000
213.65	-0.000
213.86	-0.000
214.08	-0.000
214.29	-0.000
214.51	-0.000
214.72	-0.000
214.94	-0.000
215.15	-0.000
215.36	-0.000
215.58	-0.000
215.79	-0.000
216.01	-0.000
216.22	-0.000
216.44	-0.000
216.65	-0.000
216.87	-0.000
217.08	-0.000
217.29	-0.000
217.51	-0.000
217.72	-0.000
217.94	-0.000
218.15	-0.000
218.37	-0.000
218.58	-0.000
218.80	-0.000
219.01	-0.000
219.22	-0.000
219.44	-0.000
219.65	-0.000
219.87	-0.000
220.08	-0.000
220.30	-0.000
220.51	-0.000
220.72	-0.000
220.94	-0.000
221.15	-0.000
221.37	-0.000
221.58	-0.000
221.79	-0.000
222.01	-0.000
222.22	-0.000
222.44	-0.000
222.65	-0.000
222.87	-0.000
223.08	-0.000
223.29	-0.000
223.51	-0.000
223.72	-0.000
223.94	-0.000
224.15	-0.000
224.36	-0.000
224.58	-0.000
224.79	-0.000
225.01	-0.000
225.22	-0.000
225.44	-0.000
225.65	-0.000
225.86	-0.000
226.08	-0.000
226.29	-0.000
226.51	-0.000
226.72	-0.000
226.93	-0.000
227.15	-0.000
227.36	-0.000
227.58	-0.000
227.79	-0.000
228.00	-0.000
228.22	-0.000
228.43	-0.000
228.65	-0.000
228.86	-0.000
229.07	-0.000
229.29	-0.000
229.50	-0.000
229.72	-0.000
229.93	-0.000
230.14	-0.000
230.36	-0.000
230.57	-0.000
230.78	-0.000
231.00	-0.000
231.21	-0.000
231.43	-0.000
231.64	-0.000
231.85	-0.000
232.07	-0.000
232.28	-0.000
232.50	-0.000
232.71	-0.000
232.92	-0.000
233.14	-0.000
233.35	-0.000
233.56	-0.000
233.78	-0.000
233.99	-0.000
234.21	-0.000
234.42	-0.000
234.63	-0.000
234.85	-0.000
235.06	-0.000
235.27	-0.000
235.49	-0.000
235.70	-0.000
235.91	-0.000
236.13	-0.000
236.34	-0.000
236.56	-0.000
236.77	-0.000
236.98	-0.000
237.20	-0.000
237.41	-0.000
237.62	-0.000
237.84	-0.000
238.05	-0.000
238.26	-0.000
238.48	-0.000
238.69	-0.000
238.91	-0.000
239.12	-0.000
239.33	-0.000
239.55	-0.000
239.76	-0.000
239.97	-0.000
240.19	-0.000
240.40	-0.000
240.61	-0.000
240.83	-0.000
241.04	-0.000
241.25	-0.000
241.47	-0.000
241.68	-0.000
241.89	-0.000
242.11	-0.000
242.32	-0.000
242.53	-0.000
242.75	-0.000
242.96	-0.000
243.17	-0.000
243.39	-0.000
243.60	-0.000
243.81	-0.000
244.03	-0.000
244.24	-0.000
244.45	-0.000
244.67	-0.000
244.88	-0.000
245.09	-0.000
245.31	-0.000
245.52	-0.000
245.73	-0.000
245.95	-0.000
246.16	-0.000
246.37	-0.000
246.59	-0.000
246.80	-0.000
247.01	-0.000
247.23	-0.000
247.44	-0.000
247.65	-0.000
247.87	-0.000
248.08	-0.000
248.29	-0.000
248.51	-0.000
248.72	-0.000
248.93	-0.000
249.15	-0.000
249.36	-0.000
249.57	-0.000
249.78	-0.000
250.00	-0.000
250.21	-0.000
250.42	-0.000
250.64	-0.000
250.85	-0.000
251.06	-0.000
251.28	-0.000
251.49	-0.000
251.70	-0.000
251.92	-0.000
252.13	-0.000
252.34	-0.000
252.55	-0.000
252.77	-0.000
252.98	1.559
253.19	1.814
253.41	1.581
253.62	-0.000
253.83	-0.000
254.05	-0.000
254.26	-0.000
254.47	1.910
254.68	1.845
254.90	1.408
255.11	1.117
255.32	1.151
255.54	1.150
255.75	1.196
255.96	1.014
256.17	0.909
256.39	0.916
256.60	1.019
256.81	1.044
257.03	1.105
257.24	1.211
257.45	1.324
257.66	1.260
257.88	1.212
258.09	1.146
258.30	1.188
258.51	1.157
258.73	1.129
258.94	0.984
259.15	0.962
259.37	0.954
259.58	0.892
259.79	0.893
260.00	0.972
260.22	1.063
260.43	1.098
260.64	1.009
260.85	1.082
261.07	1.015
261.28	1.200
261.49	1.185
261.71	1.207
261.92	1.495
262.13	1.321
262.34	1.214
262.56	1.158
262.77	1.107
262.98	1.134
263.19	1.133
263.41	1.328
263.62	1.261
263.83	1.282
264.04	1.230
264.26	1.054
264.47	1.114
264.68	1.165
264.89	1.226
265.11	1.256
265.32	1.359
265.53	1.281
265.74	1.199
265.96	1.175
266.17	1.231
266.38	1.179
266.59	1.334
266.81	1.338
267.02	1.170
267.23	1.062
267.44	1.105
267.65	1.040
267.87	1.048
268.08	1.002
268.29	0.920
268.50	0.895
268.72	0.888
268.93	0.826
269.14	0.796
269.35	0.815
269.57	0.799
269.78	0.767
269.99	0.770
270.20	0.754
270.41	0.744
270.63	0.754
270.84	0.748
271.05	0.742
271.26	0.745
271.48	0.766
271.69	0.778
271.90	0.781
272.11	0.782
272.32	0.819
272.54	0.806
272.75	0.812
272.96	0.811
273.17	0.789
273.39	0.796
273.60	0.798
273.81	0.828
274.02	0.828
274.23	0.844
274.45	0.872
274.66	0.827
274.87	0.839
275.08	0.818
275.29	0.862
275.51	0.869
275.72	0.857
275.93	0.851
276.14	0.793
276.35	0.797
276.57	0.793
276.78	0.809
276.99	0.813
277.20	0.830
277.41	0.834
277.63	0.782
277.84	0.777
278.05	0.794
278.26	0.789
278.47	0.801
278.69	0.764
278.90	0.749
279.11	0.719
279.32	0.707
279.53	0.685
279.74	0.701
279.96	0.704
280.17	0.695
280.38	0.706
280.59	0.711
280.80	0.729
281.02	0.740
281.23	0.749
281.44	0.755
281.65	0.766
281.86	0.789
282.07	0.773
282.29	0.785
282.50	0.808
282.71	0.779
282.92	0.772
283.13	0.748
283.35	0.748
283.56	0.734
283.77	0.751
283.98	0.753
284.19	0.737
284.40	0.740
284.62	0.729
284.83	0.714
285.04	0.710
285.25	0.700
285.46	0.696
285.67	0.685
285.88	0.698
286.10	0.692
286.31	0.699
286.52	0.709
286.73	0.714
286.94	0.709
287.15	0.708
287.37	0.721
287.58	0.729
287.79	0.728
288.00	0.739
288.21	0.733
288.42	0.718
288.63	0.707
288.85	0.693
289.06	0.675
289.27	0.679
289.48	0.673
289.69	0.662
289.90	0.656
290.11	0.659
290.33	0.646
290.54	0.643
290.75	0.651
290.96	0.646
291.17	0.648
291.38	0.651
291.59	0.644
291.81	0.653
292.02	0.652
292.23	0.655
292.44	0.651
292.65	0.656
292.86	0.649
293.07	0.642
293.28	0.646
293.50	0.641
293.71	0.640
293.92	0.645
294.13	0.636
294.34	0.635
294.55	0.630
294.76	0.632
294.97	0.633
295.19	0.634
295.40	0.630
295.61	0.629
295.82	0.637
296.03	0.640
296.24	0.634
296.45	0.639
296.66	0.646
296.87	0.649
297.09	0.652
297.30	0.646
297.51	0.648
297.72	0.648
297.93	0.644
298.14	0.640
298.35	0.634
298.56	0.643
298.77	0.637
298.99	0.633
299.20	0.629
299.41	0.626
299.62	0.627
299.83	0.625
300.04	0.623
300.25	0.626
300.46	0.625
300.67	0.627
300.88	0.620
301.10	0.622
301.31	0.616
301.52	0.617
301.73	0.616
301.94	0.617
302.15	0.618
302.36	0.623
302.57	0.621
302.78	0.616
302.99	0.617
303.20	0.615
303.41	0.613
303.63	0.621
303.84	0.624
304.05	0.621
304.26	0.621
304.47	0.618
304.68	0.614
304.89	0.614
305.10	0.620
305.31	0.615
305.52	0.615
305.73	0.618
305.94	0.611
306.15	0.608
306.37	0.607
306.58	0.603
306.79	0.605
307.00	0.606
307.21	0.605
307.42	0.601
307.63	0.602
307.84	0.610
308.05	0.605
308.26	0.604
308.47	0.607
308.68	0.605
308.89	0.606
309.10	0.604
309.31	0.606
309.52	0.604
309.73	0.602
309.95	0.605
310.16	0.598
310.37	0.597
310.58	0.596
310.79	0.592
311.00	0.592
311.21	0.593
311.42	0.597
311.63	0.595
311.84	0.593
312.05	0.592
312.26	0.587
312.47	0.589
312.68	0.589
312.89	0.593
313.10	0.597
313.31	0.598
313.52	0.594
313.73	0.589
313.94	0.590
314.15	0.594
314.36	0.593
314.57	0.595
314.78	0.597
314.99	0.596
315.21	0.592
315.42	0.589
315.63	0.587
315.84	0.590
316.05	0.589
316.26	0.586
316.47	0.582
316.68	0.586
316.89	0.585
317.10	0.582
317.31	0.583
317.52	0.583
317.73	0.585
317.94	0.585
318.15	0.582
318.36	0.585
318.57	0.588
318.78	0.591
318.99	0.585
319.20	0.588
319.41	0.588
319.62	0.588
319.83	0.591
320.04	0.589
320.25	0.587
320.46	0.590
320.67	0.588
320.88	0.586
321.09	0.585
321.30	0.587
321.51	0.583
321.72	0.584
321.93	0.584
322.14	0.580
322.35	0.578
322.56	0.579
322.77	0.577
322.98	0.576
323.19	0.572
323.40	0.570
323.61	0.570
323.82	0.569
324.03	0.569
324.24	0.571
324.45	0.570
324.66	0.574
324.87	0.574
325.08	0.574
325.29	0.577
325.50	0.579
325.71	0.580
325.92	0.579
326.13	0.580
326.34	0.580
326.55	0.580
326.76	0.581
326.97	0.579
327.18	0.582
327.39	0.580
327.60	0.576
327.80	0.574
328.01	0.572
328.22	0.574
328.43	0.573
328.64	0.571
328.85	0.569
329.06	0.567
329.27	0.568
329.48	0.565
329.69	0.567
329.90	0.567
330.11	0.570
330.32	0.571
330.53	0.567
330.74	0.566
330.95	0.566
331.16	0.566
331.37	0.567
331.58	0.564
331.79	0.565
332.00	0.562
332.21	0.564
332.42	0.562
332.63	0.563
332.83	0.566
333.04	0.570
333.25	0.567
333.46	0.570
333.67	0.568
333.88	0.569
334.09	0.567
334.30	0.570
334.51	0.571
334.72	0.571
334.93	0.571
335.14	0.568
335.35	0.563
335.56	0.565
335.77	0.561
335.98	0.564
336.18	0.562
336.39	0.562
336.60	0.560
336.81	0.561
337.02	0.559
337.23	0.557
337.44	0.557
337.65	0.558
337.86	0.557
338.07	0.558
338.28	0.555
338.49	0.557
338.70	0.557
338.91	0.557
339.11	0.555
339.32	0.556
339.53	0.559
339.74	0.561
339.95	0.561
340.16	0.563
340.37	0.564
340.58	0.567
340.79	0.563
341.00	0.563
341.21	0.562
341.41	0.560
341.62	0.560
341.83	0.557
342.04	0.555
342.25	0.555
342.46	0.551
342.67	0.552
342.88	0.551
343.09	0.551
343.30	0.549
343.50	0.549
343.71	0.549
343.92	0.549
344.13	0.549
344.34	0.548
344.55	0.548
344.76	0.550
344.97	0.547
345.18	0.548
345.38	0.547
345.59	0.551
345.80	0.551
346.01	0.555
346.22	0.556
346.43	0.556
346.64	0.554
346.85	0.555
347.06	0.555
347.26	0.554
347.47	0.552
347.68	0.556
347.89	0.552
348.10	0.554
348.31	0.549
348.52	0.549
348.73	0.548
348.93	0.550
349.14	0.550
349.35	0.551
349.56	0.551
349.77	0.552
349.98	0.551
350.19	0.552
350.39	0.552
350.60	0.556
350.81	0.552
351.02	0.553
351.23	0.552
351.44	0.550
351.65	0.550
351.86	0.551
352.06	0.549
352.27	0.547
352.48	0.547
352.69	0.548
352.90	0.545
353.11	0.546
353.31	0.545
353.52	0.548
353.73	0.549
353.94	0.547
354.15	0.546
354.36	0.546
354.57	0.547
354.77	0.546
354.98	0.545
355.19	0.546
355.40	0.546
355.61	0.546
355.82	0.543
356.02	0.543
356.23	0.542
356.44	0.543
356.65	0.543
356.86	0.541
357.07	0.541
357.27	0.540
357.48	0.538
357.69	0.539
357.90	0.539
358.11	0.540
358.32	0.540
358.52	0.539
358.73	0.539
358.94	0.538
359.15	0.540
359.36	0.538
359.56	0.539
359.77	0.540
359.98	0.538
360.19	0.539
360.40	0.539
360.61	0.540
360.81	0.539
361.02	0.538
361.23	0.539
361.44	0.540
361.65	0.541
361.85	0.540
362.06	0.542
362.27	0.542
362.48	0.542
362.69	0.540
362.89	0.540
363.10	0.542
363.31	0.542
363.52	0.542
363.73	0.540
363.93	0.542
364.14	0.542
364.35	0.540
364.56	0.543
364.77	0.543
364.97	0.544
365.18	0.542
365.39	0.542
365.60	0.542
365.81	0.543
366.01	0.543
366.22	0.540
366.43	0.540
366.64	0.540
366.84	0.536
367.05	0.535
367.26	0.534
367.47	0.535
367.68	0.533
367.88	0.534
368.09	0.534
368.30	0.533
368.51	0.533
368.71	0.532
368.92	0.531
369.13	0.534
369.34	0.536
369.55	0.536
369.75	0.535
369.96	0.534
370.17	0.535
370.38	0.536
370.58	0.537
370.79	0.536
371.00	0.537
371.21	0.538
371.41	0.535
371.62	0.534
371.83	0.536
372.04	0.533
372.24	0.535
372.45	0.532
372.66	0.531
372.87	0.533
373.07	0.533
373.28	0.533
373.49	0.531
373.70	0.532
373.90	0.532
374.11	0.531
374.32	0.532
374.53	0.531
374.73	0.533
374.94	0.533
375.15	0.531
375.36	0.531
375.56	0.530
375.77	0.530
375.98	0.529
376.19	0.528
376.39	0.531
376.60	0.530
376.81	0.529
377.02	0.529
377.22	0.531
377.43	0.531
377.64	0.532
377.84	0.532
378.05	0.532
378.26	0.531
378.47	0.532
378.67	0.531
378.88	0.531
379.09	0.530
379.30	0.529
379.50	0.528
379.71	0.527
379.92	0.526
380.12	0.526
380.33	0.528
380.54	0.528
380.75	0.526
380.95	0.526
381.16	0.527
381.37	0.527
381.57	0.527
381.78	0.527
381.99	0.526
382.20	0.527
382.40	0.528
382.61	0.527
382.82	0.528
383.02	0.529
383.23	0.529
383.44	0.529
383.64	0.530
383.85	0.528
384.06	0.528
384.27	0.528
384.47	0.529
384.68	0.528
384.89	0.527
385.09	0.527
385.30	0.527
385.51	0.528
385.71	0.527
385.92	0.526
386.13	0.525
386.33	0.526
386.54	0.526
386.75	0.525
386.95	0.526
387.16	0.527
387.37	0.527
387.58	0.526
387.78	0.526
387.99	0.526
388.20	0.525
388.40	0.527
388.61	0.525
388.82	0.526
389.02	0.525
389.23	0.524
389.44	0.524
389.64	0.525
389.85	0.523
390.06	0.521
390.26	0.520
390.47	0.521
390.68	0.521
390.88	0.523
391.09	0.521
391.30	0.523
391.50	0.523
391.71	0.523
391.92	0.521
392.12	0.522
392.33	0.523
392.53	0.522
392.74	0.522
392.95	0.520
393.15	0.520
393.36	0.520
393.57	0.519
393.77	0.519
393.98	0.518
394.19	0.519
394.39	0.518
394.60	0.516
394.81	0.517
395.01	0.518
395.22	0.518
395.43	0.517
395.63	0.516
395.84	0.514
396.04	0.516
396.25	0.515
396.46	0.515
396.66	0.515
396.87	0.515
397.08	0.515
397.28	0.516
397.49	0.515
397.69	0.516
397.90	0.517
398.11	0.517
398.31	0.516
398.52	0.516
398.73	0.517
398.93	0.517
399.14	0.517
399.34	0.517
399.55	0.517
399.76	0.517
399.96	0.515
400.17	0.516
400.37	0.516
400.58	0.516
400.79	0.516
400.99	0.514
401.20	0.513
401.41	0.513
401.61	0.512
401.82	0.511
402.02	0.512
402.23	0.513
402.44	0.513
402.64	0.511
402.85	0.511
403.05	0.512
403.26	0.513
403.47	0.513
403.67	0.512
403.88	0.512
404.08	0.512
404.29	0.512
404.50	0.512
404.70	0.512
404.91	0.513
405.11	0.513
405.32	0.514
405.52	0.514
405.73	0.514
405.94	0.514
406.14	0.513
406.35	0.514
406.55	0.514
406.76	0.512
406.97	0.512
407.17	0.512
407.38	0.513
407.58	0.512
407.79	0.511
407.99	0.510
408.20	0.509
408.41	0.509
408.61	0.510
408.82	0.509
409.02	0.509
409.23	0.510
409.43	0.509
409.64	0.507
409.84	0.508
410.05	0.508
410.26	0.509
410.46	0.510
410.67	0.510
410.87	0.510
411.08	0.508
411.28	0.507
411.49	0.507
411.69	0.507
411.90	0.509
412.11	0.508
412.31	0.508
412.52	0.508
412.72	0.507
412.93	0.507
413.13	0.508
413.34	0.509
413.54	0.509
413.75	0.510
413.95	0.511
414.16	0.510
414.37	0.509
414.57	0.510
414.78	0.510
414.98	0.510
415.19	0.510
415.39	0.509
415.60	0.508
415.80	0.508
416.01	0.507
416.21	0.506
416.42	0.506
416.62	0.506
416.83	0.505
417.03	0.505
417.24	0.505
417.44	0.504
417.65	0.505
417.86	0.506
418.06	0.507
418.27	0.506
418.47	0.506
418.68	0.506
418.88	0.505
419.09	0.505
419.29	0.505
419.50	0.505
419.70	0.506
419.91	0.506
420.11	0.506
420.32	0.505
420.52	0.507
420.73	0.506
420.93	0.505
421.14	0.507
421.34	0.507
421.55	0.508
421.75	0.507
421.96	0.507
422.16	0.506
422.37	0.506
422.57	0.506
422.78	0.505
422.98	0.506
423.19	0.508
423.39	0.507
423.60	0.506
423.80	0.505
424.01	0.505
424.21	0.505
424.42	0.505
424.62	0.505
424.83	0.505
425.03	0.505
425.23	0.504
425.44	0.503
425.64	0.501
425.85	0.501
426.05	0.502
426.26	0.501
426.46	0.501
426.67	0.500
426.87	0.499
427.08	0.499
427.28	0.500
427.49	0.499
427.69	0.499
427.90	0.499
428.10	0.501
428.31	0.502
428.51	0.503
428.71	0.504
428.92	0.503
429.12	0.505
429.33	0.505
429.53	0.505
429.74	0.505
429.94	0.505
430.15	0.507
430.35	0.505
430.56	0.505
430.76	0.504
430.96	0.505
431.17	0.506
431.37	0.506
431.58	0.506
431.78	0.506
431.99	0.506
432.19	0.505
432.40	0.505
432.60	0.506
432.80	0.506
433.01	0.507
433.21	0.506
433.42	0.506
433.62	0.506
433.83	0.506
434.03	0.506
434.23	0.505
434.44	0.505
434.64	0.505
434.85	0.504
435.05	0.506
435.26	0.505
435.46	0.506
435.66	0.505
435.87	0.505
436.07	0.504
436.28	0.506
436.48	0.507
436.69	0.508
436.89	0.508
437.09	0.508
437.30	0.507
437.50	0.507
437.71	0.505
437.91	0.505
438.11	0.506
438.32	0.505
438.52	0.504
438.73	0.503
438.93	0.504
439.13	0.504
439.34	0.504
439.54	0.504
439.75	0.505
439.95	0.506
440.15	0.506
440.36	0.505
440.56	0.506
440.77	0.507
440.97	0.507
441.17	0.506
441.38	0.506
441.58	0.507
441.79	0.507
441.99	0.507
442.19	0.506
442.40	0.506
442.60	0.506
442.81	0.506
443.01	0.506
443.21	0.506
443.42	0.507
443.62	0.506
443.82	0.506
444.03	0.507
444.23	0.506
444.44	0.506
444.64	0.507
444.84	0.508
445.05	0.509
445.25	0.509
445.45	0.508
445.66	0.506
445.86	0.508
446.06	0.507
446.27	0.506
446.47	0.505
446.68	0.506
446.88	0.505
447.08	0.504
447.29	0.504
447.49	0.505
447.69	0.504
447.90	0.505
448.10	0.503
448.30	0.503
448.51	0.503
448.71	0.504
448.91	0.503
449.12	0.505
449.32	0.504
449.52	0.504
449.73	0.502
449.93	0.503
450.14	0.503
450.34	0.503
450.54	0.502
450.75	0.503
450.95	0.502
451.15	0.502
451.36	0.501
451.56	0.503
451.76	0.503
451.97	0.504
452.17	0.504
452.37	0.504
452.58	0.506
452.78	0.508
452.98	0.508
453.19	0.509
453.39	0.508
453.59	0.508
453.79	0.507
454.00	0.507
454.20	0.507
454.40	0.508
454.61	0.508
454.81	0.507
455.01	0.506
455.22	0.505
455.42	0.505
455.62	0.505
455.83	0.505
456.03	0.504
456.23	0.504
456.44	0.504
456.64	0.504
456.84	0.503
457.04	0.505
457.25	0.506
457.45	0.507
457.65	0.507
457.86	0.508
458.06	0.509
458.26	0.510
458.47	0.510
458.67	0.510
458.87	0.509
459.07	0.509
459.28	0.506
459.48	0.505
459.68	0.505
459.89	0.504
460.09	0.503
460.29	0.503
460.49	0.501
460.70	0.502
460.90	0.502
461.10	0.502
461.31	0.503
461.51	0.504
461.71	0.506
461.91	0.506
462.12	0.508
462.32	0.508
462.52	0.508
462.72	0.508
462.93	0.507
463.13	0.507
463.33	0.508
463.53	0.507
463.74	0.508
463.94	0.506
464.14	0.508
464.35	0.507
464.55	0.507
464.75	0.508
464.95	0.509
465.16	0.509
465.36	0.510
465.56	0.509
465.76	0.509
465.97	0.510
466.17	0.509
466.37	0.508
466.57	0.506
466.78	0.507
466.98	0.506
467.18	0.506
467.38	0.506
467.59	0.505
467.79	0.506
467.99	0.505
468.19	0.504
468.39	0.504
468.60	0.503
468.80	0.503
469.00	0.503
469.20	0.504
469.41	0.504
469.61	0.504
469.81	0.504
470.01	0.505
470.22	0.506
470.42	0.506
470.62	0.508
470.82	0.508
471.02	0.510
471.23	0.509
471.43	0.508
471.63	0.508
471.83	0.509
472.04	0.509
472.24	0.508
472.44	0.507
472.64	0.507
472.84	0.508
473.05	0.507
473.25	0.506
473.45	0.506
473.65	0.506
473.85	0.505
474.06	0.504
474.26	0.505
474.46	0.503
474.66	0.505
474.86	0.505
475.07	0.504
475.27	0.505
475.47	0.506
475.67	0.505
475.87	0.504
476.08	0.505
476.28	0.506
476.48	0.506
476.68	0.507
476.88	0.506
477.09	0.505
477.29	0.504
477.49	0.504
477.69	0.505
477.89	0.505
478.09	0.505
478.30	0.505
478.50	0.505
478.70	0.504
478.90	0.504
479.10	0.504
479.31	0.503
479.51	0.504
479.71	0.503
479.91	0.503
480.11	0.503
480.31	0.502
480.52	0.502
480.72	0.502
480.92	0.501
481.12	0.502
481.32	0.503
481.52	0.503
481.72	0.502
481.93	0.501
482.13	0.502
482.33	0.503
482.53	0.504
482.73	0.505
482.93	0.504
483.14	0.505
483.34	0.504
483.54	0.504
483.74	0.505
483.94	0.505
484.14	0.505
484.34	0.505
484.55	0.504
484.75	0.503
484.95	0.502
485.15	0.503
485.35	0.502
485.55	0.503
485.75	0.502
485.96	0.502
486.16	0.502
486.36	0.502
486.56	0.502
486.76	0.503
486.96	0.504
487.16	0.504
487.36	0.504
487.57	0.504
487.77	0.504
487.97	0.504
488.17	0.504
488.37	0.505
488.57	0.504
488.77	0.505
488.97	0.505
489.18	0.505
489.38	0.504
489.58	0.503
489.78	0.504
489.98	0.503
490.18	0.504
490.38	0.504
490.58	0.504
490.78	0.504
490.98	0.504
491.19	0.504
491.39	0.504
491.59	0.504
491.79	0.504
491.99	0.503
492.19	0.504
492.39	0.503
492.59	0.503
492.79	0.503
492.99	0.502
493.20	0.501
493.40	0.501
493.60	0.500
493.80	0.500
494.00	0.501
494.20	0.501
494.40	0.500
494.60	0.500
494.80	0.500
495.00	0.500
495.20	0.501
495.40	0.501
495.61	0.501
495.81	0.501
496.01	0.500
496.21	0.499
496.41	0.501
496.61	0.500
496.81	0.501
497.01	0.502
497.21	0.502
497.41	0.502
497.61	0.502
497.81	0.503
498.01	0.503
498.21	0.504
498.41	0.504
498.61	0.503
498.82	0.503
499.02	0.502
499.22	0.502
499.42	0.502
499.62	0.502
499.82	0.502
500.02	0.502
500.22	0.502
500.42	0.502
500.62	0.502
500.82	0.502
501.02	0.502
501.22	0.502
501.42	0.503
501.62	0.503
501.82	0.502
502.02	0.502
502.22	0.502
502.42	0.502
502.62	0.502
502.82	0.502
503.02	0.504
503.22	0.504
503.42	0.504
503.63	0.504
503.83	0.504
504.03	0.505
504.23	0.505
504.43	0.505
504.63	0.504
504.83	0.505
505.03	0.505
505.23	0.504
505.43	0.504
505.63	0.504
505.83	0.504
506.03	0.504
506.23	0.503
506.43	0.502
506.63	0.502
506.83	0.503
507.03	0.503
507.23	0.502
507.43	0.503
507.63	0.502
507.83	0.502
508.03	0.503
508.23	0.503
508.43	0.503
508.63	0.504
508.83	0.504
509.03	0.503
509.23	0.504
509.43	0.504
509.63	0.505
509.83	0.505
510.03	0.505
510.23	0.504
510.43	0.504
510.63	0.503
510.83	0.503
511.03	0.503
511.23	0.504
511.43	0.503
511.63	0.502
511.83	0.500
512.03	0.501
512.22	0.502
512.42	0.503
512.62	0.505
512.82	0.506
513.02	0.506
513.22	0.506
513.42	0.507
513.62	0.507
513.82	0.508
514.02	0.508
514.22	0.507
514.42	0.507
514.62	0.505
514.82	0.504
515.02	0.504
515.22	0.504
515.42	0.504
515.62	0.502
515.82	0.504
516.02	0.504
516.22	0.504
516.42	0.505
516.62	0.504
516.82	0.504
517.01	0.505
517.21	0.506
517.41	0.506
517.61	0.507
517.81	0.508
518.01	0.507
518.21	0.508
518.41	0.509
518.61	0.508
518.81	0.508
519.01	0.509
519.21	0.509
519.41	0.509
519.61	0.510
519.81	0.510
520.00	0.511
520.20	0.510
520.40	0.510
520.60	0.508
520.80	0.510
521.00	0.509
521.20	0.509
521.40	0.508
521.60	0.507
521.80	0.507
522.00	0.505
522.20	0.503
522.39	0.504
522.59	0.504
522.79	0.506
522.99	0.505
523.19	0.507
523.39	0.509
523.59	0.510
523.79	0.510
523.99	0.509
524.19	0.509
524.38	0.510
524.58	0.511
524.78	0.511
524.98	0.510
525.18	0.509
525.38	0.509
525.58	0.507
525.78	0.507
525.98	0.506
526.18	0.506
526.37	0.508
526.57	0.507
526.77	0.506
526.97	0.505
527.17	0.506
527.37	0.506
527.57	0.505
527.77	0.505
527.96	0.505
528.16	0.506
528.36	0.508
528.56	0.507
528.76	0.509
528.96	0.509
529.16	0.510
529.36	0.509
529.55	0.510
529.75	0.512
529.95	0.513
530.15	0.512
530.35	0.511
530.55	0.511
530.75	0.510
530.94	0.510
531.14	0.510
531.34	0.510
531.54	0.512
531.74	0.510
531.94	0.509
532.13	0.509
532.33	0.510
532.53	0.511
532.73	0.513
532.93	0.512
533.13	0.511
533.33	0.511
533.52	0.511
533.72	0.510
533.92	0.513
534.12	0.514
534.32	0.514
534.52	0.513
534.71	0.513
534.91	0.511
535.11	0.513
535.31	0.513
535.51	0.513
535.71	0.513
535.90	0.513
536.10	0.511
536.30	0.509
536.50	0.509
536.70	0.509
536.89	0.510
537.09	0.510
537.29	0.509
537.49	0.509
537.69	0.509
537.89	0.510
538.08	0.511
538.28	0.512
538.48	0.512
538.68	0.511
538.88	0.511
539.07	0.511
539.27	0.511
539.47	0.512
539.67	0.512
539.87	0.512
540.06	0.512
540.26	0.512
540.46	0.511
540.66	0.512
540.86	0.513
541.05	0.514
541.25	0.515
541.45	0.516
541.65	0.514
541.84	0.515
542.04	0.514
542.24	0.515
542.44	0.515
542.64	0.515
542.83	0.514
543.03	0.513
543.23	0.515
543.43	0.514
543.62	0.515
543.82	0.515
544.02	0.513
544.22	0.514
544.42	0.513
544.61	0.515
544.81	0.515
545.01	0.516
545.21	0.516
545.40	0.514
545.60	0.514
545.80	0.512
546.00	0.512
546.19	0.514
546.39	0.513
546.59	0.515
546.79	0.514
546.98	0.514
547.18	0.513
547.38	0.513
547.58	0.514
547.77	0.514
547.97	0.515
548.17	0.515
548.37	0.515
548.56	0.516
548.76	0.516
548.96	0.514
549.16	0.514
549.35	0.516
549.55	0.517
549.75	0.517
549.95	0.516
550.14	0.517
550.34	0.518
550.54	0.517
550.73	0.515
550.93	0.517
551.13	0.519
551.33	0.519
551.52	0.517
551.72	0.517
551.92	0.517
552.12	0.518
552.31	0.517
552.51	0.518
552.71	0.518
552.90	0.518
553.10	0.517
553.30	0.515
553.50	0.516
553.69	0.517
553.89	0.517
554.09	0.517
554.28	0.515
554.48	0.516
554.68	0.514
554.87	0.515
555.07	0.517
555.27	0.517
555.47	0.517
555.66	0.517
555.86	0.518
556.06	0.517
556.25	0.520
556.45	0.520
556.65	0.522
556.84	0.522
557.04	0.524
557.24	0.523
557.43	0.523
557.63	0.524
557.83	0.525
558.02	0.525
558.22	0.524
558.42	0.524
558.61	0.525
558.81	0.525
559.01	0.525
559.21	0.523
559.40	0.523
559.60	0.524
559.80	0.523
559.99	0.523
560.19	0.522
560.39	0.524
560.58	0.523
560.78	0.523
560.97	0.522
561.17	0.523
561.37	0.524
561.56	0.524
561.76	0.524
561.96	0.524
562.15	0.523
562.35	0.522
562.55	0.521
562.74	0.522
562.94	0.520
563.14	0.521
563.33	0.521
563.53	0.521
563.73	0.521
563.92	0.521
564.12	0.521
564.31	0.520
564.51	0.520
564.71	0.521
564.90	0.519
565.10	0.520
565.30	0.520
565.49	0.520
565.69	0.519
565.89	0.520
566.08	0.520
566.28	0.520
566.47	0.521
566.67	0.523
566.87	0.524
567.06	0.525
567.26	0.524
567.46	0.525
567.65	0.524
567.85	0.524
568.04	0.523
568.24	0.522
568.44	0.522
568.63	0.523
568.83	0.523
569.02	0.522
569.22	0.522
569.42	0.524
569.61	0.522
569.81	0.523
570.00	0.522
570.20	0.520
570.40	0.521
570.59	0.521
570.79	0.519
570.98	0.518
571.18	0.517
571.38	0.517
571.57	0.516
571.77	0.517
571.96	0.516
572.16	0.517
572.35	0.517
572.55	0.517
572.75	0.517
572.94	0.517
573.14	0.516
573.33	0.516
573.53	0.516
573.73	0.515
573.92	0.515
574.12	0.516
574.31	0.515
574.51	0.514
574.70	0.513
574.90	0.513
575.09	0.512
575.29	0.513
575.49	0.512
575.68	0.513
575.88	0.512
576.07	0.511
576.27	0.510
576.46	0.511
576.66	0.511
576.86	0.511
577.05	0.512
577.25	0.513
577.44	0.513
577.64	0.513
577.83	0.514
578.03	0.514
578.22	0.514
578.42	0.515
578.61	0.514
578.81	0.514
579.00	0.514
579.20	0.513
579.40	0.512
579.59	0.513
579.79	0.513
579.98	0.512
580.18	0.511
580.37	0.511
580.57	0.511
580.76	0.511
580.96	0.511
581.15	0.512
581.35	0.511
581.54	0.513
581.74	0.511
581.93	0.511
582.13	0.511
582.32	0.512
582.52	0.511
582.71	0.512
582.91	0.512
583.10	0.513
583.30	0.512
583.49	0.512
583.69	0.512
583.88	0.512
584.08	0.512
584.27	0.511
584.47	0.511
584.66	0.512
584.86	0.512
585.05	0.511
585.25	0.511
585.44	0.512
585.64	0.513
585.83	0.514
586.03	0.514
586.22	0.514
586.42	0.515
586.61	0.515
586.81	0.514
587.00	0.514
587.20	0.514
587.39	0.513
587.59	0.514
587.78	0.513
587.98	0.512
588.17	0.512
588.37	0.512
588.56	0.511
588.76	0.512
588.95	0.512
589.15	0.513
589.34	0.514
589.54	0.514
589.73	0.514
589.92	0.515
590.12	0.516
590.31	0.517
590.51	0.518
590.70	0.519
590.90	0.519
591.09	0.519
591.29	0.518
591.48	0.518
591.68	0.518
591.87	0.517
592.06	0.517
592.26	0.516
592.45	0.516
592.65	0.514
592.84	0.514
593.04	0.514
593.23	0.514
593.43	0.514
593.62	0.514
593.81	0.513
594.01	0.514
594.20	0.514
594.40	0.515
594.59	0.515
594.79	0.515
594.98	0.515
595.17	0.516
595.37	0.517
595.56	0.517
595.76	0.518
595.95	0.520
596.14	0.519
596.34	0.519
596.53	0.518
596.73	0.518
596.92	0.517
597.12	0.517
597.31	0.515
597.50	0.514
597.70	0.513
597.89	0.512
598.09	0.511
598.28	0.510
598.47	0.509
598.67	0.509
598.86	0.510
599.06	0.510
599.25	0.509
599.44	0.510
599.64	0.509
599.83	0.510
600.03	0.509
600.22	0.508
600.41	0.508
600.61	0.508
600.80	0.508
601.00	0.507
601.19	0.507
601.38	0.508
601.58	0.508
601.77	0.510
601.96	0.508
602.16	0.509
602.35	0.509
602.55	0.511
602.74	0.511
602.93	0.512
603.13	0.511
603.32	0.511
603.51	0.512
603.71	0.512
603.90	0.511
604.09	0.511
604.29	0.511
604.48	0.511
604.68	0.510
604.87	0.510
605.06	0.510
605.26	0.511
605.45	0.510
605.64	0.509
605.84	0.509
606.03	0.509
606.22	0.509
606.42	0.510
606.61	0.511
606.80	0.511
607.00	0.512
607.19	0.512
607.38	0.513
607.58	0.515
607.77	0.514
607.96	0.515
608.16	0.516
608.35	0.516
608.54	0.515
608.74	0.515
608.93	0.514
609.12	0.513
609.32	0.513
609.51	0.512
609.70	0.510
609.90	0.511
610.09	0.511
610.28	0.510
610.48	0.511
610.67	0.513
610.86	0.514
611.06	0.515
611.25	0.514
611.44	0.514
611.64	0.516
611.83	0.516
612.02	0.517
612.21	0.516
612.41	0.517
612.60	0.518
612.79	0.516
612.99	0.516
613.18	0.516
613.37	0.517
613.57	0.518
613.76	0.516
613.95	0.516
614.14	0.516
614.34	0.516
614.53	0.516
614.72	0.513
614.92	0.515
615.11	0.515
615.30	0.516
615.49	0.516
615.69	0.516
615.88	0.518
616.07	0.518
616.26	0.519
616.46	0.520
616.65	0.521
616.84	0.525
617.04	0.523
617.23	0.523
617.42	0.522
617.61	0.521
617.81	0.520
618.00	0.521
618.19	0.522
618.38	0.521
618.58	0.523
618.77	0.523
618.96	0.523
619.15	0.525
619.35	0.528
619.54	0.528
619.73	0.530
619.92	0.531
620.12	0.528
620.31	0.529
620.50	0.527
620.69	0.526
620.89	0.526
621.08	0.527
621.27	0.524
621.46	0.524
621.66	0.522
621.85	0.522
622.04	0.524
622.23	0.526
622.43	0.526
622.62	0.528
622.81	0.525
623.00	0.525
623.19	0.523
623.39	0.523
623.58	0.523
623.77	0.525
623.96	0.524
624.16	0.524
624.35	0.524
624.54	0.524
624.73	0.523
624.92	0.525
625.12	0.524
625.31	0.524
625.50	0.523
625.69	0.523
625.88	0.524
626.08	0.525
626.27	0.525
626.46	0.525
626.65	0.524
626.84	0.523
627.04	0.521
627.23	0.524
627.42	0.525
627.61	0.526
627.80	0.524
628.00	0.524
628.19	0.522
628.38	0.520
628.57	0.520
628.76	0.522
628.96	0.523
629.15	0.524
629.34	0.525
629.53	0.525
629.72	0.527
629.91	0.529
630.11	0.527
630.30	0.529
630.49	0.529
630.68	0.529
630.87	0.530
631.06	0.531
631.26	0.532
631.45	0.531
631.64	0.529
631.83	0.528
632.02	0.529
632.21	0.530
632.41	0.530
632.60	0.531
632.79	0.530
632.98	0.529
633.17	0.529
633.36	0.529
633.55	0.529
633.75	0.532
633.94	0.532
634.13	0.532
634.32	0.532
634.51	0.533
634.70	0.532
634.89	0.533
635.09	0.533
635.28	0.533
635.47	0.533
635.66	0.531
635.85	0.532
636.04	0.533
636.23	0.533
636.43	0.531
636.62	0.533
636.81	0.533
637.00	0.530
637.19	0.529
637.38	0.531
637.57	0.533
637.76	0.535
637.95	0.533
638.15	0.532
638.34	0.534
638.53	0.534
638.72	0.532
638.91	0.533
639.10	0.536
639.29	0.536
639.48	0.535
639.67	0.531
639.87	0.531
640.06	0.534
640.25	0.535
640.44	0.530
640.63	0.532
640.82	0.533
641.01	0.533
641.20	0.534
641.39	0.537
641.58	0.538
641.78	0.539
641.97	0.540
642.16	0.537
642.35	0.536
642.54	0.538
642.73	0.538
642.92	0.538
643.11	0.539
643.30	0.538
643.49	0.536
643.68	0.534
643.87	0.533
644.06	0.532
644.25	0.535
644.45	0.538
644.64	0.540
644.83	0.539
645.02	0.541
645.21	0.541
645.40	0.539
645.59	0.542
645.78	0.543
645.97	0.543
646.16	0.541
646.35	0.540
646.54	0.534
646.73	0.533
646.92	0.533
647.11	0.532
647.30	0.532
647.49	0.530
647.68	0.530
647.88	0.529
648.07	0.531
648.26	0.531
648.45	0.529
648.64	0.534
648.83	0.533
649.02	0.531
649.21	0.528
649.40	0.527
649.59	0.528
649.78	0.530
649.97	0.528
650.16	0.526
650.35	0.526
650.54	0.527
650.73	0.523
650.92	0.524
651.11	0.525
651.30	0.527
651.49	0.526
651.68	0.526
651.87	0.525
652.06	0.526
652.25	0.528
652.44	0.531
652.63	0.530
652.82	0.530
653.01	0.529
653.20	0.525
653.39	0.525
653.58	0.523
653.77	0.520
653.96	0.518
654.15	0.516
654.34	0.513
654.53	0.512
654.72	0.509
654.91	0.510
655.10	0.509
655.29	0.509
655.48	0.508
655.67	0.508
655.86	0.508
656.05	0.507
656.24	0.507
656.43	0.506
656.62	0.506
656.81	0.505
657.00	0.504
657.19	0.504
657.38	0.503
657.57	0.504
657.76	0.504
657.95	0.506
658.14	0.507
658.33	0.509
658.51	0.511
658.70	0.512
658.89	0.514
659.08	0.517
659.27	0.517
659.46	0.520
659.65	0.520
659.84	0.524
660.03	0.525
660.22	0.524
660.41	0.525
660.60	0.526
660.79	0.528
660.98	0.527
661.17	0.526
661.36	0.528
661.55	0.529
661.74	0.526
661.92	0.525
662.11	0.525
662.30	0.525
662.49	0.526
662.68	0.525
662.87	0.523
663.06	0.524
663.25	0.523
663.44	0.522
663.63	0.521
663.82	0.523
664.01	0.522
664.20	0.522
664.38	0.522
664.57	0.521
664.76	0.519
664.95	0.518
665.14	0.517
665.33	0.521
665.52	0.518
665.71	0.517
665.90	0.519
666.09	0.519
666.28	0.518
666.46	0.514
666.65	0.514
666.84	0.517
667.03	0.520
667.22	0.520
667.41	0.518
667.60	0.521
667.79	0.519
667.98	0.517
668.16	0.516
668.35	0.515
668.54	0.518
668.73	0.517
668.92	0.517
669.11	0.517
669.30	0.518
669.49	0.519
669.67	0.519
669.86	0.519
670.05	0.519
670.24	0.520
670.43	0.521
670.62	0.521
670.81	0.520
671.00	0.517
671.18	0.515
671.37	0.515
671.56	0.514
671.75	0.512
671.94	0.515
672.13	0.516
672.32	0.517
672.50	0.517
672.69	0.516
672.88	0.515
673.07	0.516
673.26	0.516
673.45	0.515
673.63	0.514
673.82	0.516
674.01	0.513
674.20	0.512
674.39	0.513
674.58	0.513
674.76	0.515
674.95	0.517
675.14	0.519
675.33	0.519
675.52	0.520
675.71	0.521
675.89	0.521
676.08	0.523
676.27	0.523
676.46	0.523
676.65	0.522
676.84	0.520
677.02	0.518
677.21	0.515
677.40	0.515
677.59	0.515
677.78	0.514
677.96	0.511
678.15	0.511
678.34	0.512
678.53	0.510
678.72	0.507
678.90	0.509
679.09	0.511
679.28	0.512
679.47	0.512
679.66	0.511
679.84	0.512
680.03	0.513
680.22	0.513
680.41	0.512
680.60	0.512
680.78	0.514
680.97	0.514
681.16	0.513
681.35	0.512
681.53	0.512
681.72	0.511
681.91	0.510
682.10	0.509
682.29	0.508
682.47	0.508
682.66	0.508
682.85	0.507
683.04	0.506
683.22	0.504
683.41	0.503
683.60	0.504
683.79	0.503
683.97	0.501
684.16	0.502
684.35	0.503
684.54	0.503
684.72	0.502
684.91	0.502
685.10	0.500
685.29	0.501
685.47	0.502
685.66	0.502
685.85	0.502
686.04	0.503
686.22	0.501
686.41	0.499
686.60	0.498
686.79	0.498
686.97	0.497
687.16	0.497
687.35	0.497
687.54	0.496
687.72	0.494
687.91	0.495
688.10	0.494
688.29	0.494
688.47	0.495
688.66	0.497
688.85	0.496
689.03	0.498
689.22	0.497
689.41	0.497
689.60	0.497
689.78	0.499
689.97	0.498
690.16	0.499
690.34	0.499
690.53	0.499
690.72	0.497
690.91	0.498
691.09	0.498
691.28	0.499
691.47	0.501
691.65	0.502
691.84	0.501
692.03	0.501
692.21	0.501
692.40	0.499
692.59	0.500
692.77	0.501
692.96	0.500
693.15	0.498
693.34	0.498
693.52	0.497
693.71	0.495
693.90	0.495
694.08	0.493
694.27	0.495
694.46	0.493
694.64	0.492
694.83	0.491
695.02	0.493
695.20	0.493
695.39	0.493
695.58	0.492
695.76	0.492
695.95	0.491
696.14	0.492
696.32	0.489
696.51	0.490
696.70	0.489
696.88	0.488
697.07	0.486
697.26	0.485
697.44	0.484
697.63	0.485
697.81	0.485
698.00	0.486
698.19	0.485
698.37	0.486
698.56	0.485
698.75	0.486
698.93	0.486
699.12	0.487
699.31	0.486
699.49	0.487
699.68	0.486
699.87	0.486
700.05	0.484
700.24	0.484
700.42	0.483
700.61	0.485
700.80	0.484
700.98	0.484
701.17	0.484
701.36	0.484
701.54	0.483
701.73	0.482
701.91	0.482
702.10	0.482
702.29	0.484
702.47	0.485
702.66	0.486
702.84	0.486
703.03	0.485
703.22	0.485
703.40	0.486
703.59	0.486
703.77	0.485
703.96	0.486
704.15	0.486
704.33	0.485
704.52	0.482
704.70	0.481
704.89	0.480
705.08	0.482
705.26	0.481
705.45	0.480
705.63	0.479
705.82	0.481
706.00	0.479
706.19	0.479
706.38	0.478
706.56	0.478
706.75	0.479
706.93	0.479
707.12	0.478
707.30	0.477
707.49	0.477
707.68	0.477
707.86	0.475
708.05	0.474
708.23	0.475
708.42	0.475
708.60	0.474
708.79	0.472
708.98	0.472
709.16	0.471
709.35	0.471
709.53	0.469
709.72	0.470
709.90	0.470
710.09	0.469
710.27	0.467
710.46	0.466
710.64	0.465
710.83	0.465
711.02	0.466
711.20	0.467
711.39	0.467
711.57	0.467
711.76	0.466
711.94	0.468
712.13	0.468
712.31	0.468
712.50	0.469
712.68	0.471
712.87	0.470
713.05	0.469
713.24	0.467
713.42	0.466
713.61	0.466
713.79	0.466
713.98	0.464
714.16	0.462
714.35	0.462
714.54	0.461
714.72	0.461
714.91	0.460
715.09	0.459
715.28	0.456
715.46	0.456
715.65	0.456
715.83	0.455
716.02	0.455
716.20	0.456
716.39	0.456
716.57	0.454
716.76	0.452
716.94	0.453
717.12	0.453
717.31	0.453
717.49	0.453
717.68	0.452
717.86	0.450
718.05	0.448
718.23	0.446
718.42	0.444
718.60	0.440
718.79	0.439
718.97	0.437
719.16	0.437
719.34	0.435
719.53	0.435
719.71	0.436
719.90	0.434
720.08	0.433
720.27	0.432
720.45	0.431
720.63	0.432
720.82	0.430
721.00	0.430
721.19	0.428
721.37	0.428
721.56	0.425
721.74	0.423
721.93	0.421
722.11	0.420
722.30	0.420
722.48	0.418
722.66	0.417
722.85	0.416
723.03	0.414
723.22	0.414
723.40	0.413
723.59	0.414
723.77	0.411
723.95	0.411
724.14	0.409
724.32	0.406
724.51	0.405
724.69	0.406
724.88	0.406
725.06	0.405
725.24	0.403
725.43	0.403
725.61	0.403
725.80	0.405
725.98	0.405
726.16	0.406
726.35	0.405
726.53	0.404
726.72	0.400
726.90	0.397
727.09	0.396
727.27	0.393
727.45	0.389
727.64	0.383
727.82	0.378
728.01	0.374
728.19	0.373
728.37	0.370
728.56	0.366
728.74	0.364
728.92	0.363
729.11	0.362
729.29	0.360
729.48	0.357
729.66	0.357
729.84	0.356
730.03	0.353
730.21	0.349
730.40	0.346
730.58	0.347
730.76	0.344
730.95	0.341
731.13	0.338
731.31	0.333
731.50	0.327
731.68	0.325
731.86	0.322
732.05	0.318
732.23	0.314
732.42	0.313
732.60	0.307
732.78	0.304
732.97	0.297
733.15	0.292
733.33	0.290
733.52	0.287
733.70	0.283
733.88	0.278
734.07	0.275
734.25	0.271
734.43	0.268
734.62	0.265
734.80	0.263
734.98	0.262
735.17	0.258
735.35	0.258
735.53	0.256
735.72	0.252
735.90	0.248
736.08	0.246
736.27	0.244
736.45	0.241
736.63	0.240
736.82	0.236
737.00	0.232
737.18	0.231
737.37	0.226
737.55	0.223
737.73	0.220
737.92	0.220
738.10	0.220
738.28	0.218
738.46	0.215
738.65	0.212
738.83	0.211
739.01	0.210
739.20	0.208
739.38	0.207
739.56	0.206
739.75	0.208
739.93	0.207
740.11	0.203
740.29	0.201
740.48	0.200
740.66	0.201
740.84	0.202
741.03	0.201
741.21	0.201
741.39	0.202
741.57	0.203
741.76	0.202
741.94	0.202
742.12	0.204
742.31	0.206
742.49	0.207
742.67	0.208
742.85	0.203
743.04	0.208
743.22	0.208
743.40	0.206
743.58	0.207
743.77	0.209
743.95	0.210
744.13	0.208
744.31	0.206
744.50	0.204
744.68	0.201
744.86	0.202
745.04	0.197
745.23	0.198
745.41	0.198
745.59	0.198
745.77	0.198
745.96	0.198
746.14	0.197
746.32	0.202
746.50	0.201
746.69	0.205
746.87	0.207
747.05	0.208
747.23	0.211
747.42	0.214
747.60	0.210
747.78	0.210
747.96	0.204
748.14	0.206
748.33	0.203
748.51	0.204
748.69	0.203
748.87	0.201
749.06	0.201
749.24	0.196
749.42	0.191
749.60	0.193
749.78	0.189
749.97	0.192
750.15	0.193
750.33	0.191
750.51	0.192
750.69	0.190
750.88	0.187
751.06	0.187
751.24	0.187
751.42	0.192
751.60	0.189
751.79	0.190
751.97	0.191
752.15	0.191
752.33	0.192
752.51	0.191
752.69	0.194
752.88	0.197
753.06	0.194
753.24	0.198
753.42	0.195
753.60	0.195
753.78	0.197
753.97	0.195
754.15	0.197
754.33	0.195
754.51	0.195
754.69	0.194
754.87	0.191
755.06	0.196
755.24	0.191
755.42	0.193
755.60	0.195
755.78	0.193
755.96	0.190
756.15	0.190
756.33	0.190
756.51	0.188
756.69	0.189
756.87	0.192
757.05	0.189
757.23	0.191
757.42	0.190
757.60	0.191
757.78	0.192
757.96	0.195
758.14	0.193
758.32	0.193
758.50	0.192
758.69	0.192
758.87	0.190
759.05	0.192
759.23	0.191
759.41	0.191
759.59	0.190
759.77	0.190
759.95	0.190
760.13	0.190
760.32	0.187
760.50	0.190
760.68	0.186
760.86	0.188
761.04	0.186
761.22	0.189
761.40	0.185
761.58	0.184
761.76	0.182
761.95	0.181
762.13	0.182
762.31	0.185
762.49	0.185
762.67	0.186
762.85	0.186
763.03	0.190
763.21	0.190
763.39	0.192
763.57	0.192
763.75	0.195
763.94	0.196
764.12	0.196
764.30	0.196
764.48	0.197
764.66	0.199
764.84	0.198
765.02	0.194
765.20	0.193
765.38	0.194
765.56	0.197
765.74	0.194
765.92	0.195
766.10	0.195
766.28	0.195
766.46	0.194
766.65	0.194
766.83	0.193
767.01	0.196
767.19	0.195
767.37	0.196
767.55	0.194
767.73	0.195
767.91	0.193
768.09	0.195
768.27	0.193
768.45	0.195
768.63	0.193
768.81	0.193
768.99	0.193
769.17	0.193
769.35	0.191
769.53	0.191
769.71	0.192
769.89	0.192
770.07	0.191
770.25	0.194
770.43	0.196
770.61	0.196
770.79	0.194
770.97	0.195
771.15	0.194
771.33	0.195
771.51	0.196
771.69	0.198
771.87	0.197
772.05	0.198
772.24	0.196
772.42	0.194
772.60	0.194
772.78	0.196
772.96	0.196
773.14	0.200
773.32	0.201
773.49	0.201
773.67	0.199
773.85	0.202
774.03	0.202
774.21	0.205
774.39	0.207
774.57	0.209
774.75	0.210
774.93	0.211
775.11	0.209
775.29	0.210
775.47	0.209
775.65	0.212
775.83	0.213
776.01	0.214
776.19	0.216
776.37	0.217
776.55	0.217
776.73	0.218
776.91	0.218
777.09	0.222
777.27	0.224
777.45	0.228
777.63	0.229
777.81	0.230
777.99	0.229
778.17	0.229
778.35	0.229
778.53	0.234
778.71	0.234
778.89	0.236
779.07	0.236
779.24	0.237
779.42	0.233
779.60	0.233
779.78	0.228
779.96	0.230
780.14	0.231
780.32	0.230
780.50	0.226
780.68	0.226
780.86	0.226
781.04	0.225
781.22	0.221
781.40	0.223
781.58	0.223
781.75	0.227
781.93	0.227
782.11	0.227
782.29	0.228
782.47	0.231
782.65	0.233
782.83	0.234
783.01	0.235
783.19	0.237
783.37	0.236
783.55	0.237
783.72	0.237
783.90	0.238
784.08	0.236
784.26	0.240
784.44	0.238
784.62	0.241
784.80	0.242
784.98	0.242
785.16	0.245
785.33	0.247
785.51	0.252
785.69	0.255
785.87	0.259
786.05	0.261
786.23	0.257
786.41	0.261
786.59	0.260
786.77	0.261
786.94	0.261
787.12	0.261
787.30	0.260
787.48	0.257
787.66	0.258
787.84	0.256
788.02	0.258
788.19	0.261
788.37	0.260
788.55	0.260
788.73	0.260
788.91	0.263
789.09	0.264
789.27	0.269
789.44	0.271
789.62	0.271
789.80	0.270
789.98	0.271
790.16	0.271
790.34	0.274
790.51	0.275
790.69	0.276
790.87	0.277
791.05	0.280
791.23	0.279
791.41	0.279
791.58	0.278
791.76	0.284
791.94	0.283
792.12	0.285
792.30	0.283
792.48	0.284
792.65	0.284
792.83	0.284
793.01	0.282
793.19	0.285
793.37	0.284
793.54	0.288
793.72	0.284
793.90	0.286
794.08	0.286
794.26	0.290
794.43	0.290
794.61	0.294
794.79	0.293
794.97	0.296
795.15	0.296
795.32	0.296
795.50	0.297
795.68	0.301
795.86	0.299
796.04	0.302
796.21	0.302
796.39	0.303
796.57	0.300
796.75	0.302
796.92	0.299
797.10	0.300
797.28	0.302
797.46	0.302
797.64	0.301
797.81	0.304
797.99	0.301
798.17	0.302
798.35	0.302
798.52	0.303
798.70	0.303
798.88	0.305
799.06	0.304
799.23	0.303
799.41	0.302
799.59	0.304
799.77	0.304
799.94	0.305
800.12	0.304
800.30	0.305
800.48	0.305
800.65	0.310
800.83	0.310
801.01	0.315
801.19	0.313
801.36	0.316
801.54	0.317
801.72	0.317
801.90	0.318
802.07	0.319
802.25	0.320
802.43	0.325
802.60	0.321
802.78	0.322
802.96	0.323
803.14	0.326
803.31	0.324
803.49	0.326
803.67	0.326
803.84	0.327
804.02	0.327
804.20	0.328
804.38	0.324
804.55	0.326
804.73	0.326
804.91	0.326
805.08	0.323
805.26	0.325
805.44	0.321
805.61	0.322
805.79	0.324
805.97	0.326
806.15	0.325
806.32	0.328
806.50	0.329
806.68	0.329
806.85	0.325
807.03	0.329
807.21	0.328
807.38	0.331
807.56	0.332
807.74	0.329
807.91	0.328
808.09	0.330
808.27	0.326
808.44	0.324
808.62	0.323
808.80	0.329
808.97	0.327
809.15	0.326
809.33	0.324
809.50	0.323
809.68	0.323
809.86	0.323
810.03	0.318
810.21	0.321
810.39	0.321
810.56	0.322
810.74	0.317
810.91	0.316
811.09	0.317
811.27	0.318
811.44	0.320
811.62	0.323
811.80	0.322
811.97	0.327
812.15	0.327
812.33	0.328
812.50	0.329
812.68	0.329
812.85	0.330
813.03	0.332
813.21	0.332
813.38	0.334
813.56	0.330
813.74	0.328
813.91	0.324
814.09	0.322
814.26	0.322
814.44	0.320
814.62	0.319
814.79	0.318
814.97	0.315
815.14	0.315
815.32	0.302
815.50	0.302
815.67	0.302
815.85	0.305
816.02	0.303
816.20	0.302
816.38	0.302
816.55	0.301
816.73	0.299
816.90	0.299
817.08	0.294
817.26	0.302
817.43	0.303
817.61	0.301
817.78	0.299
817.96	0.302
818.13	0.301
818.31	0.300
818.49	0.299
818.66	0.303
818.84	0.302
819.01	0.305
819.19	0.304
819.36	0.305
819.54	0.305
819.71	0.304
819.89	0.299
820.07	0.298
820.24	0.290
820.42	0.293
820.59	0.288
820.77	0.288
820.94	0.284
821.12	0.283
821.29	0.278
821.47	0.281
821.64	0.280
821.82	0.281
822.00	0.276
822.17	0.283
822.35	0.279
822.52	0.277
822.70	0.275
822.87	0.275
823.05	0.272
823.22	0.273
823.40	0.269
823.57	0.266
823.75	0.266
823.92	0.267
824.10	0.262
824.27	0.260
824.45	0.259
824.62	0.256
824.80	0.251
824.97	0.252
825.15	0.246
825.32	0.241
825.50	0.238
825.67	0.233
825.85	0.228
826.02	0.227
826.20	0.222
826.37	0.216
826.55	0.215
826.72	0.213
826.90	0.205
827.07	0.202
827.25	0.197
827.42	0.194
827.60	0.188
827.77	0.185
827.95	0.180
828.12	0.179
828.30	0.175
828.47	0.170
828.65	0.164
828.82	0.164
829.00	0.159
829.17	0.157
829.34	0.149
829.52	0.148
829.69	0.137
829.87	0.133
830.04	0.122
830.22	0.119
830.39	0.111
830.57	0.110
830.74	0.098
830.92	0.095
831.09	0.084
831.26	0.084
831.44	0.074
831.61	0.078
831.79	0.070
831.96	0.069
832.14	0.063
832.31	0.057
832.49	0.050
832.66	0.050
832.83	0.044
833.01	0.045
833.18	0.042
833.36	0.042
833.53	0.031
833.70	0.033
833.88	0.028
834.05	0.029
834.23	0.028
834.40	0.029
834.58	0.023
834.75	0.026
834.92	0.022
835.10	0.020
835.27	0.018
835.45	0.025
835.62	0.020
835.79	0.023
835.97	0.020
836.14	0.022
836.32	0.020
836.49	0.026
836.66	0.022
836.84	0.024
837.01	0.021
837.18	0.022
837.36	0.015
837.53	0.017
837.71	0.015
837.88	0.014
838.05	0.008
838.23	0.009
838.40	0.002
838.58	0.004
838.75	0.004
838.92	0.004
839.10	-0.002
839.27	-0.001
839.44	-0.005
839.62	-0.006
839.79	-0.011
839.96	-0.003
840.14	-0.009
840.31	-0.008
840.48	-0.010
840.66	-0.013
840.83	-0.018
841.01	-0.014
841.18	-0.015
841.35	-0.014
841.53	-0.016
841.70	-0.011
841.87	-0.023
842.05	-0.022
842.22	-0.025
842.39	-0.028
842.57	-0.031
842.74	-0.032
842.91	-0.036
843.09	-0.037
843.26	-0.043
843.43	-0.040
843.60	-0.045
843.78	-0.041
843.95	-0.044
844.12	-0.043
844.30	-0.047
844.47	-0.041
844.64	-0.041
844.82	-0.042
844.99	-0.047
845.16	-0.053
845.34	-0.059
845.51	-0.060
845.68	-0.065
845.85	-0.063
846.03	-0.066
846.20	-0.058
846.37	-0.066
846.55	-0.065
846.72	-0.067
846.89	-0.062
847.06	-0.059
847.24	-0.058
847.41	-0.061
847.58	-0.057
847.76	-0.061
847.93	-0.061
848.10	-0.065
848.27	-0.060
848.45	-0.060
848.62	-0.054
848.79	-0.059
848.97	-0.054
849.14	-0.059
849.31	-0.057
849.48	-0.057
849.66	-0.053
849.83	-0.054
850.00	-0.055
850.17	-0.063
850.35	-0.065
850.52	-0.066
850.69	-0.060
850.86	-0.066
851.04	-0.057
851.21	-0.054
851.38	-0.056
851.55	-0.059
851.72	-0.052
851.90	-0.055
852.07	-0.051
852.24	-0.048
852.41	-0.054
852.59	-0.061
852.76	-0.057
852.93	-0.061
853.10	-0.067
853.28	-0.064
853.45	-0.063
853.62	-0.066
853.79	-0.062
853.96	-0.064
854.14	-0.063
854.31	-0.066
854.48	-0.064
854.65	-0.064
854.82	-0.064
855.00	-0.064
855.17	-0.063
855.34	-0.066
855.51	-0.070
855.68	-0.077
855.86	-0.074
856.03	-0.078
856.20	-0.072
856.37	-0.078
856.54	-0.082
856.72	-0.092
856.89	-0.088
857.06	-0.098
857.23	-0.095
857.40	-0.096
857.57	-0.087
857.75	-0.096
857.92	-0.098
858.09	-0.102
858.26	-0.099
858.43	-0.103
858.60	-0.090
858.78	-0.094
858.95	-0.086
859.12	-0.089
859.29	-0.089
859.46	-0.103
859.63	-0.096
859.81	-0.090
859.98	-0.090
860.15	-0.087
860.32	-0.079
860.49	-0.087
860.66	-0.083
860.83	-0.084
861.01	-0.077
861.18	-0.084
861.35	-0.072
861.52	-0.074
861.69	-0.080
861.86	-0.084
862.03	-0.087
862.21	-0.092
862.38	-0.087
862.55	-0.085
862.72	-0.088
862.89	-0.087
863.06	-0.077
863.23	-0.075
863.40	-0.071
863.58	-0.059
863.75	-0.056
863.92	-0.064
864.09	-0.058
864.26	-0.056
864.43	-0.064
864.60	-0.068
864.77	-0.078
864.94	-0.092
865.11	-0.099
865.29	-0.106
865.46	-0.114
865.63	-0.104
865.80	-0.105
865.97	-0.105
866.14	-0.100
866.31	-0.097
866.48	-0.081
866.65	-0.075
866.82	-0.063
866.99	-0.047
867.16	-0.041
867.34	-0.040
867.51	-0.051
867.68	-0.041
867.85	-0.047
868.02	-0.056
868.19	-0.061
868.36	-0.067
868.53	-0.067
868.70	-0.066
868.87	-0.089
869.04	-0.094
869.21	-0.098
869.38	-0.093
869.55	-0.092
869.72	-0.098
869.89	-0.096
870.06	-0.095
870.24	-0.099
870.41	-0.101
870.58	-0.103
870.75	-0.096
870.92	-0.097
871.09	-0.099
871.26	-0.103
871.43	-0.115
871.60	-0.110
871.77	-0.104
871.94	-0.105
872.11	-0.106
872.28	-0.099
872.45	-0.105
872.62	-0.101
872.79	-0.107
872.96	-0.098
873.13	-0.110
873.30	-0.103
873.47	-0.096
873.64	-0.105
873.81	-0.108
873.98	-0.114
874.15	-0.119
874.32	-0.102
874.49	-0.105
874.66	-0.096
874.83	-0.093
875.00	-0.084
875.17	-0.077
875.34	-0.073
875.51	-0.079
875.68	-0.075
875.85	-0.059
876.02	-0.058
876.19	-0.068
876.36	-0.068
876.53	-0.052
876.70	-0.047
876.87	-0.018
877.04	-0.011
877.21	-0.013
877.38	-0.003
877.55	0.001
877.72	-0.010
877.89	-0.021
878.06	-0.015
878.23	-0.013
878.39	-0.008
878.56	-0.021
878.73	-0.038
878.90	-0.052
879.07	-0.059
879.24	-0.035
879.41	-0.032
879.58	-0.041
879.75	-0.045
879.92	-0.055
880.09	-0.060
880.26	-0.085
880.43	-0.073
880.60	-0.085
880.77	-0.072
880.94	-0.058
881.11	-0.054
881.27	-0.021
881.44	-0.007
881.61	0.021
881.78	0.030
881.95	0.031
882.12	0.061
882.29	0.072
882.46	0.078
882.63	0.079
882.80	0.105
882.97	0.045
883.14	0.017
883.30	0.012
883.47	-0.017
883.64	0.014
883.81	0.031
883.98	0.048
884.15	0.048
884.32	0.041
884.49	0.034
884.66	-0.006
884.82	0.022
884.99	-0.003
885.16	-0.010
885.33	-0.003
885.50	-0.018
885.67	-0.023
885.84	-0.056
886.01	-0.059
886.17	-0.054
886.34	-0.042
886.51	-0.040
886.68	-0.070
886.85	-0.021
887.02	0.004
887.19	0.015
887.36	0.002
887.52	0.010
887.69	0.017
887.86	-0.001
888.03	0.014
888.20	0.004
888.37	0.013
888.54	0.066
888.70	0.035
888.87	0.023
889.04	0.011
889.21	0.011
889.38	-0.014
889.55	0.017
889.71	-0.040
889.88	-0.192
890.05	0.019
890.22	-0.189
890.39	0.416
>>>>>End Processed Spectral Data<<<<<
