SpectraSuite Data File
++++++++++++++++++++++++++++++++++++
Date: Fri Jun 19 15:26:09 CEST 2015
User: introlabs
Dark Spectrum Present: Yes
Reference Spectrum Present: Yes
Number of Sampled Component Spectra: 1
Spectrometers: USB4H08886
Integration Time (usec): 745692 (USB4H08886)
Spectra Averaged: 5 (USB4H08886)
Boxcar Smoothing: 5 (USB4H08886)
Correct for Electrical Dark: Yes (USB4H08886)
Strobe/Lamp Enabled: No (USB4H08886)
Correct for Detector Non-linearity: Yes (USB4H08886)
Correct for Stray Light: Yes (USB4H08886)
Number of Pixels in Processed Spectrum: 3648
>>>>>Begin Processed Spectral Data<<<<<
178.14	-0.000
178.36	-0.000
178.57	-0.000
178.79	-0.000
179.01	-0.000
179.22	-0.000
179.44	-0.000
179.65	-0.000
179.87	-0.000
180.08	-0.000
180.30	-0.000
180.52	-0.000
180.73	-0.000
180.95	-0.000
181.16	-0.000
181.38	-0.000
181.59	-0.000
181.81	-0.000
182.03	-0.000
182.24	-0.000
182.46	-0.000
182.67	-0.000
182.89	-0.000
183.10	-0.000
183.32	-0.000
183.54	-0.000
183.75	-0.000
183.97	-0.000
184.18	-0.000
184.40	-0.000
184.61	-0.000
184.83	-0.000
185.04	-0.000
185.26	-0.000
185.48	-0.000
185.69	-0.000
185.91	-0.000
186.12	-0.000
186.34	-0.000
186.55	-0.000
186.77	-0.000
186.98	-0.000
187.20	-0.000
187.42	-0.000
187.63	-0.000
187.85	-0.000
188.06	-0.000
188.28	-0.000
188.49	-0.000
188.71	-0.000
188.92	-0.000
189.14	-0.000
189.36	-0.000
189.57	-0.000
189.79	-0.000
190.00	-0.000
190.22	-0.000
190.43	-0.000
190.65	-0.000
190.86	-0.000
191.08	-0.000
191.29	-0.000
191.51	-0.000
191.72	-0.000
191.94	-0.000
192.16	-0.000
192.37	-0.000
192.59	-0.000
192.80	-0.000
193.02	-0.000
193.23	-0.000
193.45	-0.000
193.66	-0.000
193.88	-0.000
194.09	-0.000
194.31	-0.000
194.52	-0.000
194.74	-0.000
194.95	-0.000
195.17	-0.000
195.38	-0.000
195.60	-0.000
195.81	-0.000
196.03	-0.000
196.25	-0.000
196.46	-0.000
196.68	-0.000
196.89	-0.000
197.11	-0.000
197.32	-0.000
197.54	-0.000
197.75	-0.000
197.97	-0.000
198.18	-0.000
198.40	-0.000
198.61	-0.000
198.83	-0.000
199.04	-0.000
199.26	-0.000
199.47	-0.000
199.69	-0.000
199.90	-0.000
200.12	-0.000
200.33	-0.000
200.55	-0.000
200.76	-0.000
200.98	-0.000
201.19	-0.000
201.41	-0.000
201.62	-0.000
201.84	-0.000
202.05	-0.000
202.27	-0.000
202.48	-0.000
202.70	-0.000
202.91	-0.000
203.13	-0.000
203.34	-0.000
203.56	-0.000
203.77	-0.000
203.99	-0.000
204.20	-0.000
204.42	-0.000
204.63	-0.000
204.85	-0.000
205.06	-0.000
205.28	-0.000
205.49	-0.000
205.71	-0.000
205.92	-0.000
206.14	-0.000
206.35	-0.000
206.56	-0.000
206.78	-0.000
206.99	-0.000
207.21	-0.000
207.42	-0.000
207.64	-0.000
207.85	-0.000
208.07	-0.000
208.28	-0.000
208.50	-0.000
208.71	-0.000
208.93	-0.000
209.14	-0.000
209.36	-0.000
209.57	-0.000
209.79	-0.000
210.00	-0.000
210.22	-0.000
210.43	-0.000
210.64	-0.000
210.86	-0.000
211.07	-0.000
211.29	-0.000
211.50	-0.000
211.72	-0.000
211.93	-0.000
212.15	-0.000
212.36	-0.000
212.58	-0.000
212.79	-0.000
213.01	-0.000
213.22	-0.000
213.43	-0.000
213.65	-0.000
213.86	-0.000
214.08	-0.000
214.29	-0.000
214.51	-0.000
214.72	-0.000
214.94	-0.000
215.15	-0.000
215.36	-0.000
215.58	-0.000
215.79	-0.000
216.01	-0.000
216.22	-0.000
216.44	-0.000
216.65	-0.000
216.87	-0.000
217.08	-0.000
217.29	-0.000
217.51	-0.000
217.72	-0.000
217.94	-0.000
218.15	-0.000
218.37	-0.000
218.58	-0.000
218.80	-0.000
219.01	-0.000
219.22	-0.000
219.44	-0.000
219.65	-0.000
219.87	-0.000
220.08	-0.000
220.30	-0.000
220.51	-0.000
220.72	-0.000
220.94	-0.000
221.15	-0.000
221.37	-0.000
221.58	-0.000
221.79	-0.000
222.01	-0.000
222.22	-0.000
222.44	-0.000
222.65	-0.000
222.87	-0.000
223.08	-0.000
223.29	-0.000
223.51	-0.000
223.72	-0.000
223.94	-0.000
224.15	-0.000
224.36	-0.000
224.58	-0.000
224.79	-0.000
225.01	-0.000
225.22	-0.000
225.44	-0.000
225.65	-0.000
225.86	-0.000
226.08	-0.000
226.29	-0.000
226.51	-0.000
226.72	-0.000
226.93	-0.000
227.15	-0.000
227.36	-0.000
227.58	-0.000
227.79	-0.000
228.00	-0.000
228.22	-0.000
228.43	-0.000
228.65	-0.000
228.86	-0.000
229.07	-0.000
229.29	-0.000
229.50	-0.000
229.72	-0.000
229.93	-0.000
230.14	-0.000
230.36	-0.000
230.57	-0.000
230.78	-0.000
231.00	-0.000
231.21	-0.000
231.43	-0.000
231.64	-0.000
231.85	-0.000
232.07	-0.000
232.28	-0.000
232.50	-0.000
232.71	-0.000
232.92	-0.000
233.14	-0.000
233.35	-0.000
233.56	-0.000
233.78	-0.000
233.99	-0.000
234.21	-0.000
234.42	-0.000
234.63	-0.000
234.85	-0.000
235.06	-0.000
235.27	-0.000
235.49	-0.000
235.70	-0.000
235.91	-0.000
236.13	-0.000
236.34	-0.000
236.56	-0.000
236.77	-0.000
236.98	-0.000
237.20	-0.000
237.41	-0.000
237.62	-0.000
237.84	-0.000
238.05	-0.000
238.26	-0.000
238.48	-0.000
238.69	-0.000
238.91	-0.000
239.12	-0.000
239.33	-0.000
239.55	-0.000
239.76	-0.000
239.97	-0.000
240.19	-0.000
240.40	-0.000
240.61	-0.000
240.83	-0.000
241.04	-0.000
241.25	-0.000
241.47	-0.000
241.68	-0.000
241.89	-0.000
242.11	-0.000
242.32	-0.000
242.53	-0.000
242.75	-0.000
242.96	-0.000
243.17	-0.000
243.39	-0.000
243.60	-0.000
243.81	-0.000
244.03	-0.000
244.24	-0.000
244.45	-0.000
244.67	-0.000
244.88	-0.000
245.09	-0.000
245.31	-0.000
245.52	-0.000
245.73	-0.000
245.95	-0.000
246.16	-0.000
246.37	-0.000
246.59	-0.000
246.80	-0.000
247.01	-0.000
247.23	-0.000
247.44	-0.000
247.65	-0.000
247.87	-0.000
248.08	-0.000
248.29	-0.000
248.51	-0.000
248.72	-0.000
248.93	-0.000
249.15	-0.000
249.36	-0.000
249.57	-0.000
249.78	-0.000
250.00	-0.000
250.21	-0.000
250.42	-0.000
250.64	-0.000
250.85	-0.000
251.06	-0.000
251.28	-0.000
251.49	-0.000
251.70	-0.000
251.92	-0.000
252.13	-0.000
252.34	-0.000
252.55	-0.000
252.77	-0.000
252.98	-0.000
253.19	-0.000
253.41	-0.000
253.62	-0.000
253.83	-0.000
254.05	-0.000
254.26	-0.000
254.47	-0.000
254.68	-0.000
254.90	-0.000
255.11	-0.000
255.32	-0.000
255.54	-0.000
255.75	-0.000
255.96	-0.000
256.17	-0.000
256.39	-0.000
256.60	-0.000
256.81	-0.000
257.03	-0.000
257.24	-0.000
257.45	-0.000
257.66	-0.000
257.88	-0.000
258.09	-0.000
258.30	-0.000
258.51	-0.000
258.73	-0.000
258.94	-0.000
259.15	-0.000
259.37	-0.000
259.58	-0.000
259.79	-0.000
260.00	-0.000
260.22	-0.000
260.43	-0.000
260.64	-0.000
260.85	-0.000
261.07	-0.000
261.28	-0.000
261.49	-0.000
261.71	-0.000
261.92	-0.000
262.13	-0.000
262.34	-0.000
262.56	-0.000
262.77	-0.000
262.98	-0.000
263.19	-0.000
263.41	-0.000
263.62	-0.000
263.83	-0.000
264.04	-0.000
264.26	-0.000
264.47	-0.000
264.68	-0.000
264.89	-0.000
265.11	-0.000
265.32	-0.000
265.53	-0.000
265.74	-0.000
265.96	-0.000
266.17	-0.000
266.38	-0.000
266.59	-0.000
266.81	-0.000
267.02	-0.000
267.23	-0.000
267.44	-0.000
267.65	-0.000
267.87	-0.000
268.08	-0.000
268.29	-0.000
268.50	-0.000
268.72	-0.000
268.93	-0.000
269.14	-0.000
269.35	-0.000
269.57	-0.000
269.78	-0.000
269.99	-0.000
270.20	-0.000
270.41	-0.000
270.63	-0.000
270.84	-0.000
271.05	-0.000
271.26	-0.000
271.48	-0.000
271.69	-0.000
271.90	-0.000
272.11	-0.000
272.32	-0.000
272.54	-0.000
272.75	-0.000
272.96	-0.000
273.17	-0.000
273.39	-0.000
273.60	-0.000
273.81	-0.000
274.02	-0.000
274.23	-0.000
274.45	-0.000
274.66	-0.000
274.87	-0.000
275.08	-0.000
275.29	-0.000
275.51	-0.000
275.72	-0.000
275.93	-0.000
276.14	-0.000
276.35	-0.000
276.57	-0.000
276.78	-0.000
276.99	-0.000
277.20	-0.000
277.41	-0.000
277.63	-0.000
277.84	-0.000
278.05	-0.000
278.26	-0.000
278.47	-0.000
278.69	-0.000
278.90	-0.000
279.11	-0.000
279.32	-0.000
279.53	-0.000
279.74	-0.000
279.96	-0.000
280.17	-0.000
280.38	-0.000
280.59	-0.000
280.80	-0.000
281.02	-0.000
281.23	-0.000
281.44	-0.000
281.65	-0.000
281.86	-0.000
282.07	-0.000
282.29	-0.000
282.50	-0.000
282.71	-0.000
282.92	-0.000
283.13	-0.000
283.35	-0.000
283.56	-0.000
283.77	-0.000
283.98	-0.000
284.19	-0.000
284.40	-0.000
284.62	-0.000
284.83	-0.000
285.04	-0.000
285.25	-0.000
285.46	-0.000
285.67	-0.000
285.88	-0.000
286.10	-0.000
286.31	-0.000
286.52	-0.000
286.73	-0.000
286.94	-0.000
287.15	-0.000
287.37	-0.000
287.58	-0.000
287.79	-0.000
288.00	-0.000
288.21	-0.000
288.42	-0.000
288.63	-0.000
288.85	-0.000
289.06	-0.000
289.27	-0.000
289.48	-0.000
289.69	-0.000
289.90	-0.000
290.11	-0.000
290.33	-0.000
290.54	-0.000
290.75	-0.000
290.96	-0.000
291.17	-0.000
291.38	-0.000
291.59	-0.000
291.81	-0.000
292.02	-0.000
292.23	-0.000
292.44	-0.000
292.65	-0.000
292.86	-0.000
293.07	-0.000
293.28	-0.000
293.50	-0.000
293.71	-0.000
293.92	-0.000
294.13	-0.000
294.34	-0.000
294.55	-0.000
294.76	-0.000
294.97	-0.000
295.19	-0.000
295.40	-0.000
295.61	-0.000
295.82	-0.000
296.03	-0.000
296.24	-0.000
296.45	2.052
296.66	1.740
296.87	1.754
297.09	1.797
297.30	1.963
297.51	1.649
297.72	1.630
297.93	1.700
298.14	1.664
298.35	1.623
298.56	1.612
298.77	1.695
298.99	1.678
299.20	1.662
299.41	1.646
299.62	1.602
299.83	1.601
300.04	1.545
300.25	1.535
300.46	1.568
300.67	1.553
300.88	1.508
301.10	1.515
301.31	1.579
301.52	1.530
301.73	1.482
301.94	1.487
302.15	1.494
302.36	1.448
302.57	1.392
302.78	1.398
302.99	1.433
303.20	1.452
303.41	1.370
303.63	1.353
303.84	1.354
304.05	1.353
304.26	1.301
304.47	1.304
304.68	1.308
304.89	1.298
305.10	1.263
305.31	1.252
305.52	1.289
305.73	1.284
305.94	1.247
306.15	1.240
306.37	1.263
306.58	1.270
306.79	1.246
307.00	1.265
307.21	1.307
307.42	1.302
307.63	1.267
307.84	1.235
308.05	1.271
308.26	1.272
308.47	1.251
308.68	1.241
308.89	1.236
309.10	1.236
309.31	1.201
309.52	1.191
309.73	1.205
309.95	1.201
310.16	1.174
310.37	1.163
310.58	1.178
310.79	1.178
311.00	1.179
311.21	1.180
311.42	1.177
311.63	1.171
311.84	1.155
312.05	1.152
312.26	1.171
312.47	1.184
312.68	1.162
312.89	1.145
313.10	1.149
313.31	1.120
313.52	1.125
313.73	1.127
313.94	1.129
314.15	1.113
314.36	1.094
314.57	1.086
314.78	1.073
314.99	1.068
315.21	1.060
315.42	1.064
315.63	1.077
315.84	1.055
316.05	1.042
316.26	1.051
316.47	1.065
316.68	1.062
316.89	1.045
317.10	1.065
317.31	1.070
317.52	1.068
317.73	1.051
317.94	1.049
318.15	1.089
318.36	1.089
318.57	1.074
318.78	1.063
318.99	1.095
319.20	1.094
319.41	1.061
319.62	1.063
319.83	1.077
320.04	1.071
320.25	1.060
320.46	1.029
320.67	1.032
320.88	1.027
321.09	1.015
321.30	1.001
321.51	1.015
321.72	1.013
321.93	0.997
322.14	0.989
322.35	1.016
322.56	1.018
322.77	1.007
322.98	1.016
323.19	1.022
323.40	1.027
323.61	1.008
323.82	1.002
324.03	1.007
324.24	1.004
324.45	0.994
324.66	0.975
324.87	0.969
325.08	0.967
325.29	0.950
325.50	0.943
325.71	0.948
325.92	0.956
326.13	0.943
326.34	0.944
326.55	0.951
326.76	0.950
326.97	0.940
327.18	0.937
327.39	0.962
327.60	0.963
327.80	0.966
328.01	0.964
328.22	0.962
328.43	0.966
328.64	0.955
328.85	0.960
329.06	0.962
329.27	0.961
329.48	0.957
329.69	0.938
329.90	0.948
330.11	0.940
330.32	0.935
330.53	0.927
330.74	0.926
330.95	0.924
331.16	0.911
331.37	0.918
331.58	0.919
331.79	0.918
332.00	0.910
332.21	0.902
332.42	0.906
332.63	0.897
332.83	0.894
333.04	0.897
333.25	0.909
333.46	0.907
333.67	0.894
333.88	0.896
334.09	0.906
334.30	0.903
334.51	0.895
334.72	0.891
334.93	0.895
335.14	0.896
335.35	0.889
335.56	0.884
335.77	0.891
335.98	0.889
336.18	0.884
336.39	0.876
336.60	0.880
336.81	0.879
337.02	0.879
337.23	0.883
337.44	0.884
337.65	0.885
337.86	0.875
338.07	0.871
338.28	0.876
338.49	0.873
338.70	0.867
338.91	0.874
339.11	0.880
339.32	0.875
339.53	0.864
339.74	0.860
339.95	0.857
340.16	0.855
340.37	0.849
340.58	0.846
340.79	0.850
341.00	0.849
341.21	0.838
341.41	0.839
341.62	0.840
341.83	0.842
342.04	0.839
342.25	0.849
342.46	0.853
342.67	0.851
342.88	0.845
343.09	0.844
343.30	0.851
343.50	0.854
343.71	0.845
343.92	0.843
344.13	0.846
344.34	0.845
344.55	0.829
344.76	0.828
344.97	0.832
345.18	0.831
345.38	0.829
345.59	0.823
345.80	0.821
346.01	0.820
346.22	0.817
346.43	0.811
346.64	0.819
346.85	0.819
347.06	0.813
347.26	0.813
347.47	0.817
347.68	0.813
347.89	0.809
348.10	0.805
348.31	0.810
348.52	0.808
348.73	0.807
348.93	0.804
349.14	0.805
349.35	0.805
349.56	0.799
349.77	0.794
349.98	0.799
350.19	0.798
350.39	0.793
350.60	0.789
350.81	0.804
351.02	0.803
351.23	0.799
351.44	0.801
351.65	0.802
351.86	0.800
352.06	0.800
352.27	0.800
352.48	0.801
352.69	0.801
352.90	0.796
353.11	0.783
353.31	0.790
353.52	0.786
353.73	0.779
353.94	0.780
354.15	0.785
354.36	0.785
354.57	0.777
354.77	0.779
354.98	0.778
355.19	0.778
355.40	0.777
355.61	0.782
355.82	0.786
356.02	0.786
356.23	0.779
356.44	0.781
356.65	0.784
356.86	0.784
357.07	0.778
357.27	0.781
357.48	0.783
357.69	0.779
357.90	0.764
358.11	0.761
358.32	0.763
358.52	0.767
358.73	0.757
358.94	0.760
359.15	0.765
359.36	0.764
359.56	0.760
359.77	0.757
359.98	0.764
360.19	0.765
360.40	0.762
360.61	0.762
360.81	0.760
361.02	0.760
361.23	0.752
361.44	0.751
361.65	0.752
361.85	0.750
362.06	0.750
362.27	0.752
362.48	0.751
362.69	0.752
362.89	0.746
363.10	0.747
363.31	0.751
363.52	0.753
363.73	0.748
363.93	0.748
364.14	0.751
364.35	0.752
364.56	0.742
364.77	0.744
364.97	0.746
365.18	0.747
365.39	0.743
365.60	0.740
365.81	0.741
366.01	0.742
366.22	0.739
366.43	0.737
366.64	0.739
366.84	0.745
367.05	0.742
367.26	0.741
367.47	0.743
367.68	0.743
367.88	0.740
368.09	0.737
368.30	0.739
368.51	0.739
368.71	0.739
368.92	0.743
369.13	0.740
369.34	0.739
369.55	0.738
369.75	0.738
369.96	0.745
370.17	0.745
370.38	0.743
370.58	0.742
370.79	0.747
371.00	0.746
371.21	0.737
371.41	0.742
371.62	0.746
371.83	0.742
372.04	0.740
372.24	0.734
372.45	0.735
372.66	0.735
372.87	0.732
373.07	0.729
373.28	0.730
373.49	0.734
373.70	0.725
373.90	0.723
374.11	0.732
374.32	0.732
374.53	0.730
374.73	0.730
374.94	0.732
375.15	0.732
375.36	0.730
375.56	0.739
375.77	0.738
375.98	0.738
376.19	0.735
376.39	0.729
376.60	0.733
376.81	0.734
377.02	0.732
377.22	0.731
377.43	0.730
377.64	0.730
377.84	0.722
378.05	0.727
378.26	0.733
378.47	0.732
378.67	0.730
378.88	0.727
379.09	0.727
379.30	0.727
379.50	0.725
379.71	0.728
379.92	0.730
380.12	0.729
380.33	0.722
380.54	0.718
380.75	0.724
380.95	0.724
381.16	0.723
381.37	0.723
381.57	0.725
381.78	0.726
381.99	0.725
382.20	0.725
382.40	0.728
382.61	0.728
382.82	0.724
383.02	0.718
383.23	0.721
383.44	0.721
383.64	0.720
383.85	0.722
384.06	0.725
384.27	0.723
384.47	0.721
384.68	0.722
384.89	0.727
385.09	0.728
385.30	0.727
385.51	0.726
385.71	0.729
385.92	0.730
386.13	0.728
386.33	0.730
386.54	0.731
386.75	0.731
386.95	0.727
387.16	0.723
387.37	0.725
387.58	0.726
387.78	0.724
387.99	0.722
388.20	0.723
388.40	0.721
388.61	0.717
388.82	0.721
389.02	0.722
389.23	0.723
389.44	0.721
389.64	0.721
389.85	0.731
390.06	0.731
390.26	0.731
390.47	0.731
390.68	0.733
390.88	0.731
391.09	0.726
391.30	0.726
391.50	0.725
391.71	0.726
391.92	0.724
392.12	0.716
392.33	0.717
392.53	0.716
392.74	0.716
392.95	0.716
393.15	0.719
393.36	0.720
393.57	0.718
393.77	0.721
393.98	0.723
394.19	0.722
394.39	0.721
394.60	0.723
394.81	0.726
395.01	0.724
395.22	0.723
395.43	0.724
395.63	0.728
395.84	0.730
396.04	0.727
396.25	0.728
396.46	0.730
396.66	0.729
396.87	0.726
397.08	0.723
397.28	0.726
397.49	0.727
397.69	0.724
397.90	0.719
398.11	0.720
398.31	0.721
398.52	0.718
398.73	0.719
398.93	0.718
399.14	0.718
399.34	0.717
399.55	0.716
399.76	0.717
399.96	0.717
400.17	0.716
400.37	0.714
400.58	0.721
400.79	0.722
400.99	0.720
401.20	0.726
401.41	0.728
401.61	0.728
401.82	0.734
402.02	0.733
402.23	0.735
402.44	0.734
402.64	0.735
402.85	0.729
403.05	0.729
403.26	0.727
403.47	0.722
403.67	0.721
403.88	0.721
404.08	0.716
404.29	0.714
404.50	0.714
404.70	0.714
404.91	0.713
405.11	0.710
405.32	0.711
405.52	0.710
405.73	0.710
405.94	0.709
406.14	0.713
406.35	0.714
406.55	0.714
406.76	0.711
406.97	0.713
407.17	0.715
407.38	0.715
407.58	0.713
407.79	0.717
407.99	0.719
408.20	0.719
408.41	0.715
408.61	0.713
408.82	0.714
409.02	0.715
409.23	0.713
409.43	0.712
409.64	0.713
409.84	0.713
410.05	0.710
410.26	0.708
410.46	0.708
410.67	0.707
410.87	0.708
411.08	0.710
411.28	0.711
411.49	0.712
411.69	0.710
411.90	0.711
412.11	0.712
412.31	0.713
412.52	0.711
412.72	0.711
412.93	0.712
413.13	0.711
413.34	0.708
413.54	0.709
413.75	0.711
413.95	0.711
414.16	0.708
414.37	0.710
414.57	0.711
414.78	0.714
414.98	0.712
415.19	0.713
415.39	0.711
415.60	0.713
415.80	0.712
416.01	0.710
416.21	0.711
416.42	0.711
416.62	0.707
416.83	0.707
417.03	0.706
417.24	0.706
417.44	0.704
417.65	0.703
417.86	0.703
418.06	0.702
418.27	0.700
418.47	0.702
418.68	0.703
418.88	0.703
419.09	0.702
419.29	0.702
419.50	0.703
419.70	0.703
419.91	0.702
420.11	0.700
420.32	0.702
420.52	0.702
420.73	0.701
420.93	0.701
421.14	0.702
421.34	0.701
421.55	0.698
421.75	0.698
421.96	0.699
422.16	0.699
422.37	0.698
422.57	0.695
422.78	0.696
422.98	0.693
423.19	0.691
423.39	0.689
423.60	0.692
423.80	0.694
424.01	0.693
424.21	0.694
424.42	0.695
424.62	0.695
424.83	0.695
425.03	0.695
425.23	0.697
425.44	0.697
425.64	0.698
425.85	0.697
426.05	0.697
426.26	0.698
426.46	0.694
426.67	0.693
426.87	0.698
427.08	0.699
427.28	0.697
427.49	0.698
427.69	0.698
427.90	0.697
428.10	0.694
428.31	0.695
428.51	0.696
428.71	0.695
428.92	0.697
429.12	0.694
429.33	0.694
429.53	0.698
429.74	0.703
429.94	0.704
430.15	0.703
430.35	0.703
430.56	0.699
430.76	0.698
430.96	0.699
431.17	0.695
431.37	0.693
431.58	0.690
431.78	0.686
431.99	0.679
432.19	0.680
432.40	0.682
432.60	0.682
432.80	0.684
433.01	0.683
433.21	0.683
433.42	0.685
433.62	0.686
433.83	0.685
434.03	0.689
434.23	0.691
434.44	0.690
434.64	0.688
434.85	0.693
435.05	0.694
435.26	0.694
435.46	0.693
435.66	0.693
435.87	0.693
436.07	0.693
436.28	0.688
436.48	0.686
436.69	0.685
436.89	0.685
437.09	0.679
437.30	0.678
437.50	0.678
437.71	0.690
437.91	0.688
438.11	0.689
438.32	0.694
438.52	0.694
438.73	0.693
438.93	0.692
439.13	0.691
439.34	0.694
439.54	0.692
439.75	0.692
439.95	0.682
440.15	0.687
440.36	0.685
440.56	0.683
440.77	0.684
440.97	0.684
441.17	0.682
441.38	0.684
441.58	0.681
441.79	0.680
441.99	0.678
442.19	0.677
442.40	0.674
442.60	0.674
442.81	0.671
443.01	0.671
443.21	0.671
443.42	0.671
443.62	0.669
443.82	0.669
444.03	0.671
444.23	0.671
444.44	0.671
444.64	0.670
444.84	0.671
445.05	0.671
445.25	0.669
445.45	0.669
445.66	0.672
445.86	0.672
446.06	0.673
446.27	0.671
446.47	0.674
446.68	0.673
446.88	0.671
447.08	0.670
447.29	0.672
447.49	0.671
447.69	0.671
447.90	0.669
448.10	0.673
448.30	0.670
448.51	0.671
448.71	0.668
448.91	0.670
449.12	0.669
449.32	0.672
449.52	0.670
449.73	0.675
449.93	0.674
450.14	0.675
450.34	0.673
450.54	0.675
450.75	0.673
450.95	0.673
451.15	0.673
451.36	0.675
451.56	0.672
451.76	0.671
451.97	0.668
452.17	0.668
452.37	0.666
452.58	0.663
452.78	0.663
452.98	0.665
453.19	0.664
453.39	0.665
453.59	0.663
453.79	0.663
454.00	0.663
454.20	0.663
454.40	0.664
454.61	0.665
454.81	0.666
455.01	0.664
455.22	0.665
455.42	0.666
455.62	0.664
455.83	0.664
456.03	0.668
456.23	0.668
456.44	0.669
456.64	0.668
456.84	0.668
457.04	0.668
457.25	0.667
457.45	0.664
457.65	0.663
457.86	0.664
458.06	0.663
458.26	0.659
458.47	0.658
458.67	0.659
458.87	0.659
459.07	0.657
459.28	0.658
459.48	0.661
459.68	0.661
459.89	0.660
460.09	0.659
460.29	0.659
460.49	0.660
460.70	0.659
460.90	0.659
461.10	0.659
461.31	0.659
461.51	0.657
461.71	0.659
461.91	0.660
462.12	0.660
462.32	0.660
462.52	0.661
462.72	0.663
462.93	0.664
463.13	0.663
463.33	0.664
463.53	0.665
463.74	0.664
463.94	0.660
464.14	0.659
464.35	0.661
464.55	0.661
464.75	0.659
464.95	0.657
465.16	0.659
465.36	0.657
465.56	0.656
465.76	0.656
465.97	0.656
466.17	0.656
466.37	0.655
466.57	0.655
466.78	0.655
466.98	0.655
467.18	0.653
467.38	0.651
467.59	0.653
467.79	0.654
467.99	0.653
468.19	0.654
468.39	0.657
468.60	0.656
468.80	0.655
469.00	0.656
469.20	0.658
469.41	0.658
469.61	0.658
469.81	0.658
470.01	0.657
470.22	0.658
470.42	0.656
470.62	0.654
470.82	0.656
471.02	0.655
471.23	0.653
471.43	0.653
471.63	0.655
471.83	0.655
472.04	0.653
472.24	0.652
472.44	0.657
472.64	0.658
472.84	0.657
473.05	0.656
473.25	0.658
473.45	0.658
473.65	0.656
473.85	0.657
474.06	0.658
474.26	0.658
474.46	0.660
474.66	0.656
474.86	0.656
475.07	0.657
475.27	0.655
475.47	0.652
475.67	0.653
475.87	0.655
476.08	0.652
476.28	0.653
476.48	0.654
476.68	0.652
476.88	0.650
477.09	0.651
477.29	0.653
477.49	0.653
477.69	0.652
477.89	0.652
478.09	0.652
478.30	0.654
478.50	0.651
478.70	0.651
478.90	0.651
479.10	0.654
479.31	0.655
479.51	0.653
479.71	0.654
479.91	0.655
480.11	0.654
480.31	0.654
480.52	0.653
480.72	0.653
480.92	0.652
481.12	0.650
481.32	0.647
481.52	0.645
481.72	0.645
481.93	0.649
482.13	0.649
482.33	0.649
482.53	0.647
482.73	0.647
482.93	0.648
483.14	0.648
483.34	0.647
483.54	0.648
483.74	0.648
483.94	0.647
484.14	0.643
484.34	0.642
484.55	0.643
484.75	0.643
484.95	0.641
485.15	0.641
485.35	0.641
485.55	0.640
485.75	0.639
485.96	0.639
486.16	0.641
486.36	0.640
486.56	0.638
486.76	0.639
486.96	0.639
487.16	0.638
487.36	0.636
487.57	0.636
487.77	0.637
487.97	0.637
488.17	0.635
488.37	0.634
488.57	0.634
488.77	0.634
488.97	0.632
489.18	0.632
489.38	0.634
489.58	0.635
489.78	0.635
489.98	0.634
490.18	0.634
490.38	0.635
490.58	0.634
490.78	0.635
490.98	0.636
491.19	0.637
491.39	0.636
491.59	0.635
491.79	0.638
491.99	0.638
492.19	0.637
492.39	0.640
492.59	0.640
492.79	0.642
492.99	0.643
493.20	0.643
493.40	0.643
493.60	0.644
493.80	0.643
494.00	0.641
494.20	0.641
494.40	0.640
494.60	0.638
494.80	0.642
495.00	0.641
495.20	0.639
495.40	0.638
495.61	0.640
495.81	0.640
496.01	0.643
496.21	0.644
496.41	0.643
496.61	0.644
496.81	0.643
497.01	0.638
497.21	0.637
497.41	0.637
497.61	0.637
497.81	0.634
498.01	0.635
498.21	0.633
498.41	0.631
498.61	0.631
498.82	0.632
499.02	0.634
499.22	0.635
499.42	0.635
499.62	0.636
499.82	0.636
500.02	0.638
500.22	0.636
500.42	0.638
500.62	0.638
500.82	0.638
501.02	0.636
501.22	0.636
501.42	0.637
501.62	0.639
501.82	0.638
502.02	0.638
502.22	0.637
502.42	0.639
502.62	0.636
502.82	0.637
503.02	0.637
503.22	0.638
503.42	0.636
503.63	0.635
503.83	0.633
504.03	0.631
504.23	0.631
504.43	0.631
504.63	0.632
504.83	0.632
505.03	0.631
505.23	0.633
505.43	0.634
505.63	0.635
505.83	0.635
506.03	0.637
506.23	0.639
506.43	0.639
506.63	0.638
506.83	0.637
507.03	0.639
507.23	0.639
507.43	0.636
507.63	0.637
507.83	0.637
508.03	0.637
508.23	0.636
508.43	0.635
508.63	0.637
508.83	0.638
509.03	0.639
509.23	0.637
509.43	0.639
509.63	0.640
509.83	0.638
510.03	0.640
510.23	0.642
510.43	0.642
510.63	0.643
510.83	0.642
511.03	0.643
511.23	0.641
511.43	0.641
511.63	0.642
511.83	0.644
512.03	0.644
512.22	0.641
512.42	0.640
512.62	0.641
512.82	0.640
513.02	0.640
513.22	0.639
513.42	0.641
513.62	0.643
513.82	0.642
514.02	0.641
514.22	0.642
514.42	0.643
514.62	0.643
514.82	0.643
515.02	0.645
515.22	0.648
515.42	0.648
515.62	0.650
515.82	0.649
516.02	0.649
516.22	0.649
516.42	0.651
516.62	0.653
516.82	0.654
517.01	0.652
517.21	0.651
517.41	0.655
517.61	0.655
517.81	0.651
518.01	0.650
518.21	0.650
518.41	0.649
518.61	0.647
518.81	0.648
519.01	0.649
519.21	0.649
519.41	0.648
519.61	0.643
519.81	0.645
520.00	0.646
520.20	0.647
520.40	0.650
520.60	0.651
520.80	0.650
521.00	0.650
521.20	0.650
521.40	0.655
521.60	0.656
521.80	0.655
522.00	0.655
522.20	0.657
522.39	0.657
522.59	0.654
522.79	0.656
522.99	0.658
523.19	0.656
523.39	0.654
523.59	0.652
523.79	0.654
523.99	0.656
524.19	0.655
524.38	0.653
524.58	0.655
524.78	0.655
524.98	0.654
525.18	0.656
525.38	0.657
525.58	0.658
525.78	0.656
525.98	0.654
526.18	0.655
526.37	0.655
526.57	0.657
526.77	0.657
526.97	0.657
527.17	0.657
527.37	0.653
527.57	0.656
527.77	0.657
527.96	0.658
528.16	0.657
528.36	0.658
528.56	0.659
528.76	0.656
528.96	0.656
529.16	0.657
529.36	0.659
529.55	0.659
529.75	0.656
529.95	0.656
530.15	0.657
530.35	0.659
530.55	0.657
530.75	0.657
530.94	0.659
531.14	0.659
531.34	0.658
531.54	0.656
531.74	0.658
531.94	0.661
532.13	0.660
532.33	0.662
532.53	0.660
532.73	0.660
532.93	0.659
533.13	0.660
533.33	0.660
533.52	0.661
533.72	0.664
533.92	0.663
534.12	0.661
534.32	0.660
534.52	0.659
534.71	0.661
534.91	0.664
535.11	0.665
535.31	0.663
535.51	0.664
535.71	0.666
535.90	0.663
536.10	0.664
536.30	0.666
536.50	0.667
536.70	0.667
536.89	0.665
537.09	0.664
537.29	0.666
537.49	0.666
537.69	0.664
537.89	0.665
538.08	0.665
538.28	0.663
538.48	0.664
538.68	0.665
538.88	0.666
539.07	0.667
539.27	0.665
539.47	0.664
539.67	0.664
539.87	0.666
540.06	0.664
540.26	0.665
540.46	0.668
540.66	0.665
540.86	0.662
541.05	0.663
541.25	0.664
541.45	0.664
541.65	0.662
541.84	0.664
542.04	0.664
542.24	0.665
542.44	0.664
542.64	0.664
542.83	0.667
543.03	0.668
543.23	0.666
543.43	0.667
543.62	0.667
543.82	0.668
544.02	0.667
544.22	0.667
544.42	0.670
544.61	0.670
544.81	0.668
545.01	0.666
545.21	0.668
545.40	0.669
545.60	0.668
545.80	0.671
546.00	0.671
546.19	0.670
546.39	0.669
546.59	0.667
546.79	0.668
546.98	0.668
547.18	0.667
547.38	0.668
547.58	0.670
547.77	0.671
547.97	0.667
548.17	0.669
548.37	0.670
548.56	0.670
548.76	0.669
548.96	0.670
549.16	0.673
549.35	0.673
549.55	0.671
549.75	0.671
549.95	0.673
550.14	0.674
550.34	0.672
550.54	0.677
550.73	0.681
550.93	0.681
551.13	0.678
551.33	0.677
551.52	0.678
551.72	0.678
551.92	0.677
552.12	0.677
552.31	0.677
552.51	0.677
552.71	0.672
552.90	0.673
553.10	0.673
553.30	0.674
553.50	0.673
553.69	0.674
553.89	0.675
554.09	0.674
554.28	0.672
554.48	0.673
554.68	0.675
554.87	0.675
555.07	0.672
555.27	0.672
555.47	0.674
555.66	0.675
555.86	0.674
556.06	0.675
556.25	0.676
556.45	0.684
556.65	0.682
556.84	0.686
557.04	0.689
557.24	0.690
557.43	0.690
557.63	0.693
557.83	0.694
558.02	0.695
558.22	0.699
558.42	0.700
558.61	0.693
558.81	0.694
559.01	0.690
559.21	0.689
559.40	0.690
559.60	0.689
559.80	0.685
559.99	0.688
560.19	0.689
560.39	0.683
560.58	0.682
560.78	0.681
560.97	0.685
561.17	0.683
561.37	0.681
561.56	0.682
561.76	0.683
561.96	0.683
562.15	0.680
562.35	0.682
562.55	0.684
562.74	0.683
562.94	0.682
563.14	0.679
563.33	0.680
563.53	0.680
563.73	0.678
563.92	0.680
564.12	0.683
564.31	0.685
564.51	0.684
564.71	0.685
564.90	0.688
565.10	0.689
565.30	0.692
565.49	0.693
565.69	0.695
565.89	0.695
566.08	0.693
566.28	0.695
566.47	0.696
566.67	0.694
566.87	0.691
567.06	0.693
567.26	0.699
567.46	0.695
567.65	0.694
567.85	0.696
568.04	0.699
568.24	0.698
568.44	0.695
568.63	0.694
568.83	0.695
569.02	0.694
569.22	0.689
569.42	0.685
569.61	0.687
569.81	0.686
570.00	0.684
570.20	0.685
570.40	0.686
570.59	0.686
570.79	0.684
570.98	0.683
571.18	0.684
571.38	0.684
571.57	0.681
571.77	0.680
571.96	0.683
572.16	0.681
572.35	0.675
572.55	0.676
572.75	0.674
572.94	0.674
573.14	0.672
573.33	0.672
573.53	0.673
573.73	0.672
573.92	0.670
574.12	0.668
574.31	0.670
574.51	0.672
574.70	0.669
574.90	0.671
575.09	0.672
575.29	0.673
575.49	0.671
575.68	0.671
575.88	0.672
576.07	0.674
576.27	0.671
576.46	0.670
576.66	0.669
576.86	0.668
577.05	0.667
577.25	0.665
577.44	0.666
577.64	0.665
577.83	0.664
578.03	0.665
578.22	0.664
578.42	0.664
578.61	0.662
578.81	0.663
579.00	0.663
579.20	0.662
579.40	0.661
579.59	0.660
579.79	0.660
579.98	0.660
580.18	0.659
580.37	0.660
580.57	0.662
580.76	0.666
580.96	0.665
581.15	0.666
581.35	0.667
581.54	0.667
581.74	0.667
581.93	0.669
582.13	0.669
582.32	0.666
582.52	0.664
582.71	0.663
582.91	0.659
583.10	0.658
583.30	0.657
583.49	0.656
583.69	0.659
583.88	0.661
584.08	0.660
584.27	0.662
584.47	0.665
584.66	0.667
584.86	0.666
585.05	0.669
585.25	0.671
585.44	0.671
585.64	0.670
585.83	0.667
586.03	0.667
586.22	0.665
586.42	0.661
586.61	0.663
586.81	0.665
587.00	0.664
587.20	0.661
587.39	0.662
587.59	0.663
587.78	0.664
587.98	0.664
588.17	0.665
588.37	0.668
588.56	0.670
588.76	0.666
588.95	0.666
589.15	0.670
589.34	0.673
589.54	0.671
589.73	0.672
589.92	0.675
590.12	0.675
590.31	0.673
590.51	0.678
590.70	0.679
590.90	0.680
591.09	0.679
591.29	0.677
591.48	0.677
591.68	0.678
591.87	0.677
592.06	0.676
592.26	0.679
592.45	0.679
592.65	0.672
592.84	0.672
593.04	0.674
593.23	0.676
593.43	0.674
593.62	0.673
593.81	0.673
594.01	0.673
594.20	0.670
594.40	0.668
594.59	0.670
594.79	0.671
594.98	0.669
595.17	0.669
595.37	0.670
595.56	0.671
595.76	0.671
595.95	0.672
596.14	0.675
596.34	0.677
596.53	0.676
596.73	0.678
596.92	0.680
597.12	0.682
597.31	0.683
597.50	0.682
597.70	0.684
597.89	0.684
598.09	0.681
598.28	0.682
598.47	0.684
598.67	0.682
598.86	0.679
599.06	0.680
599.25	0.680
599.44	0.677
599.64	0.675
599.83	0.672
600.03	0.674
600.22	0.675
600.41	0.675
600.61	0.672
600.80	0.674
601.00	0.674
601.19	0.670
601.38	0.669
601.58	0.671
601.77	0.672
601.96	0.675
602.16	0.675
602.35	0.683
602.55	0.681
602.74	0.682
602.93	0.684
603.13	0.689
603.32	0.691
603.51	0.691
603.71	0.694
603.90	0.695
604.09	0.695
604.29	0.693
604.48	0.688
604.68	0.689
604.87	0.688
605.06	0.684
605.26	0.682
605.45	0.682
605.64	0.681
605.84	0.677
606.03	0.675
606.22	0.674
606.42	0.674
606.61	0.670
606.80	0.669
607.00	0.670
607.19	0.670
607.38	0.669
607.58	0.670
607.77	0.672
607.96	0.672
608.16	0.671
608.35	0.676
608.54	0.679
608.74	0.682
608.93	0.687
609.12	0.689
609.32	0.692
609.51	0.696
609.70	0.695
609.90	0.697
610.09	0.700
610.28	0.706
610.48	0.700
610.67	0.701
610.86	0.701
611.06	0.696
611.25	0.693
611.44	0.694
611.64	0.694
611.83	0.697
612.02	0.694
612.21	0.694
612.41	0.691
612.60	0.690
612.79	0.687
612.99	0.688
613.18	0.689
613.37	0.687
613.57	0.685
613.76	0.686
613.95	0.683
614.14	0.683
614.34	0.680
614.53	0.681
614.72	0.684
614.92	0.683
615.11	0.680
615.30	0.677
615.49	0.678
615.69	0.680
615.88	0.676
616.07	0.677
616.26	0.679
616.46	0.679
616.65	0.677
616.84	0.675
617.04	0.677
617.23	0.681
617.42	0.681
617.61	0.684
617.81	0.684
618.00	0.687
618.19	0.686
618.38	0.690
618.58	0.694
618.77	0.695
618.96	0.695
619.15	0.697
619.35	0.698
619.54	0.700
619.73	0.696
619.92	0.698
620.12	0.703
620.31	0.703
620.50	0.697
620.69	0.697
620.89	0.701
621.08	0.701
621.27	0.701
621.46	0.700
621.66	0.704
621.85	0.704
622.04	0.701
622.23	0.701
622.43	0.702
622.62	0.702
622.81	0.700
623.00	0.700
623.19	0.703
623.39	0.702
623.58	0.699
623.77	0.697
623.96	0.700
624.16	0.701
624.35	0.696
624.54	0.698
624.73	0.701
624.92	0.700
625.12	0.697
625.31	0.698
625.50	0.699
625.69	0.700
625.88	0.696
626.08	0.696
626.27	0.696
626.46	0.697
626.65	0.694
626.84	0.694
627.04	0.698
627.23	0.698
627.42	0.694
627.61	0.696
627.80	0.699
628.00	0.700
628.19	0.698
628.38	0.701
628.57	0.703
628.76	0.703
628.96	0.700
629.15	0.700
629.34	0.704
629.53	0.704
629.72	0.699
629.91	0.699
630.11	0.705
630.30	0.705
630.49	0.708
630.68	0.708
630.87	0.711
631.06	0.713
631.26	0.709
631.45	0.710
631.64	0.717
631.83	0.719
632.02	0.717
632.21	0.714
632.41	0.720
632.60	0.715
632.79	0.714
632.98	0.715
633.17	0.716
633.36	0.718
633.55	0.715
633.75	0.709
633.94	0.711
634.13	0.712
634.32	0.711
634.51	0.705
634.70	0.707
634.89	0.706
635.09	0.703
635.28	0.704
635.47	0.704
635.66	0.706
635.85	0.704
636.04	0.705
636.23	0.709
636.43	0.709
636.62	0.709
636.81	0.706
637.00	0.708
637.19	0.711
637.38	0.708
637.57	0.707
637.76	0.708
637.95	0.709
638.15	0.706
638.34	0.703
638.53	0.706
638.72	0.708
638.91	0.707
639.10	0.706
639.29	0.705
639.48	0.707
639.67	0.708
639.87	0.707
640.06	0.712
640.25	0.712
640.44	0.712
640.63	0.713
640.82	0.714
641.01	0.714
641.20	0.714
641.39	0.716
641.58	0.717
641.78	0.715
641.97	0.711
642.16	0.725
642.35	0.725
642.54	0.724
642.73	0.719
642.92	0.717
643.11	0.720
643.30	0.720
643.49	0.715
643.68	0.718
643.87	0.718
644.06	0.719
644.25	0.700
644.45	0.703
644.64	0.703
644.83	0.703
645.02	0.701
645.21	0.701
645.40	0.702
645.59	0.703
645.78	0.697
645.97	0.700
646.16	0.701
646.35	0.699
646.54	0.698
646.73	0.700
646.92	0.702
647.11	0.701
647.30	0.698
647.49	0.700
647.68	0.699
647.88	0.698
648.07	0.691
648.26	0.695
648.45	0.697
648.64	0.694
648.83	0.691
649.02	0.694
649.21	0.703
649.40	0.701
649.59	0.695
649.78	0.696
649.97	0.710
650.16	0.710
650.35	0.704
650.54	0.706
650.73	0.714
650.92	0.710
651.11	0.704
651.30	0.702
651.49	0.707
651.68	0.708
651.87	0.705
652.06	0.694
652.25	0.697
652.44	0.700
652.63	0.700
652.82	0.701
653.01	0.702
653.20	0.701
653.39	0.690
653.58	0.687
653.77	0.687
653.96	0.682
654.15	0.675
654.34	0.673
654.53	0.668
654.72	0.661
654.91	0.652
655.10	0.647
655.29	0.645
655.48	0.643
655.67	0.637
655.86	0.634
656.05	0.632
656.24	0.631
656.43	0.626
656.62	0.625
656.81	0.624
657.00	0.620
657.19	0.617
657.38	0.616
657.57	0.614
657.76	0.616
657.95	0.614
658.14	0.617
658.33	0.619
658.51	0.624
658.70	0.624
658.89	0.625
659.08	0.634
659.27	0.642
659.46	0.643
659.65	0.650
659.84	0.653
660.03	0.656
660.22	0.658
660.41	0.662
660.60	0.661
660.79	0.664
660.98	0.671
661.17	0.670
661.36	0.669
661.55	0.670
661.74	0.668
661.92	0.670
662.11	0.672
662.30	0.670
662.49	0.664
662.68	0.663
662.87	0.666
663.06	0.660
663.25	0.661
663.44	0.662
663.63	0.663
663.82	0.661
664.01	0.656
664.20	0.655
664.38	0.656
664.57	0.658
664.76	0.657
664.95	0.658
665.14	0.663
665.33	0.658
665.52	0.665
665.71	0.668
665.90	0.669
666.09	0.670
666.28	0.668
666.46	0.667
666.65	0.667
666.84	0.666
667.03	0.660
667.22	0.658
667.41	0.661
667.60	0.651
667.79	0.644
667.98	0.645
668.16	0.645
668.35	0.645
668.54	0.641
668.73	0.642
668.92	0.643
669.11	0.642
669.30	0.637
669.49	0.633
669.67	0.635
669.86	0.638
670.05	0.635
670.24	0.633
670.43	0.632
670.62	0.631
670.81	0.627
671.00	0.627
671.18	0.627
671.37	0.627
671.56	0.625
671.75	0.624
671.94	0.620
672.13	0.618
672.32	0.614
672.50	0.613
672.69	0.612
672.88	0.613
673.07	0.609
673.26	0.611
673.45	0.612
673.63	0.612
673.82	0.609
674.01	0.611
674.20	0.610
674.39	0.610
674.58	0.609
674.76	0.610
674.95	0.608
675.14	0.608
675.33	0.604
675.52	0.602
675.71	0.602
675.89	0.601
676.08	0.598
676.27	0.597
676.46	0.598
676.65	0.597
676.84	0.597
677.02	0.598
677.21	0.600
677.40	0.598
677.59	0.596
677.78	0.596
677.96	0.599
678.15	0.597
678.34	0.596
678.53	0.596
678.72	0.596
678.90	0.592
679.09	0.588
679.28	0.585
679.47	0.585
679.66	0.585
679.84	0.582
680.03	0.579
680.22	0.578
680.41	0.579
680.60	0.576
680.78	0.575
680.97	0.577
681.16	0.578
681.35	0.577
681.53	0.576
681.72	0.577
681.91	0.579
682.10	0.577
682.29	0.580
682.47	0.577
682.66	0.575
682.85	0.574
683.04	0.573
683.22	0.572
683.41	0.574
683.60	0.572
683.79	0.573
683.97	0.573
684.16	0.572
684.35	0.568
684.54	0.570
684.72	0.572
684.91	0.572
685.10	0.571
685.29	0.572
685.47	0.569
685.66	0.569
685.85	0.566
686.04	0.565
686.22	0.567
686.41	0.569
686.60	0.566
686.79	0.569
686.97	0.570
687.16	0.571
687.35	0.569
687.54	0.572
687.72	0.575
687.91	0.575
688.10	0.577
688.29	0.577
688.47	0.575
688.66	0.575
688.85	0.572
689.03	0.570
689.22	0.575
689.41	0.575
689.60	0.571
689.78	0.568
689.97	0.569
690.16	0.566
690.34	0.562
690.53	0.561
690.72	0.560
690.91	0.558
691.09	0.556
691.28	0.550
691.47	0.548
691.65	0.546
691.84	0.544
692.03	0.543
692.21	0.540
692.40	0.540
692.59	0.538
692.77	0.537
692.96	0.538
693.15	0.539
693.34	0.536
693.52	0.537
693.71	0.538
693.90	0.539
694.08	0.539
694.27	0.540
694.46	0.549
694.64	0.550
694.83	0.550
695.02	0.549
695.20	0.549
695.39	0.549
695.58	0.549
695.76	0.549
695.95	0.548
696.14	0.548
696.32	0.545
696.51	0.536
696.70	0.536
696.88	0.537
697.07	0.536
697.26	0.537
697.44	0.538
697.63	0.537
697.81	0.535
698.00	0.534
698.19	0.534
698.37	0.535
698.56	0.534
698.75	0.534
698.93	0.533
699.12	0.532
699.31	0.531
699.49	0.530
699.68	0.531
699.87	0.534
700.05	0.534
700.24	0.533
700.42	0.534
700.61	0.533
700.80	0.532
700.98	0.533
701.17	0.534
701.36	0.533
701.54	0.533
701.73	0.534
701.91	0.532
702.10	0.532
702.29	0.530
702.47	0.530
702.66	0.531
702.84	0.533
703.03	0.531
703.22	0.532
703.40	0.532
703.59	0.533
703.77	0.532
703.96	0.532
704.15	0.532
704.33	0.532
704.52	0.531
704.70	0.530
704.89	0.530
705.08	0.528
705.26	0.524
705.45	0.524
705.63	0.523
705.82	0.521
706.00	0.519
706.19	0.519
706.38	0.519
706.56	0.518
706.75	0.516
706.93	0.515
707.12	0.516
707.30	0.517
707.49	0.514
707.68	0.512
707.86	0.512
708.05	0.511
708.23	0.508
708.42	0.509
708.60	0.511
708.79	0.511
708.98	0.510
709.16	0.509
709.35	0.510
709.53	0.514
709.72	0.513
709.90	0.515
710.09	0.517
710.27	0.519
710.46	0.522
710.64	0.521
710.83	0.523
711.02	0.524
711.20	0.524
711.39	0.523
711.57	0.521
711.76	0.522
711.94	0.520
712.13	0.521
712.31	0.520
712.50	0.516
712.68	0.513
712.87	0.514
713.05	0.515
713.24	0.515
713.42	0.515
713.61	0.515
713.79	0.515
713.98	0.517
714.16	0.518
714.35	0.517
714.54	0.518
714.72	0.519
714.91	0.517
715.09	0.522
715.28	0.524
715.46	0.524
715.65	0.522
715.83	0.521
716.02	0.523
716.20	0.519
716.39	0.519
716.57	0.519
716.76	0.522
716.94	0.522
717.12	0.514
717.31	0.516
717.49	0.518
717.68	0.520
717.86	0.521
718.05	0.522
718.23	0.525
718.42	0.528
718.60	0.529
718.79	0.535
718.97	0.538
719.16	0.537
719.34	0.535
719.53	0.535
719.71	0.536
719.90	0.536
720.08	0.533
720.27	0.533
720.45	0.533
720.63	0.532
720.82	0.526
721.00	0.529
721.19	0.533
721.37	0.532
721.56	0.532
721.74	0.534
721.93	0.542
722.11	0.548
722.30	0.547
722.48	0.550
722.66	0.551
722.85	0.551
723.03	0.551
723.22	0.549
723.40	0.552
723.59	0.552
723.77	0.556
723.95	0.550
724.14	0.553
724.32	0.555
724.51	0.555
724.69	0.556
724.88	0.556
725.06	0.554
725.24	0.555
725.43	0.557
725.61	0.558
725.80	0.552
725.98	0.550
726.16	0.547
726.35	0.552
726.53	0.551
726.72	0.550
726.90	0.561
727.09	0.562
727.27	0.568
727.45	0.565
727.64	0.574
727.82	0.582
728.01	0.587
728.19	0.585
728.37	0.588
728.56	0.592
728.74	0.598
728.92	0.587
729.11	0.588
729.29	0.585
729.48	0.587
729.66	0.577
729.84	0.577
730.03	0.579
730.21	0.581
730.40	0.572
730.58	0.572
730.76	0.572
730.95	0.574
731.13	0.576
731.31	0.590
731.50	0.599
731.68	0.603
731.86	0.600
732.05	0.613
732.23	0.616
732.42	0.620
732.60	0.624
732.78	0.630
732.97	0.647
733.15	0.652
733.33	0.641
733.52	0.648
733.70	0.657
733.88	0.666
734.07	0.654
734.25	0.679
734.43	0.686
734.62	0.687
734.80	0.683
734.98	0.672
735.17	0.679
735.35	0.684
735.53	0.673
735.72	0.675
735.90	0.694
736.08	0.711
736.27	0.689
736.45	0.699
736.63	0.709
736.82	0.718
737.00	0.719
737.18	0.727
737.37	0.756
737.55	0.778
737.73	0.776
737.92	0.779
738.10	0.776
738.28	0.795
738.46	0.784
738.65	0.797
738.83	0.816
739.01	0.866
739.20	0.860
739.38	0.844
739.56	0.835
739.75	0.836
739.93	0.804
740.11	0.826
740.29	0.824
740.48	0.832
740.66	0.814
740.84	0.808
741.03	0.773
741.21	0.782
741.39	0.765
741.57	0.779
741.76	0.790
741.94	0.796
742.12	0.766
742.31	0.771
742.49	0.785
742.67	0.804
742.85	0.818
743.04	0.825
743.22	0.831
743.40	0.879
743.58	0.859
743.77	0.877
743.95	0.909
744.13	0.953
744.31	0.936
744.50	0.931
744.68	0.928
744.86	0.906
745.04	0.916
745.23	0.977
745.41	0.956
745.59	0.960
745.77	0.931
745.96	0.922
746.14	0.925
746.32	0.927
746.50	0.924
746.69	0.908
746.87	0.916
747.05	0.898
747.23	0.829
747.42	0.815
747.60	0.838
747.78	0.842
747.96	0.864
748.14	0.829
748.33	0.847
748.51	0.841
748.69	0.836
748.87	0.858
749.06	0.854
749.24	0.856
749.42	0.849
749.60	0.834
749.78	0.842
749.97	0.805
750.15	0.795
750.33	0.800
750.51	0.819
750.69	0.825
750.88	0.831
751.06	0.840
751.24	0.861
751.42	0.857
751.60	0.851
751.79	0.913
751.97	0.950
752.15	0.953
752.33	0.925
752.51	0.985
752.69	0.996
752.88	0.966
753.06	1.007
753.24	0.983
753.42	1.006
753.60	1.150
753.78	1.033
753.97	1.049
754.15	1.063
754.33	1.085
754.51	0.977
754.69	0.966
754.87	0.987
755.06	0.931
755.24	0.938
755.42	0.945
755.60	0.851
755.78	0.860
755.96	0.812
756.15	0.813
756.33	0.819
756.51	0.839
756.69	0.826
756.87	0.797
757.05	0.809
757.23	0.793
757.42	0.763
757.60	0.765
757.78	0.751
757.96	0.751
758.14	0.736
758.32	0.722
758.50	0.732
758.69	0.731
758.87	0.725
759.05	0.730
759.23	0.736
759.41	0.739
759.59	0.732
759.77	0.753
759.95	0.777
760.13	0.822
760.32	0.820
760.50	0.814
760.68	0.836
760.86	0.837
761.04	0.815
761.22	0.822
761.40	0.864
761.58	0.867
761.76	0.842
761.95	0.823
762.13	0.781
762.31	0.782
762.49	0.757
762.67	0.771
762.85	0.781
763.03	0.774
763.21	0.756
763.39	0.736
763.57	0.735
763.75	0.729
763.94	0.717
764.12	0.720
764.30	0.739
764.48	0.743
764.66	0.713
764.84	0.711
765.02	0.744
765.20	0.751
765.38	0.737
765.56	0.743
765.74	0.779
765.92	0.781
766.10	0.788
766.28	0.782
766.46	0.802
766.65	0.804
766.83	0.795
767.01	0.779
767.19	0.783
767.37	0.782
767.55	0.771
767.73	0.753
767.91	0.754
768.09	0.741
768.27	0.732
768.45	0.727
768.63	0.729
768.81	0.729
768.99	0.709
769.17	0.730
769.35	0.742
769.53	0.741
769.71	0.724
769.89	0.728
770.07	0.734
770.25	0.719
770.43	0.701
770.61	0.720
770.79	0.728
770.97	0.737
771.15	0.712
771.33	0.713
771.51	0.715
771.69	0.727
771.87	0.737
772.05	0.740
772.24	0.745
772.42	0.753
772.60	0.733
772.78	0.784
772.96	0.809
773.14	0.803
773.32	0.786
773.49	0.790
773.67	0.785
773.85	0.767
774.03	0.758
774.21	0.789
774.39	0.796
774.57	0.820
774.75	0.756
774.93	0.748
775.11	0.768
775.29	0.773
775.47	0.777
775.65	0.785
775.83	0.800
776.01	0.823
776.19	0.780
776.37	0.784
776.55	0.782
776.73	0.778
776.91	0.775
777.09	0.759
777.27	0.754
777.45	0.743
777.63	0.724
777.81	0.723
777.99	0.710
778.17	0.709
778.35	0.691
778.53	0.679
778.71	0.685
778.89	0.674
779.07	0.665
779.24	0.671
779.42	0.674
779.60	0.691
779.78	0.689
779.96	0.690
780.14	0.695
780.32	0.713
780.50	0.699
780.68	0.696
780.86	0.690
781.04	0.705
781.22	0.710
781.40	0.717
781.58	0.708
781.75	0.699
781.93	0.686
782.11	0.686
782.29	0.673
782.47	0.673
782.65	0.664
782.83	0.688
783.01	0.682
783.19	0.677
783.37	0.665
783.55	0.666
783.72	0.682
783.90	0.693
784.08	0.687
784.26	0.697
784.44	0.715
784.62	0.718
784.80	0.687
784.98	0.692
785.16	0.694
785.33	0.705
785.51	0.694
785.69	0.682
785.87	0.682
786.05	0.691
786.23	0.689
786.41	0.687
786.59	0.692
786.77	0.696
786.94	0.686
787.12	0.690
787.30	0.694
787.48	0.692
787.66	0.682
787.84	0.682
788.02	0.673
788.19	0.671
788.37	0.659
788.55	0.661
788.73	0.659
788.91	0.654
789.09	0.639
789.27	0.627
789.44	0.637
789.62	0.643
789.80	0.652
789.98	0.673
790.16	0.660
790.34	0.655
790.51	0.645
790.69	0.662
790.87	0.665
791.05	0.664
791.23	0.661
791.41	0.662
791.58	0.668
791.76	0.648
791.94	0.622
792.12	0.631
792.30	0.635
792.48	0.631
792.65	0.625
792.83	0.632
793.01	0.637
793.19	0.634
793.37	0.620
793.54	0.615
793.72	0.625
793.90	0.625
794.08	0.615
794.26	0.615
794.43	0.624
794.61	0.609
794.79	0.599
794.97	0.598
795.15	0.601
795.32	0.606
795.50	0.598
795.68	0.593
795.86	0.594
796.04	0.596
796.21	0.590
796.39	0.587
796.57	0.600
796.75	0.608
796.92	0.609
797.10	0.616
797.28	0.617
797.46	0.620
797.64	0.623
797.81	0.631
797.99	0.635
798.17	0.638
798.35	0.635
798.52	0.638
798.70	0.633
798.88	0.640
799.06	0.640
799.23	0.644
799.41	0.651
799.59	0.643
799.77	0.634
799.94	0.642
800.12	0.650
800.30	0.665
800.48	0.666
800.65	0.666
800.83	0.655
801.01	0.647
801.19	0.646
801.36	0.640
801.54	0.642
801.72	0.652
801.90	0.639
802.07	0.635
802.25	0.620
802.43	0.603
802.60	0.598
802.78	0.607
802.96	0.610
803.14	0.606
803.31	0.607
803.49	0.608
803.67	0.604
803.84	0.610
804.02	0.603
804.20	0.606
804.38	0.612
804.55	0.613
804.73	0.599
804.91	0.599
805.08	0.609
805.26	0.606
805.44	0.667
805.61	0.668
805.79	0.667
805.97	0.666
806.15	0.659
806.32	0.653
806.50	0.657
806.68	0.660
806.85	0.653
807.03	0.645
807.21	0.656
807.38	0.593
807.56	0.585
807.74	0.594
807.91	0.600
808.09	0.602
808.27	0.621
808.44	0.645
808.62	0.651
808.80	0.653
808.97	0.647
809.15	0.645
809.33	0.660
809.50	0.665
809.68	0.653
809.86	0.660
810.03	0.689
810.21	0.668
810.39	0.653
810.56	0.658
810.74	0.678
810.91	0.745
811.09	0.735
811.27	0.757
811.44	0.763
811.62	0.765
811.80	0.752
811.97	0.724
812.15	0.724
812.33	0.720
812.50	0.710
812.68	0.698
812.85	0.645
813.03	0.648
813.21	0.617
813.38	0.613
813.56	0.615
813.74	0.626
813.91	0.633
814.09	0.660
814.26	0.652
814.44	0.655
814.62	0.647
814.79	0.650
814.97	0.653
815.14	0.657
815.32	0.661
815.50	0.676
815.67	0.677
815.85	0.669
816.02	0.659
816.20	0.665
816.38	0.677
816.55	0.681
816.73	0.680
816.90	0.685
817.08	0.713
817.26	0.714
817.43	0.698
817.61	0.719
817.78	0.737
817.96	0.719
818.13	0.711
818.31	0.710
818.49	0.722
818.66	0.714
818.84	0.706
819.01	0.685
819.19	0.689
819.36	0.688
819.54	0.661
819.71	0.696
819.89	0.709
820.07	0.720
820.24	0.719
820.42	0.719
820.59	0.733
820.77	0.754
820.94	0.749
821.12	0.766
821.29	0.781
821.47	0.783
821.64	0.726
821.82	0.736
822.00	0.731
822.17	0.728
822.35	0.719
822.52	0.723
822.70	0.712
822.87	0.721
823.05	0.703
823.22	0.716
823.40	0.739
823.57	0.761
823.75	0.747
823.92	0.773
824.10	0.790
824.27	0.835
824.45	0.826
824.62	0.882
824.80	0.894
824.97	0.905
825.15	0.894
825.32	0.905
825.50	0.908
825.67	0.916
825.85	0.894
826.02	0.905
826.20	0.914
826.37	1.017
826.55	0.948
826.72	1.101
826.90	1.156
827.07	1.189
827.25	1.145
827.42	1.264
827.60	1.353
827.77	1.461
827.95	1.483
828.12	1.577
828.30	1.327
828.47	1.438
828.65	1.157
828.82	1.201
829.00	1.252
829.17	1.347
829.34	1.358
829.52	1.436
829.69	-0.000
829.87	-0.000
830.04	-0.000
830.22	-0.000
830.39	-0.000
830.57	-0.000
830.74	-0.000
830.92	-0.000
831.09	-0.000
831.26	-0.000
831.44	-0.000
831.61	-0.000
831.79	-0.000
831.96	-0.000
832.14	-0.000
832.31	-0.000
832.49	-0.000
832.66	-0.000
832.83	-0.000
833.01	-0.000
833.18	-0.000
833.36	-0.000
833.53	-0.000
833.70	-0.000
833.88	-0.000
834.05	-0.000
834.23	-0.000
834.40	-0.000
834.58	-0.000
834.75	-0.000
834.92	-0.000
835.10	-0.000
835.27	-0.000
835.45	-0.000
835.62	-0.000
835.79	-0.000
835.97	-0.000
836.14	-0.000
836.32	-0.000
836.49	-0.000
836.66	-0.000
836.84	-0.000
837.01	-0.000
837.18	-0.000
837.36	-0.000
837.53	-0.000
837.71	-0.000
837.88	-0.000
838.05	-0.000
838.23	-0.000
838.40	-0.000
838.58	-0.000
838.75	-0.000
838.92	-0.000
839.10	-0.000
839.27	-0.000
839.44	-0.000
839.62	-0.000
839.79	-0.000
839.96	-0.000
840.14	-0.000
840.31	-0.000
840.48	-0.000
840.66	-0.000
840.83	-0.000
841.01	-0.000
841.18	-0.000
841.35	-0.000
841.53	-0.000
841.70	-0.000
841.87	-0.000
842.05	-0.000
842.22	-0.000
842.39	-0.000
842.57	-0.000
842.74	-0.000
842.91	-0.000
843.09	-0.000
843.26	-0.000
843.43	-0.000
843.60	-0.000
843.78	-0.000
843.95	-0.000
844.12	-0.000
844.30	-0.000
844.47	-0.000
844.64	-0.000
844.82	-0.000
844.99	-0.000
845.16	-0.000
845.34	-0.000
845.51	-0.000
845.68	-0.000
845.85	-0.000
846.03	-0.000
846.20	-0.000
846.37	-0.000
846.55	-0.000
846.72	-0.000
846.89	-0.000
847.06	-0.000
847.24	-0.000
847.41	-0.000
847.58	-0.000
847.76	-0.000
847.93	-0.000
848.10	-0.000
848.27	-0.000
848.45	-0.000
848.62	-0.000
848.79	-0.000
848.97	-0.000
849.14	-0.000
849.31	-0.000
849.48	-0.000
849.66	-0.000
849.83	-0.000
850.00	-0.000
850.17	-0.000
850.35	-0.000
850.52	-0.000
850.69	-0.000
850.86	-0.000
851.04	-0.000
851.21	-0.000
851.38	-0.000
851.55	-0.000
851.72	-0.000
851.90	-0.000
852.07	-0.000
852.24	-0.000
852.41	-0.000
852.59	-0.000
852.76	-0.000
852.93	-0.000
853.10	-0.000
853.28	-0.000
853.45	-0.000
853.62	-0.000
853.79	-0.000
853.96	-0.000
854.14	-0.000
854.31	-0.000
854.48	-0.000
854.65	-0.000
854.82	-0.000
855.00	-0.000
855.17	-0.000
855.34	-0.000
855.51	-0.000
855.68	-0.000
855.86	-0.000
856.03	-0.000
856.20	-0.000
856.37	-0.000
856.54	-0.000
856.72	-0.000
856.89	-0.000
857.06	-0.000
857.23	-0.000
857.40	-0.000
857.57	-0.000
857.75	-0.000
857.92	-0.000
858.09	-0.000
858.26	-0.000
858.43	-0.000
858.60	-0.000
858.78	-0.000
858.95	-0.000
859.12	-0.000
859.29	-0.000
859.46	-0.000
859.63	-0.000
859.81	-0.000
859.98	-0.000
860.15	-0.000
860.32	-0.000
860.49	-0.000
860.66	-0.000
860.83	-0.000
861.01	-0.000
861.18	-0.000
861.35	-0.000
861.52	-0.000
861.69	-0.000
861.86	-0.000
862.03	-0.000
862.21	-0.000
862.38	-0.000
862.55	-0.000
862.72	-0.000
862.89	-0.000
863.06	-0.000
863.23	-0.000
863.40	-0.000
863.58	-0.000
863.75	-0.000
863.92	-0.000
864.09	-0.000
864.26	-0.000
864.43	-0.000
864.60	-0.000
864.77	-0.000
864.94	-0.000
865.11	-0.000
865.29	-0.000
865.46	-0.000
865.63	-0.000
865.80	-0.000
865.97	-0.000
866.14	-0.000
866.31	-0.000
866.48	-0.000
866.65	-0.000
866.82	-0.000
866.99	-0.000
867.16	-0.000
867.34	-0.000
867.51	-0.000
867.68	-0.000
867.85	-0.000
868.02	-0.000
868.19	-0.000
868.36	-0.000
868.53	-0.000
868.70	-0.000
868.87	-0.000
869.04	-0.000
869.21	-0.000
869.38	-0.000
869.55	-0.000
869.72	-0.000
869.89	-0.000
870.06	-0.000
870.24	-0.000
870.41	-0.000
870.58	-0.000
870.75	-0.000
870.92	-0.000
871.09	-0.000
871.26	-0.000
871.43	-0.000
871.60	-0.000
871.77	-0.000
871.94	-0.000
872.11	-0.000
872.28	-0.000
872.45	-0.000
872.62	-0.000
872.79	-0.000
872.96	-0.000
873.13	-0.000
873.30	-0.000
873.47	-0.000
873.64	-0.000
873.81	-0.000
873.98	-0.000
874.15	-0.000
874.32	-0.000
874.49	-0.000
874.66	-0.000
874.83	-0.000
875.00	-0.000
875.17	-0.000
875.34	-0.000
875.51	-0.000
875.68	-0.000
875.85	-0.000
876.02	-0.000
876.19	-0.000
876.36	-0.000
876.53	-0.000
876.70	-0.000
876.87	-0.000
877.04	-0.000
877.21	-0.000
877.38	-0.000
877.55	-0.000
877.72	-0.000
877.89	-0.000
878.06	-0.000
878.23	-0.000
878.39	-0.000
878.56	-0.000
878.73	-0.000
878.90	-0.000
879.07	-0.000
879.24	-0.000
879.41	-0.000
879.58	-0.000
879.75	-0.000
879.92	-0.000
880.09	-0.000
880.26	-0.000
880.43	-0.000
880.60	-0.000
880.77	-0.000
880.94	-0.000
881.11	-0.000
881.27	-0.000
881.44	-0.000
881.61	-0.000
881.78	-0.000
881.95	-0.000
882.12	-0.000
882.29	-0.000
882.46	-0.000
882.63	-0.000
882.80	-0.000
882.97	-0.000
883.14	-0.000
883.30	-0.000
883.47	-0.000
883.64	-0.000
883.81	-0.000
883.98	-0.000
884.15	-0.000
884.32	-0.000
884.49	-0.000
884.66	-0.000
884.82	-0.000
884.99	-0.000
885.16	-0.000
885.33	-0.000
885.50	-0.000
885.67	-0.000
885.84	-0.000
886.01	-0.000
886.17	-0.000
886.34	-0.000
886.51	-0.000
886.68	-0.000
886.85	-0.000
887.02	-0.000
887.19	-0.000
887.36	-0.000
887.52	-0.000
887.69	-0.000
887.86	-0.000
888.03	-0.000
888.20	-0.000
888.37	-0.000
888.54	-0.000
888.70	-0.000
888.87	-0.000
889.04	-0.000
889.21	-0.000
889.38	-0.000
889.55	-0.000
889.71	-0.000
889.88	-0.000
890.05	-0.000
890.22	-0.000
890.39	-0.000
>>>>>End Processed Spectral Data<<<<<
