SpectraSuite Data File
++++++++++++++++++++++++++++++++++++
Date: Fri Jun 19 15:53:58 CEST 2015
User: introlabs
Dark Spectrum Present: Yes
Reference Spectrum Present: Yes
Number of Sampled Component Spectra: 1
Spectrometers: USB4H08886
Integration Time (usec): 745692 (USB4H08886)
Spectra Averaged: 5 (USB4H08886)
Boxcar Smoothing: 5 (USB4H08886)
Correct for Electrical Dark: Yes (USB4H08886)
Strobe/Lamp Enabled: No (USB4H08886)
Correct for Detector Non-linearity: Yes (USB4H08886)
Correct for Stray Light: Yes (USB4H08886)
Number of Pixels in Processed Spectrum: 3648
>>>>>Begin Processed Spectral Data<<<<<
178.14	-0.000
178.36	-0.000
178.57	-0.000
178.79	-0.000
179.01	-0.000
179.22	-0.000
179.44	-0.000
179.65	-0.000
179.87	-0.000
180.08	-0.000
180.30	-0.000
180.52	-0.000
180.73	-0.000
180.95	-0.000
181.16	-0.000
181.38	-0.000
181.59	-0.000
181.81	-0.000
182.03	-0.000
182.24	-0.000
182.46	-0.000
182.67	-0.000
182.89	-0.000
183.10	-0.000
183.32	-0.000
183.54	-0.000
183.75	-0.000
183.97	-0.000
184.18	-0.000
184.40	-0.000
184.61	-0.000
184.83	-0.000
185.04	-0.000
185.26	-0.000
185.48	-0.000
185.69	-0.000
185.91	-0.000
186.12	-0.000
186.34	-0.000
186.55	-0.000
186.77	-0.000
186.98	-0.000
187.20	-0.000
187.42	-0.000
187.63	-0.000
187.85	-0.000
188.06	-0.000
188.28	-0.000
188.49	-0.000
188.71	-0.000
188.92	-0.000
189.14	-0.000
189.36	-0.000
189.57	-0.000
189.79	-0.000
190.00	-0.000
190.22	-0.000
190.43	-0.000
190.65	-0.000
190.86	-0.000
191.08	-0.000
191.29	-0.000
191.51	-0.000
191.72	-0.000
191.94	-0.000
192.16	-0.000
192.37	-0.000
192.59	-0.000
192.80	-0.000
193.02	-0.000
193.23	-0.000
193.45	-0.000
193.66	-0.000
193.88	-0.000
194.09	-0.000
194.31	-0.000
194.52	-0.000
194.74	-0.000
194.95	-0.000
195.17	-0.000
195.38	-0.000
195.60	-0.000
195.81	-0.000
196.03	-0.000
196.25	-0.000
196.46	-0.000
196.68	-0.000
196.89	-0.000
197.11	-0.000
197.32	-0.000
197.54	-0.000
197.75	-0.000
197.97	-0.000
198.18	-0.000
198.40	-0.000
198.61	-0.000
198.83	-0.000
199.04	-0.000
199.26	-0.000
199.47	-0.000
199.69	-0.000
199.90	-0.000
200.12	-0.000
200.33	-0.000
200.55	-0.000
200.76	-0.000
200.98	-0.000
201.19	-0.000
201.41	-0.000
201.62	-0.000
201.84	-0.000
202.05	-0.000
202.27	-0.000
202.48	-0.000
202.70	-0.000
202.91	-0.000
203.13	-0.000
203.34	-0.000
203.56	-0.000
203.77	-0.000
203.99	-0.000
204.20	-0.000
204.42	-0.000
204.63	-0.000
204.85	-0.000
205.06	-0.000
205.28	-0.000
205.49	-0.000
205.71	-0.000
205.92	-0.000
206.14	-0.000
206.35	-0.000
206.56	-0.000
206.78	-0.000
206.99	-0.000
207.21	-0.000
207.42	-0.000
207.64	-0.000
207.85	-0.000
208.07	-0.000
208.28	-0.000
208.50	-0.000
208.71	-0.000
208.93	-0.000
209.14	-0.000
209.36	-0.000
209.57	-0.000
209.79	-0.000
210.00	-0.000
210.22	-0.000
210.43	-0.000
210.64	-0.000
210.86	-0.000
211.07	-0.000
211.29	-0.000
211.50	-0.000
211.72	-0.000
211.93	-0.000
212.15	-0.000
212.36	-0.000
212.58	-0.000
212.79	-0.000
213.01	-0.000
213.22	-0.000
213.43	-0.000
213.65	-0.000
213.86	-0.000
214.08	-0.000
214.29	-0.000
214.51	-0.000
214.72	-0.000
214.94	-0.000
215.15	-0.000
215.36	-0.000
215.58	-0.000
215.79	-0.000
216.01	-0.000
216.22	-0.000
216.44	-0.000
216.65	-0.000
216.87	-0.000
217.08	-0.000
217.29	-0.000
217.51	-0.000
217.72	-0.000
217.94	-0.000
218.15	-0.000
218.37	-0.000
218.58	-0.000
218.80	-0.000
219.01	-0.000
219.22	-0.000
219.44	-0.000
219.65	-0.000
219.87	-0.000
220.08	-0.000
220.30	-0.000
220.51	-0.000
220.72	-0.000
220.94	-0.000
221.15	-0.000
221.37	-0.000
221.58	-0.000
221.79	-0.000
222.01	-0.000
222.22	-0.000
222.44	-0.000
222.65	-0.000
222.87	-0.000
223.08	-0.000
223.29	-0.000
223.51	-0.000
223.72	-0.000
223.94	-0.000
224.15	-0.000
224.36	-0.000
224.58	-0.000
224.79	-0.000
225.01	-0.000
225.22	-0.000
225.44	-0.000
225.65	-0.000
225.86	-0.000
226.08	-0.000
226.29	-0.000
226.51	-0.000
226.72	-0.000
226.93	-0.000
227.15	-0.000
227.36	-0.000
227.58	-0.000
227.79	-0.000
228.00	-0.000
228.22	-0.000
228.43	-0.000
228.65	-0.000
228.86	-0.000
229.07	-0.000
229.29	-0.000
229.50	-0.000
229.72	-0.000
229.93	-0.000
230.14	-0.000
230.36	-0.000
230.57	-0.000
230.78	-0.000
231.00	-0.000
231.21	-0.000
231.43	-0.000
231.64	-0.000
231.85	-0.000
232.07	-0.000
232.28	-0.000
232.50	-0.000
232.71	-0.000
232.92	-0.000
233.14	-0.000
233.35	-0.000
233.56	-0.000
233.78	-0.000
233.99	-0.000
234.21	-0.000
234.42	-0.000
234.63	-0.000
234.85	-0.000
235.06	-0.000
235.27	-0.000
235.49	-0.000
235.70	-0.000
235.91	-0.000
236.13	-0.000
236.34	-0.000
236.56	-0.000
236.77	-0.000
236.98	-0.000
237.20	-0.000
237.41	-0.000
237.62	-0.000
237.84	-0.000
238.05	-0.000
238.26	-0.000
238.48	-0.000
238.69	-0.000
238.91	-0.000
239.12	-0.000
239.33	-0.000
239.55	-0.000
239.76	-0.000
239.97	-0.000
240.19	-0.000
240.40	-0.000
240.61	-0.000
240.83	-0.000
241.04	-0.000
241.25	-0.000
241.47	-0.000
241.68	-0.000
241.89	-0.000
242.11	-0.000
242.32	-0.000
242.53	-0.000
242.75	-0.000
242.96	-0.000
243.17	-0.000
243.39	-0.000
243.60	-0.000
243.81	-0.000
244.03	-0.000
244.24	-0.000
244.45	-0.000
244.67	-0.000
244.88	-0.000
245.09	-0.000
245.31	-0.000
245.52	-0.000
245.73	-0.000
245.95	-0.000
246.16	-0.000
246.37	-0.000
246.59	-0.000
246.80	-0.000
247.01	-0.000
247.23	-0.000
247.44	-0.000
247.65	-0.000
247.87	-0.000
248.08	-0.000
248.29	-0.000
248.51	-0.000
248.72	-0.000
248.93	-0.000
249.15	-0.000
249.36	-0.000
249.57	-0.000
249.78	-0.000
250.00	-0.000
250.21	-0.000
250.42	-0.000
250.64	-0.000
250.85	-0.000
251.06	-0.000
251.28	-0.000
251.49	-0.000
251.70	-0.000
251.92	-0.000
252.13	-0.000
252.34	-0.000
252.55	-0.000
252.77	-0.000
252.98	-0.000
253.19	-0.000
253.41	-0.000
253.62	-0.000
253.83	-0.000
254.05	-0.000
254.26	-0.000
254.47	-0.000
254.68	-0.000
254.90	-0.000
255.11	-0.000
255.32	-0.000
255.54	-0.000
255.75	-0.000
255.96	-0.000
256.17	-0.000
256.39	-0.000
256.60	-0.000
256.81	-0.000
257.03	-0.000
257.24	-0.000
257.45	-0.000
257.66	-0.000
257.88	-0.000
258.09	-0.000
258.30	-0.000
258.51	-0.000
258.73	-0.000
258.94	-0.000
259.15	-0.000
259.37	-0.000
259.58	-0.000
259.79	-0.000
260.00	-0.000
260.22	-0.000
260.43	-0.000
260.64	-0.000
260.85	-0.000
261.07	-0.000
261.28	-0.000
261.49	-0.000
261.71	-0.000
261.92	-0.000
262.13	-0.000
262.34	-0.000
262.56	-0.000
262.77	-0.000
262.98	-0.000
263.19	-0.000
263.41	-0.000
263.62	-0.000
263.83	-0.000
264.04	-0.000
264.26	-0.000
264.47	-0.000
264.68	-0.000
264.89	-0.000
265.11	-0.000
265.32	-0.000
265.53	-0.000
265.74	-0.000
265.96	-0.000
266.17	-0.000
266.38	-0.000
266.59	-0.000
266.81	-0.000
267.02	-0.000
267.23	-0.000
267.44	-0.000
267.65	-0.000
267.87	-0.000
268.08	-0.000
268.29	-0.000
268.50	-0.000
268.72	-0.000
268.93	-0.000
269.14	-0.000
269.35	-0.000
269.57	-0.000
269.78	-0.000
269.99	-0.000
270.20	-0.000
270.41	-0.000
270.63	-0.000
270.84	-0.000
271.05	-0.000
271.26	-0.000
271.48	-0.000
271.69	-0.000
271.90	-0.000
272.11	-0.000
272.32	-0.000
272.54	-0.000
272.75	-0.000
272.96	-0.000
273.17	-0.000
273.39	-0.000
273.60	-0.000
273.81	-0.000
274.02	-0.000
274.23	-0.000
274.45	-0.000
274.66	-0.000
274.87	-0.000
275.08	-0.000
275.29	-0.000
275.51	-0.000
275.72	-0.000
275.93	-0.000
276.14	-0.000
276.35	-0.000
276.57	-0.000
276.78	-0.000
276.99	-0.000
277.20	-0.000
277.41	-0.000
277.63	-0.000
277.84	-0.000
278.05	-0.000
278.26	-0.000
278.47	-0.000
278.69	-0.000
278.90	-0.000
279.11	-0.000
279.32	-0.000
279.53	-0.000
279.74	-0.000
279.96	-0.000
280.17	-0.000
280.38	-0.000
280.59	-0.000
280.80	-0.000
281.02	-0.000
281.23	-0.000
281.44	-0.000
281.65	-0.000
281.86	-0.000
282.07	-0.000
282.29	-0.000
282.50	-0.000
282.71	-0.000
282.92	-0.000
283.13	-0.000
283.35	-0.000
283.56	-0.000
283.77	-0.000
283.98	-0.000
284.19	-0.000
284.40	-0.000
284.62	-0.000
284.83	-0.000
285.04	-0.000
285.25	-0.000
285.46	-0.000
285.67	-0.000
285.88	-0.000
286.10	-0.000
286.31	-0.000
286.52	-0.000
286.73	-0.000
286.94	-0.000
287.15	-0.000
287.37	-0.000
287.58	-0.000
287.79	-0.000
288.00	-0.000
288.21	-0.000
288.42	-0.000
288.63	-0.000
288.85	-0.000
289.06	-0.000
289.27	-0.000
289.48	-0.000
289.69	-0.000
289.90	-0.000
290.11	-0.000
290.33	-0.000
290.54	-0.000
290.75	-0.000
290.96	-0.000
291.17	-0.000
291.38	-0.000
291.59	-0.000
291.81	-0.000
292.02	-0.000
292.23	-0.000
292.44	-0.000
292.65	-0.000
292.86	-0.000
293.07	-0.000
293.28	-0.000
293.50	-0.000
293.71	-0.000
293.92	-0.000
294.13	-0.000
294.34	-0.000
294.55	-0.000
294.76	-0.000
294.97	-0.000
295.19	-0.000
295.40	-0.000
295.61	-0.000
295.82	-0.000
296.03	-0.000
296.24	-0.000
296.45	2.110
296.66	1.780
296.87	1.809
297.09	1.863
297.30	2.064
297.51	1.724
297.72	1.693
297.93	1.776
298.14	1.736
298.35	1.700
298.56	1.683
298.77	1.788
298.99	1.766
299.20	1.746
299.41	1.722
299.62	1.659
299.83	1.647
300.04	1.597
300.25	1.589
300.46	1.620
300.67	1.602
300.88	1.564
301.10	1.570
301.31	1.633
301.52	1.570
301.73	1.527
301.94	1.530
302.15	1.542
302.36	1.497
302.57	1.441
302.78	1.447
302.99	1.481
303.20	1.499
303.41	1.417
303.63	1.402
303.84	1.407
304.05	1.402
304.26	1.352
304.47	1.354
304.68	1.354
304.89	1.344
305.10	1.311
305.31	1.297
305.52	1.337
305.73	1.329
305.94	1.291
306.15	1.283
306.37	1.301
306.58	1.308
306.79	1.284
307.00	1.307
307.21	1.345
307.42	1.337
307.63	1.305
307.84	1.274
308.05	1.309
308.26	1.312
308.47	1.294
308.68	1.290
308.89	1.284
309.10	1.282
309.31	1.242
309.52	1.232
309.73	1.244
309.95	1.238
310.16	1.212
310.37	1.200
310.58	1.215
310.79	1.213
311.00	1.211
311.21	1.212
311.42	1.213
311.63	1.210
311.84	1.191
312.05	1.187
312.26	1.207
312.47	1.217
312.68	1.197
312.89	1.178
313.10	1.181
313.31	1.155
313.52	1.162
313.73	1.160
313.94	1.159
314.15	1.143
314.36	1.126
314.57	1.120
314.78	1.106
314.99	1.101
315.21	1.092
315.42	1.098
315.63	1.108
315.84	1.086
316.05	1.076
316.26	1.083
316.47	1.098
316.68	1.095
316.89	1.078
317.10	1.100
317.31	1.102
317.52	1.104
317.73	1.085
317.94	1.082
318.15	1.122
318.36	1.122
318.57	1.109
318.78	1.100
318.99	1.132
319.20	1.131
319.41	1.095
319.62	1.098
319.83	1.110
320.04	1.107
320.25	1.097
320.46	1.063
320.67	1.063
320.88	1.058
321.09	1.045
321.30	1.031
321.51	1.043
321.72	1.043
321.93	1.028
322.14	1.020
322.35	1.045
322.56	1.047
322.77	1.034
322.98	1.047
323.19	1.054
323.40	1.061
323.61	1.040
323.82	1.033
324.03	1.037
324.24	1.036
324.45	1.024
324.66	1.005
324.87	0.999
325.08	1.000
325.29	0.982
325.50	0.974
325.71	0.976
325.92	0.984
326.13	0.972
326.34	0.972
326.55	0.977
326.76	0.976
326.97	0.967
327.18	0.962
327.39	0.984
327.60	0.986
327.80	0.989
328.01	0.986
328.22	0.985
328.43	0.989
328.64	0.981
328.85	0.986
329.06	0.987
329.27	0.988
329.48	0.985
329.69	0.967
329.90	0.977
330.11	0.970
330.32	0.966
330.53	0.959
330.74	0.957
330.95	0.953
331.16	0.940
331.37	0.948
331.58	0.947
331.79	0.946
332.00	0.940
332.21	0.932
332.42	0.935
332.63	0.925
332.83	0.923
333.04	0.925
333.25	0.936
333.46	0.934
333.67	0.920
333.88	0.921
334.09	0.930
334.30	0.926
334.51	0.919
334.72	0.914
334.93	0.917
335.14	0.916
335.35	0.910
335.56	0.905
335.77	0.913
335.98	0.913
336.18	0.908
336.39	0.900
336.60	0.904
336.81	0.902
337.02	0.902
337.23	0.905
337.44	0.907
337.65	0.908
337.86	0.899
338.07	0.894
338.28	0.897
338.49	0.896
338.70	0.891
338.91	0.896
339.11	0.903
339.32	0.900
339.53	0.889
339.74	0.886
339.95	0.882
340.16	0.880
340.37	0.873
340.58	0.871
340.79	0.873
341.00	0.872
341.21	0.863
341.41	0.862
341.62	0.862
341.83	0.863
342.04	0.860
342.25	0.871
342.46	0.875
342.67	0.873
342.88	0.867
343.09	0.867
343.30	0.874
343.50	0.877
343.71	0.869
343.92	0.868
344.13	0.870
344.34	0.870
344.55	0.854
344.76	0.853
344.97	0.858
345.18	0.856
345.38	0.854
345.59	0.848
345.80	0.847
346.01	0.846
346.22	0.843
346.43	0.838
346.64	0.844
346.85	0.844
347.06	0.839
347.26	0.838
347.47	0.841
347.68	0.838
347.89	0.835
348.10	0.829
348.31	0.834
348.52	0.833
348.73	0.832
348.93	0.828
349.14	0.830
349.35	0.829
349.56	0.824
349.77	0.820
349.98	0.824
350.19	0.821
350.39	0.817
350.60	0.813
350.81	0.828
351.02	0.827
351.23	0.824
351.44	0.825
351.65	0.827
351.86	0.823
352.06	0.822
352.27	0.822
352.48	0.822
352.69	0.821
352.90	0.817
353.11	0.803
353.31	0.809
353.52	0.806
353.73	0.799
353.94	0.801
354.15	0.805
354.36	0.806
354.57	0.798
354.77	0.800
354.98	0.800
355.19	0.800
355.40	0.801
355.61	0.807
355.82	0.810
356.02	0.809
356.23	0.803
356.44	0.804
356.65	0.806
356.86	0.806
357.07	0.801
357.27	0.804
357.48	0.805
357.69	0.799
357.90	0.784
358.11	0.780
358.32	0.783
358.52	0.787
358.73	0.778
358.94	0.781
359.15	0.785
359.36	0.786
359.56	0.782
359.77	0.779
359.98	0.786
360.19	0.786
360.40	0.784
360.61	0.784
360.81	0.782
361.02	0.782
361.23	0.774
361.44	0.773
361.65	0.773
361.85	0.773
362.06	0.771
362.27	0.774
362.48	0.774
362.69	0.776
362.89	0.771
363.10	0.773
363.31	0.777
363.52	0.781
363.73	0.776
363.93	0.776
364.14	0.777
364.35	0.779
364.56	0.768
364.77	0.769
364.97	0.771
365.18	0.772
365.39	0.767
365.60	0.763
365.81	0.763
366.01	0.763
366.22	0.759
366.43	0.758
366.64	0.759
366.84	0.764
367.05	0.762
367.26	0.762
367.47	0.763
367.68	0.763
367.88	0.761
368.09	0.759
368.30	0.761
368.51	0.761
368.71	0.762
368.92	0.765
369.13	0.763
369.34	0.761
369.55	0.761
369.75	0.760
369.96	0.766
370.17	0.766
370.38	0.764
370.58	0.763
370.79	0.768
371.00	0.765
371.21	0.758
371.41	0.762
371.62	0.766
371.83	0.762
372.04	0.760
372.24	0.754
372.45	0.754
372.66	0.754
372.87	0.753
373.07	0.750
373.28	0.751
373.49	0.755
373.70	0.746
373.90	0.746
374.11	0.754
374.32	0.754
374.53	0.754
374.73	0.755
374.94	0.757
375.15	0.758
375.36	0.756
375.56	0.765
375.77	0.764
375.98	0.764
376.19	0.761
376.39	0.754
376.60	0.756
376.81	0.757
377.02	0.754
377.22	0.752
377.43	0.751
377.64	0.751
377.84	0.741
378.05	0.746
378.26	0.752
378.47	0.751
378.67	0.749
378.88	0.747
379.09	0.746
379.30	0.746
379.50	0.744
379.71	0.746
379.92	0.748
380.12	0.748
380.33	0.740
380.54	0.737
380.75	0.743
380.95	0.744
381.16	0.743
381.37	0.744
381.57	0.745
381.78	0.746
381.99	0.747
382.20	0.746
382.40	0.748
382.61	0.749
382.82	0.745
383.02	0.739
383.23	0.742
383.44	0.741
383.64	0.739
383.85	0.741
384.06	0.744
384.27	0.741
384.47	0.740
384.68	0.741
384.89	0.746
385.09	0.746
385.30	0.746
385.51	0.745
385.71	0.748
385.92	0.749
386.13	0.748
386.33	0.751
386.54	0.751
386.75	0.751
386.95	0.747
387.16	0.743
387.37	0.746
387.58	0.745
387.78	0.744
387.99	0.741
388.20	0.744
388.40	0.741
388.61	0.737
388.82	0.740
389.02	0.741
389.23	0.742
389.44	0.740
389.64	0.740
389.85	0.752
390.06	0.752
390.26	0.752
390.47	0.751
390.68	0.753
390.88	0.752
391.09	0.747
391.30	0.747
391.50	0.747
391.71	0.747
391.92	0.744
392.12	0.736
392.33	0.736
392.53	0.736
392.74	0.737
392.95	0.736
393.15	0.738
393.36	0.740
393.57	0.738
393.77	0.741
393.98	0.742
394.19	0.742
394.39	0.742
394.60	0.744
394.81	0.746
395.01	0.743
395.22	0.742
395.43	0.743
395.63	0.748
395.84	0.749
396.04	0.747
396.25	0.748
396.46	0.750
396.66	0.748
396.87	0.746
397.08	0.743
397.28	0.745
397.49	0.747
397.69	0.743
397.90	0.738
398.11	0.739
398.31	0.739
398.52	0.736
398.73	0.738
398.93	0.737
399.14	0.736
399.34	0.735
399.55	0.736
399.76	0.736
399.96	0.737
400.17	0.736
400.37	0.734
400.58	0.741
400.79	0.743
400.99	0.740
401.20	0.746
401.41	0.748
401.61	0.749
401.82	0.754
402.02	0.754
402.23	0.755
402.44	0.755
402.64	0.756
402.85	0.751
403.05	0.750
403.26	0.749
403.47	0.743
403.67	0.742
403.88	0.742
404.08	0.736
404.29	0.735
404.50	0.735
404.70	0.735
404.91	0.733
405.11	0.731
405.32	0.731
405.52	0.731
405.73	0.731
405.94	0.730
406.14	0.733
406.35	0.734
406.55	0.734
406.76	0.731
406.97	0.732
407.17	0.735
407.38	0.734
407.58	0.733
407.79	0.736
407.99	0.738
408.20	0.739
408.41	0.735
408.61	0.734
408.82	0.735
409.02	0.735
409.23	0.733
409.43	0.731
409.64	0.733
409.84	0.733
410.05	0.729
410.26	0.727
410.46	0.726
410.67	0.726
410.87	0.727
411.08	0.729
411.28	0.730
411.49	0.731
411.69	0.729
411.90	0.730
412.11	0.732
412.31	0.733
412.52	0.731
412.72	0.732
412.93	0.733
413.13	0.732
413.34	0.729
413.54	0.731
413.75	0.733
413.95	0.733
414.16	0.730
414.37	0.732
414.57	0.732
414.78	0.734
414.98	0.733
415.19	0.734
415.39	0.732
415.60	0.733
415.80	0.732
416.01	0.730
416.21	0.731
416.42	0.731
416.62	0.726
416.83	0.727
417.03	0.726
417.24	0.726
417.44	0.724
417.65	0.723
417.86	0.723
418.06	0.721
418.27	0.720
418.47	0.721
418.68	0.722
418.88	0.723
419.09	0.721
419.29	0.722
419.50	0.722
419.70	0.722
419.91	0.721
420.11	0.719
420.32	0.721
420.52	0.720
420.73	0.720
420.93	0.720
421.14	0.721
421.34	0.720
421.55	0.716
421.75	0.716
421.96	0.717
422.16	0.717
422.37	0.717
422.57	0.713
422.78	0.715
422.98	0.711
423.19	0.710
423.39	0.708
423.60	0.711
423.80	0.713
424.01	0.711
424.21	0.713
424.42	0.714
424.62	0.714
424.83	0.714
425.03	0.714
425.23	0.716
425.44	0.716
425.64	0.716
425.85	0.715
426.05	0.715
426.26	0.716
426.46	0.712
426.67	0.712
426.87	0.717
427.08	0.717
427.28	0.715
427.49	0.717
427.69	0.717
427.90	0.717
428.10	0.714
428.31	0.714
428.51	0.715
428.71	0.715
428.92	0.716
429.12	0.713
429.33	0.713
429.53	0.717
429.74	0.721
429.94	0.722
430.15	0.721
430.35	0.721
430.56	0.718
430.76	0.716
430.96	0.716
431.17	0.713
431.37	0.710
431.58	0.709
431.78	0.704
431.99	0.697
432.19	0.699
432.40	0.700
432.60	0.701
432.80	0.703
433.01	0.702
433.21	0.702
433.42	0.704
433.62	0.704
433.83	0.704
434.03	0.706
434.23	0.709
434.44	0.708
434.64	0.706
434.85	0.711
435.05	0.712
435.26	0.712
435.46	0.711
435.66	0.711
435.87	0.710
436.07	0.710
436.28	0.706
436.48	0.703
436.69	0.702
436.89	0.702
437.09	0.696
437.30	0.694
437.50	0.695
437.71	0.706
437.91	0.705
438.11	0.706
438.32	0.710
438.52	0.710
438.73	0.709
438.93	0.707
439.13	0.707
439.34	0.710
439.54	0.708
439.75	0.708
439.95	0.698
440.15	0.702
440.36	0.702
440.56	0.699
440.77	0.700
440.97	0.700
441.17	0.699
441.38	0.700
441.58	0.696
441.79	0.696
441.99	0.695
442.19	0.693
442.40	0.691
442.60	0.691
442.81	0.688
443.01	0.689
443.21	0.689
443.42	0.688
443.62	0.687
443.82	0.687
444.03	0.688
444.23	0.688
444.44	0.688
444.64	0.687
444.84	0.688
445.05	0.688
445.25	0.686
445.45	0.686
445.66	0.688
445.86	0.687
446.06	0.689
446.27	0.688
446.47	0.692
446.68	0.689
446.88	0.688
447.08	0.687
447.29	0.688
447.49	0.688
447.69	0.688
447.90	0.686
448.10	0.689
448.30	0.686
448.51	0.688
448.71	0.685
448.91	0.687
449.12	0.685
449.32	0.687
449.52	0.686
449.73	0.689
449.93	0.688
450.14	0.689
450.34	0.688
450.54	0.690
450.75	0.688
450.95	0.687
451.15	0.686
451.36	0.689
451.56	0.687
451.76	0.686
451.97	0.682
452.17	0.683
452.37	0.681
452.58	0.678
452.78	0.678
452.98	0.680
453.19	0.679
453.39	0.680
453.59	0.679
453.79	0.679
454.00	0.679
454.20	0.679
454.40	0.679
454.61	0.681
454.81	0.682
455.01	0.681
455.22	0.682
455.42	0.684
455.62	0.680
455.83	0.680
456.03	0.683
456.23	0.683
456.44	0.684
456.64	0.683
456.84	0.683
457.04	0.683
457.25	0.682
457.45	0.679
457.65	0.677
457.86	0.679
458.06	0.678
458.26	0.674
458.47	0.674
458.67	0.675
458.87	0.675
459.07	0.673
459.28	0.675
459.48	0.677
459.68	0.676
459.89	0.676
460.09	0.674
460.29	0.675
460.49	0.677
460.70	0.675
460.90	0.675
461.10	0.675
461.31	0.675
461.51	0.673
461.71	0.675
461.91	0.675
462.12	0.675
462.32	0.674
462.52	0.674
462.72	0.676
462.93	0.677
463.13	0.676
463.33	0.677
463.53	0.678
463.74	0.677
463.94	0.673
464.14	0.674
464.35	0.675
464.55	0.675
464.75	0.673
464.95	0.672
465.16	0.673
465.36	0.671
465.56	0.670
465.76	0.670
465.97	0.670
466.17	0.670
466.37	0.668
466.57	0.669
466.78	0.670
466.98	0.670
467.18	0.668
467.38	0.667
467.59	0.668
467.79	0.669
467.99	0.669
468.19	0.670
468.39	0.673
468.60	0.673
468.80	0.671
469.00	0.672
469.20	0.673
469.41	0.674
469.61	0.673
469.81	0.673
470.01	0.673
470.22	0.673
470.42	0.672
470.62	0.670
470.82	0.671
471.02	0.670
471.23	0.668
471.43	0.669
471.63	0.671
471.83	0.671
472.04	0.669
472.24	0.668
472.44	0.672
472.64	0.672
472.84	0.670
473.05	0.670
473.25	0.673
473.45	0.672
473.65	0.671
473.85	0.671
474.06	0.672
474.26	0.672
474.46	0.673
474.66	0.669
474.86	0.670
475.07	0.670
475.27	0.668
475.47	0.666
475.67	0.666
475.87	0.667
476.08	0.665
476.28	0.666
476.48	0.667
476.68	0.666
476.88	0.664
477.09	0.665
477.29	0.667
477.49	0.667
477.69	0.666
477.89	0.666
478.09	0.665
478.30	0.667
478.50	0.664
478.70	0.663
478.90	0.663
479.10	0.666
479.31	0.667
479.51	0.665
479.71	0.666
479.91	0.666
480.11	0.665
480.31	0.666
480.52	0.664
480.72	0.664
480.92	0.663
481.12	0.662
481.32	0.660
481.52	0.658
481.72	0.658
481.93	0.662
482.13	0.663
482.33	0.662
482.53	0.661
482.73	0.662
482.93	0.663
483.14	0.662
483.34	0.661
483.54	0.662
483.74	0.661
483.94	0.660
484.14	0.656
484.34	0.656
484.55	0.656
484.75	0.656
484.95	0.654
485.15	0.653
485.35	0.653
485.55	0.652
485.75	0.650
485.96	0.650
486.16	0.651
486.36	0.651
486.56	0.649
486.76	0.650
486.96	0.649
487.16	0.649
487.36	0.648
487.57	0.647
487.77	0.648
487.97	0.649
488.17	0.647
488.37	0.646
488.57	0.646
488.77	0.646
488.97	0.645
489.18	0.644
489.38	0.646
489.58	0.647
489.78	0.646
489.98	0.645
490.18	0.645
490.38	0.646
490.58	0.645
490.78	0.646
490.98	0.647
491.19	0.648
491.39	0.647
491.59	0.646
491.79	0.649
491.99	0.650
492.19	0.649
492.39	0.652
492.59	0.652
492.79	0.654
492.99	0.654
493.20	0.655
493.40	0.655
493.60	0.656
493.80	0.654
494.00	0.652
494.20	0.652
494.40	0.652
494.60	0.650
494.80	0.654
495.00	0.652
495.20	0.650
495.40	0.649
495.61	0.651
495.81	0.650
496.01	0.654
496.21	0.655
496.41	0.654
496.61	0.655
496.81	0.654
497.01	0.649
497.21	0.648
497.41	0.648
497.61	0.648
497.81	0.645
498.01	0.646
498.21	0.644
498.41	0.642
498.61	0.642
498.82	0.643
499.02	0.645
499.22	0.646
499.42	0.646
499.62	0.647
499.82	0.648
500.02	0.649
500.22	0.647
500.42	0.649
500.62	0.650
500.82	0.651
501.02	0.648
501.22	0.648
501.42	0.648
501.62	0.650
501.82	0.650
502.02	0.649
502.22	0.649
502.42	0.651
502.62	0.648
502.82	0.649
503.02	0.649
503.22	0.649
503.42	0.647
503.63	0.647
503.83	0.645
504.03	0.644
504.23	0.643
504.43	0.643
504.63	0.644
504.83	0.644
505.03	0.643
505.23	0.645
505.43	0.646
505.63	0.646
505.83	0.646
506.03	0.647
506.23	0.649
506.43	0.649
506.63	0.649
506.83	0.647
507.03	0.649
507.23	0.649
507.43	0.647
507.63	0.647
507.83	0.648
508.03	0.648
508.23	0.648
508.43	0.647
508.63	0.648
508.83	0.649
509.03	0.650
509.23	0.648
509.43	0.649
509.63	0.650
509.83	0.649
510.03	0.652
510.23	0.653
510.43	0.654
510.63	0.654
510.83	0.653
511.03	0.655
511.23	0.653
511.43	0.652
511.63	0.654
511.83	0.655
512.03	0.655
512.22	0.652
512.42	0.651
512.62	0.652
512.82	0.651
513.02	0.651
513.22	0.651
513.42	0.653
513.62	0.656
513.82	0.654
514.02	0.653
514.22	0.654
514.42	0.654
514.62	0.655
514.82	0.655
515.02	0.657
515.22	0.659
515.42	0.659
515.62	0.661
515.82	0.659
516.02	0.660
516.22	0.661
516.42	0.662
516.62	0.663
516.82	0.664
517.01	0.663
517.21	0.662
517.41	0.666
517.61	0.666
517.81	0.663
518.01	0.662
518.21	0.662
518.41	0.661
518.61	0.661
518.81	0.661
519.01	0.661
519.21	0.661
519.41	0.660
519.61	0.655
519.81	0.657
520.00	0.657
520.20	0.657
520.40	0.659
520.60	0.659
520.80	0.658
521.00	0.659
521.20	0.660
521.40	0.665
521.60	0.665
521.80	0.664
522.00	0.664
522.20	0.666
522.39	0.665
522.59	0.663
522.79	0.665
522.99	0.666
523.19	0.664
523.39	0.662
523.59	0.661
523.79	0.664
523.99	0.667
524.19	0.666
524.38	0.665
524.58	0.666
524.78	0.667
524.98	0.665
525.18	0.667
525.38	0.668
525.58	0.668
525.78	0.666
525.98	0.664
526.18	0.664
526.37	0.663
526.57	0.665
526.77	0.665
526.97	0.666
527.17	0.666
527.37	0.663
527.57	0.666
527.77	0.667
527.96	0.668
528.16	0.666
528.36	0.668
528.56	0.669
528.76	0.667
528.96	0.666
529.16	0.667
529.36	0.669
529.55	0.669
529.75	0.666
529.95	0.666
530.15	0.666
530.35	0.669
530.55	0.667
530.75	0.667
530.94	0.668
531.14	0.669
531.34	0.667
531.54	0.665
531.74	0.668
531.94	0.672
532.13	0.671
532.33	0.672
532.53	0.671
532.73	0.670
532.93	0.668
533.13	0.670
533.33	0.670
533.52	0.671
533.72	0.675
533.92	0.672
534.12	0.669
534.32	0.669
534.52	0.668
534.71	0.670
534.91	0.672
535.11	0.674
535.31	0.673
535.51	0.674
535.71	0.675
535.90	0.672
536.10	0.674
536.30	0.676
536.50	0.676
536.70	0.676
536.89	0.674
537.09	0.674
537.29	0.676
537.49	0.676
537.69	0.675
537.89	0.675
538.08	0.675
538.28	0.673
538.48	0.674
538.68	0.675
538.88	0.677
539.07	0.677
539.27	0.675
539.47	0.674
539.67	0.673
539.87	0.674
540.06	0.673
540.26	0.673
540.46	0.675
540.66	0.673
540.86	0.671
541.05	0.671
541.25	0.672
541.45	0.672
541.65	0.671
541.84	0.674
542.04	0.673
542.24	0.673
542.44	0.673
542.64	0.674
542.83	0.676
543.03	0.676
543.23	0.675
543.43	0.675
543.62	0.677
543.82	0.677
544.02	0.676
544.22	0.677
544.42	0.680
544.61	0.680
544.81	0.678
545.01	0.676
545.21	0.679
545.40	0.679
545.60	0.677
545.80	0.680
546.00	0.680
546.19	0.679
546.39	0.678
546.59	0.676
546.79	0.677
546.98	0.677
547.18	0.677
547.38	0.677
547.58	0.679
547.77	0.679
547.97	0.676
548.17	0.678
548.37	0.679
548.56	0.678
548.76	0.678
548.96	0.679
549.16	0.681
549.35	0.682
549.55	0.680
549.75	0.680
549.95	0.683
550.14	0.683
550.34	0.682
550.54	0.687
550.73	0.690
550.93	0.692
551.13	0.689
551.33	0.688
551.52	0.688
551.72	0.689
551.92	0.687
552.12	0.688
552.31	0.688
552.51	0.688
552.71	0.683
552.90	0.683
553.10	0.683
553.30	0.683
553.50	0.682
553.69	0.683
553.89	0.684
554.09	0.684
554.28	0.681
554.48	0.682
554.68	0.684
554.87	0.684
555.07	0.681
555.27	0.681
555.47	0.682
555.66	0.683
555.86	0.682
556.06	0.684
556.25	0.685
556.45	0.693
556.65	0.692
556.84	0.694
557.04	0.697
557.24	0.698
557.43	0.698
557.63	0.701
557.83	0.703
558.02	0.704
558.22	0.708
558.42	0.708
558.61	0.701
558.81	0.701
559.01	0.698
559.21	0.698
559.40	0.699
559.60	0.699
559.80	0.696
559.99	0.697
560.19	0.699
560.39	0.693
560.58	0.692
560.78	0.692
560.97	0.695
561.17	0.693
561.37	0.691
561.56	0.692
561.76	0.693
561.96	0.692
562.15	0.690
562.35	0.692
562.55	0.692
562.74	0.692
562.94	0.691
563.14	0.689
563.33	0.690
563.53	0.690
563.73	0.687
563.92	0.689
564.12	0.691
564.31	0.693
564.51	0.691
564.71	0.693
564.90	0.695
565.10	0.696
565.30	0.699
565.49	0.701
565.69	0.703
565.89	0.704
566.08	0.702
566.28	0.704
566.47	0.705
566.67	0.704
566.87	0.702
567.06	0.704
567.26	0.710
567.46	0.706
567.65	0.705
567.85	0.706
568.04	0.708
568.24	0.707
568.44	0.704
568.63	0.703
568.83	0.704
569.02	0.702
569.22	0.698
569.42	0.695
569.61	0.696
569.81	0.695
570.00	0.694
570.20	0.695
570.40	0.695
570.59	0.695
570.79	0.693
570.98	0.691
571.18	0.692
571.38	0.692
571.57	0.690
571.77	0.688
571.96	0.691
572.16	0.688
572.35	0.683
572.55	0.684
572.75	0.682
572.94	0.682
573.14	0.680
573.33	0.680
573.53	0.681
573.73	0.680
573.92	0.677
574.12	0.675
574.31	0.678
574.51	0.680
574.70	0.677
574.90	0.679
575.09	0.681
575.29	0.681
575.49	0.679
575.68	0.679
575.88	0.680
576.07	0.681
576.27	0.679
576.46	0.677
576.66	0.676
576.86	0.675
577.05	0.672
577.25	0.671
577.44	0.672
577.64	0.672
577.83	0.670
578.03	0.672
578.22	0.672
578.42	0.672
578.61	0.670
578.81	0.671
579.00	0.671
579.20	0.670
579.40	0.670
579.59	0.668
579.79	0.668
579.98	0.668
580.18	0.667
580.37	0.667
580.57	0.669
580.76	0.673
580.96	0.671
581.15	0.673
581.35	0.675
581.54	0.675
581.74	0.675
581.93	0.676
582.13	0.677
582.32	0.674
582.52	0.672
582.71	0.671
582.91	0.667
583.10	0.667
583.30	0.666
583.49	0.665
583.69	0.668
583.88	0.669
584.08	0.668
584.27	0.671
584.47	0.674
584.66	0.675
584.86	0.676
585.05	0.678
585.25	0.681
585.44	0.680
585.64	0.679
585.83	0.675
586.03	0.675
586.22	0.673
586.42	0.669
586.61	0.670
586.81	0.671
587.00	0.670
587.20	0.668
587.39	0.668
587.59	0.669
587.78	0.670
587.98	0.671
588.17	0.673
588.37	0.675
588.56	0.676
588.76	0.673
588.95	0.673
589.15	0.677
589.34	0.679
589.54	0.678
589.73	0.679
589.92	0.682
590.12	0.683
590.31	0.681
590.51	0.687
590.70	0.688
590.90	0.690
591.09	0.688
591.29	0.686
591.48	0.686
591.68	0.687
591.87	0.686
592.06	0.685
592.26	0.687
592.45	0.686
592.65	0.680
592.84	0.679
593.04	0.681
593.23	0.682
593.43	0.680
593.62	0.679
593.81	0.679
594.01	0.679
594.20	0.677
594.40	0.675
594.59	0.677
594.79	0.677
594.98	0.676
595.17	0.676
595.37	0.676
595.56	0.679
595.76	0.679
595.95	0.681
596.14	0.684
596.34	0.685
596.53	0.684
596.73	0.686
596.92	0.687
597.12	0.691
597.31	0.691
597.50	0.690
597.70	0.692
597.89	0.691
598.09	0.687
598.28	0.689
598.47	0.691
598.67	0.690
598.86	0.686
599.06	0.687
599.25	0.686
599.44	0.684
599.64	0.681
599.83	0.678
600.03	0.680
600.22	0.681
600.41	0.681
600.61	0.679
600.80	0.681
601.00	0.681
601.19	0.677
601.38	0.676
601.58	0.679
601.77	0.680
601.96	0.682
602.16	0.683
602.35	0.691
602.55	0.689
602.74	0.690
602.93	0.692
603.13	0.696
603.32	0.698
603.51	0.699
603.71	0.702
603.90	0.704
604.09	0.705
604.29	0.703
604.48	0.697
604.68	0.698
604.87	0.697
605.06	0.694
605.26	0.691
605.45	0.691
605.64	0.689
605.84	0.685
606.03	0.683
606.22	0.682
606.42	0.680
606.61	0.677
606.80	0.677
607.00	0.678
607.19	0.678
607.38	0.676
607.58	0.677
607.77	0.679
607.96	0.679
608.16	0.678
608.35	0.683
608.54	0.685
608.74	0.687
608.93	0.693
609.12	0.696
609.32	0.699
609.51	0.702
609.70	0.701
609.90	0.703
610.09	0.707
610.28	0.712
610.48	0.706
610.67	0.708
610.86	0.709
611.06	0.704
611.25	0.702
611.44	0.702
611.64	0.701
611.83	0.705
612.02	0.702
612.21	0.702
612.41	0.699
612.60	0.698
612.79	0.695
612.99	0.695
613.18	0.696
613.37	0.693
613.57	0.691
613.76	0.692
613.95	0.689
614.14	0.689
614.34	0.686
614.53	0.687
614.72	0.690
614.92	0.690
615.11	0.687
615.30	0.685
615.49	0.686
615.69	0.688
615.88	0.684
616.07	0.685
616.26	0.687
616.46	0.688
616.65	0.685
616.84	0.684
617.04	0.684
617.23	0.687
617.42	0.688
617.61	0.692
617.81	0.691
618.00	0.693
618.19	0.692
618.38	0.696
618.58	0.699
618.77	0.700
618.96	0.701
619.15	0.703
619.35	0.705
619.54	0.706
619.73	0.702
619.92	0.706
620.12	0.709
620.31	0.710
620.50	0.705
620.69	0.706
620.89	0.708
621.08	0.708
621.27	0.708
621.46	0.706
621.66	0.709
621.85	0.709
622.04	0.706
622.23	0.707
622.43	0.707
622.62	0.708
622.81	0.707
623.00	0.708
623.19	0.711
623.39	0.709
623.58	0.707
623.77	0.706
623.96	0.708
624.16	0.708
624.35	0.703
624.54	0.705
624.73	0.708
624.92	0.706
625.12	0.703
625.31	0.703
625.50	0.706
625.69	0.707
625.88	0.704
626.08	0.704
626.27	0.705
626.46	0.705
626.65	0.703
626.84	0.702
627.04	0.707
627.23	0.707
627.42	0.704
627.61	0.706
627.80	0.708
628.00	0.708
628.19	0.707
628.38	0.709
628.57	0.711
628.76	0.711
628.96	0.708
629.15	0.709
629.34	0.712
629.53	0.712
629.72	0.707
629.91	0.708
630.11	0.711
630.30	0.711
630.49	0.714
630.68	0.714
630.87	0.716
631.06	0.718
631.26	0.714
631.45	0.714
631.64	0.721
631.83	0.723
632.02	0.722
632.21	0.720
632.41	0.727
632.60	0.722
632.79	0.721
632.98	0.722
633.17	0.722
633.36	0.723
633.55	0.721
633.75	0.717
633.94	0.718
634.13	0.718
634.32	0.717
634.51	0.711
634.70	0.712
634.89	0.712
635.09	0.709
635.28	0.710
635.47	0.711
635.66	0.713
635.85	0.710
636.04	0.711
636.23	0.714
636.43	0.715
636.62	0.715
636.81	0.714
637.00	0.716
637.19	0.719
637.38	0.716
637.57	0.715
637.76	0.716
637.95	0.717
638.15	0.714
638.34	0.711
638.53	0.714
638.72	0.716
638.91	0.714
639.10	0.713
639.29	0.712
639.48	0.713
639.67	0.713
639.87	0.713
640.06	0.718
640.25	0.717
640.44	0.718
640.63	0.719
640.82	0.720
641.01	0.719
641.20	0.719
641.39	0.720
641.58	0.722
641.78	0.720
641.97	0.717
642.16	0.731
642.35	0.731
642.54	0.731
642.73	0.725
642.92	0.724
643.11	0.727
643.30	0.727
643.49	0.723
643.68	0.725
643.87	0.727
644.06	0.726
644.25	0.707
644.45	0.709
644.64	0.709
644.83	0.710
645.02	0.708
645.21	0.708
645.40	0.709
645.59	0.709
645.78	0.704
645.97	0.706
646.16	0.707
646.35	0.706
646.54	0.705
646.73	0.707
646.92	0.708
647.11	0.707
647.30	0.704
647.49	0.705
647.68	0.705
647.88	0.703
648.07	0.697
648.26	0.700
648.45	0.700
648.64	0.697
648.83	0.694
649.02	0.697
649.21	0.706
649.40	0.705
649.59	0.701
649.78	0.701
649.97	0.715
650.16	0.714
650.35	0.709
650.54	0.711
650.73	0.719
650.92	0.716
651.11	0.710
651.30	0.707
651.49	0.711
651.68	0.712
651.87	0.710
652.06	0.700
652.25	0.703
652.44	0.708
652.63	0.708
652.82	0.711
653.01	0.713
653.20	0.712
653.39	0.702
653.58	0.699
653.77	0.698
653.96	0.694
654.15	0.686
654.34	0.683
654.53	0.678
654.72	0.670
654.91	0.660
655.10	0.655
655.29	0.652
655.48	0.649
655.67	0.645
655.86	0.642
656.05	0.640
656.24	0.639
656.43	0.635
656.62	0.633
656.81	0.632
657.00	0.628
657.19	0.624
657.38	0.623
657.57	0.621
657.76	0.622
657.95	0.619
658.14	0.621
658.33	0.623
658.51	0.627
658.70	0.627
658.89	0.629
659.08	0.639
659.27	0.649
659.46	0.651
659.65	0.657
659.84	0.660
660.03	0.664
660.22	0.666
660.41	0.670
660.60	0.669
660.79	0.670
660.98	0.676
661.17	0.675
661.36	0.674
661.55	0.675
661.74	0.674
661.92	0.677
662.11	0.679
662.30	0.677
662.49	0.672
662.68	0.672
662.87	0.674
663.06	0.669
663.25	0.670
663.44	0.670
663.63	0.670
663.82	0.669
664.01	0.664
664.20	0.663
664.38	0.664
664.57	0.664
664.76	0.664
664.95	0.665
665.14	0.668
665.33	0.663
665.52	0.670
665.71	0.673
665.90	0.672
666.09	0.674
666.28	0.672
666.46	0.671
666.65	0.672
666.84	0.670
667.03	0.665
667.22	0.663
667.41	0.666
667.60	0.656
667.79	0.651
667.98	0.653
668.16	0.652
668.35	0.652
668.54	0.649
668.73	0.651
668.92	0.651
669.11	0.650
669.30	0.645
669.49	0.642
669.67	0.644
669.86	0.645
670.05	0.643
670.24	0.642
670.43	0.639
670.62	0.639
670.81	0.634
671.00	0.635
671.18	0.635
671.37	0.634
671.56	0.632
671.75	0.631
671.94	0.628
672.13	0.626
672.32	0.621
672.50	0.619
672.69	0.619
672.88	0.619
673.07	0.615
673.26	0.616
673.45	0.617
673.63	0.617
673.82	0.614
674.01	0.615
674.20	0.614
674.39	0.614
674.58	0.614
674.76	0.615
674.95	0.613
675.14	0.613
675.33	0.609
675.52	0.608
675.71	0.608
675.89	0.607
676.08	0.604
676.27	0.604
676.46	0.604
676.65	0.603
676.84	0.603
677.02	0.604
677.21	0.606
677.40	0.605
677.59	0.603
677.78	0.604
677.96	0.606
678.15	0.605
678.34	0.603
678.53	0.604
678.72	0.604
678.90	0.601
679.09	0.598
679.28	0.594
679.47	0.594
679.66	0.593
679.84	0.589
680.03	0.587
680.22	0.586
680.41	0.587
680.60	0.583
680.78	0.582
680.97	0.584
681.16	0.584
681.35	0.583
681.53	0.581
681.72	0.582
681.91	0.584
682.10	0.583
682.29	0.585
682.47	0.583
682.66	0.581
682.85	0.580
683.04	0.578
683.22	0.579
683.41	0.580
683.60	0.579
683.79	0.580
683.97	0.579
684.16	0.577
684.35	0.574
684.54	0.576
684.72	0.577
684.91	0.578
685.10	0.576
685.29	0.577
685.47	0.573
685.66	0.573
685.85	0.570
686.04	0.569
686.22	0.572
686.41	0.574
686.60	0.572
686.79	0.575
686.97	0.575
687.16	0.577
687.35	0.574
687.54	0.577
687.72	0.581
687.91	0.581
688.10	0.583
688.29	0.583
688.47	0.581
688.66	0.581
688.85	0.577
689.03	0.575
689.22	0.579
689.41	0.580
689.60	0.576
689.78	0.572
689.97	0.572
690.16	0.569
690.34	0.566
690.53	0.565
690.72	0.565
690.91	0.563
691.09	0.561
691.28	0.556
691.47	0.554
691.65	0.553
691.84	0.551
692.03	0.550
692.21	0.548
692.40	0.548
692.59	0.546
692.77	0.545
692.96	0.545
693.15	0.545
693.34	0.543
693.52	0.543
693.71	0.543
693.90	0.544
694.08	0.544
694.27	0.546
694.46	0.554
694.64	0.556
694.83	0.556
695.02	0.555
695.20	0.555
695.39	0.555
695.58	0.556
695.76	0.556
695.95	0.555
696.14	0.554
696.32	0.552
696.51	0.543
696.70	0.542
696.88	0.543
697.07	0.542
697.26	0.543
697.44	0.544
697.63	0.543
697.81	0.541
698.00	0.540
698.19	0.539
698.37	0.539
698.56	0.538
698.75	0.537
698.93	0.537
699.12	0.536
699.31	0.535
699.49	0.534
699.68	0.535
699.87	0.537
700.05	0.538
700.24	0.538
700.42	0.539
700.61	0.539
700.80	0.538
700.98	0.538
701.17	0.540
701.36	0.539
701.54	0.538
701.73	0.539
701.91	0.537
702.10	0.537
702.29	0.535
702.47	0.534
702.66	0.535
702.84	0.536
703.03	0.534
703.22	0.534
703.40	0.534
703.59	0.536
703.77	0.535
703.96	0.535
704.15	0.536
704.33	0.536
704.52	0.536
704.70	0.535
704.89	0.534
705.08	0.532
705.26	0.529
705.45	0.529
705.63	0.528
705.82	0.525
706.00	0.524
706.19	0.523
706.38	0.522
706.56	0.522
706.75	0.521
706.93	0.520
707.12	0.522
707.30	0.522
707.49	0.520
707.68	0.518
707.86	0.518
708.05	0.518
708.23	0.515
708.42	0.515
708.60	0.517
708.79	0.516
708.98	0.516
709.16	0.514
709.35	0.516
709.53	0.520
709.72	0.519
709.90	0.521
710.09	0.523
710.27	0.525
710.46	0.529
710.64	0.528
710.83	0.529
711.02	0.531
711.20	0.530
711.39	0.529
711.57	0.526
711.76	0.527
711.94	0.526
712.13	0.527
712.31	0.526
712.50	0.522
712.68	0.520
712.87	0.521
713.05	0.521
713.24	0.521
713.42	0.521
713.61	0.521
713.79	0.522
713.98	0.522
714.16	0.522
714.35	0.522
714.54	0.522
714.72	0.522
714.91	0.520
715.09	0.526
715.28	0.528
715.46	0.528
715.65	0.526
715.83	0.525
716.02	0.527
716.20	0.525
716.39	0.524
716.57	0.526
716.76	0.528
716.94	0.528
717.12	0.521
717.31	0.522
717.49	0.525
717.68	0.527
717.86	0.527
718.05	0.529
718.23	0.530
718.42	0.533
718.60	0.533
718.79	0.541
718.97	0.543
719.16	0.543
719.34	0.541
719.53	0.540
719.71	0.539
719.90	0.541
720.08	0.538
720.27	0.539
720.45	0.538
720.63	0.536
720.82	0.531
721.00	0.534
721.19	0.537
721.37	0.536
721.56	0.537
721.74	0.540
721.93	0.547
722.11	0.552
722.30	0.551
722.48	0.557
722.66	0.558
722.85	0.558
723.03	0.559
723.22	0.557
723.40	0.560
723.59	0.560
723.77	0.564
723.95	0.557
724.14	0.560
724.32	0.562
724.51	0.561
724.69	0.562
724.88	0.562
725.06	0.559
725.24	0.561
725.43	0.563
725.61	0.565
725.80	0.560
725.98	0.559
726.16	0.557
726.35	0.561
726.53	0.560
726.72	0.560
726.90	0.569
727.09	0.571
727.27	0.576
727.45	0.573
727.64	0.581
727.82	0.589
728.01	0.593
728.19	0.592
728.37	0.597
728.56	0.601
728.74	0.607
728.92	0.596
729.11	0.598
729.29	0.597
729.48	0.599
729.66	0.590
729.84	0.590
730.03	0.592
730.21	0.593
730.40	0.586
730.58	0.587
730.76	0.587
730.95	0.590
731.13	0.591
731.31	0.604
731.50	0.612
731.68	0.616
731.86	0.614
732.05	0.627
732.23	0.632
732.42	0.634
732.60	0.639
732.78	0.643
732.97	0.659
733.15	0.666
733.33	0.655
733.52	0.661
733.70	0.670
733.88	0.678
734.07	0.666
734.25	0.690
734.43	0.695
734.62	0.697
734.80	0.694
734.98	0.687
735.17	0.693
735.35	0.701
735.53	0.690
735.72	0.694
735.90	0.712
736.08	0.730
736.27	0.711
736.45	0.720
736.63	0.730
736.82	0.739
737.00	0.737
737.18	0.745
737.37	0.770
737.55	0.791
737.73	0.789
737.92	0.790
738.10	0.782
738.28	0.798
738.46	0.789
738.65	0.801
738.83	0.818
739.01	0.870
739.20	0.861
739.38	0.846
739.56	0.837
739.75	0.838
739.93	0.811
740.11	0.833
740.29	0.832
740.48	0.836
740.66	0.819
740.84	0.811
741.03	0.773
741.21	0.786
741.39	0.773
741.57	0.784
741.76	0.795
741.94	0.802
742.12	0.774
742.31	0.780
742.49	0.796
742.67	0.817
742.85	0.837
743.04	0.844
743.22	0.851
743.40	0.899
743.58	0.885
743.77	0.907
743.95	0.935
744.13	0.982
744.31	0.965
744.50	0.960
744.68	0.955
744.86	0.926
745.04	0.937
745.23	0.994
745.41	0.968
745.59	0.977
745.77	0.946
745.96	0.932
746.14	0.934
746.32	0.935
746.50	0.928
746.69	0.916
746.87	0.922
747.05	0.910
747.23	0.843
747.42	0.832
747.60	0.849
747.78	0.851
747.96	0.882
748.14	0.846
748.33	0.869
748.51	0.867
748.69	0.860
748.87	0.886
749.06	0.880
749.24	0.880
749.42	0.872
749.60	0.854
749.78	0.859
749.97	0.821
750.15	0.816
750.33	0.815
750.51	0.829
750.69	0.837
750.88	0.845
751.06	0.853
751.24	0.875
751.42	0.865
751.60	0.864
751.79	0.925
751.97	0.959
752.15	0.957
752.33	0.927
752.51	0.987
752.69	0.989
752.88	0.957
753.06	1.000
753.24	0.977
753.42	1.003
753.60	1.145
753.78	1.034
753.97	1.053
754.15	1.061
754.33	1.093
754.51	0.990
754.69	0.980
754.87	1.007
755.06	0.945
755.24	0.948
755.42	0.961
755.60	0.866
755.78	0.876
755.96	0.827
756.15	0.828
756.33	0.828
756.51	0.848
756.69	0.841
756.87	0.811
757.05	0.828
757.23	0.815
757.42	0.787
757.60	0.784
757.78	0.773
757.96	0.770
758.14	0.758
758.32	0.745
758.50	0.750
758.69	0.746
758.87	0.740
759.05	0.741
759.23	0.746
759.41	0.745
759.59	0.741
759.77	0.756
759.95	0.780
760.13	0.822
760.32	0.823
760.50	0.818
760.68	0.836
760.86	0.836
761.04	0.815
761.22	0.819
761.40	0.857
761.58	0.857
761.76	0.839
761.95	0.825
762.13	0.783
762.31	0.785
762.49	0.761
762.67	0.777
762.85	0.782
763.03	0.780
763.21	0.767
763.39	0.750
763.57	0.751
763.75	0.744
763.94	0.731
764.12	0.733
764.30	0.750
764.48	0.754
764.66	0.723
764.84	0.723
765.02	0.755
765.20	0.758
765.38	0.743
765.56	0.748
765.74	0.781
765.92	0.784
766.10	0.790
766.28	0.785
766.46	0.809
766.65	0.809
766.83	0.803
767.01	0.786
767.19	0.789
767.37	0.787
767.55	0.777
767.73	0.759
767.91	0.757
768.09	0.748
768.27	0.740
768.45	0.728
768.63	0.733
768.81	0.734
768.99	0.713
769.17	0.733
769.35	0.744
769.53	0.742
769.71	0.728
769.89	0.736
770.07	0.738
770.25	0.724
770.43	0.707
770.61	0.724
770.79	0.729
770.97	0.734
771.15	0.711
771.33	0.714
771.51	0.714
771.69	0.725
771.87	0.735
772.05	0.740
772.24	0.742
772.42	0.753
772.60	0.739
772.78	0.790
772.96	0.815
773.14	0.815
773.32	0.802
773.49	0.809
773.67	0.804
773.85	0.785
774.03	0.775
774.21	0.804
774.39	0.807
774.57	0.826
774.75	0.763
774.93	0.761
775.11	0.775
775.29	0.779
775.47	0.785
775.65	0.792
775.83	0.803
776.01	0.825
776.19	0.788
776.37	0.792
776.55	0.789
776.73	0.785
776.91	0.780
777.09	0.764
777.27	0.759
777.45	0.746
777.63	0.730
777.81	0.728
777.99	0.714
778.17	0.712
778.35	0.695
778.53	0.684
778.71	0.689
778.89	0.679
779.07	0.671
779.24	0.675
779.42	0.676
779.60	0.691
779.78	0.690
779.96	0.692
780.14	0.696
780.32	0.715
780.50	0.703
780.68	0.702
780.86	0.695
781.04	0.712
781.22	0.718
781.40	0.725
781.58	0.715
781.75	0.707
781.93	0.696
782.11	0.695
782.29	0.679
782.47	0.677
782.65	0.666
782.83	0.687
783.01	0.678
783.19	0.672
783.37	0.662
783.55	0.664
783.72	0.679
783.90	0.688
784.08	0.682
784.26	0.693
784.44	0.712
784.62	0.716
784.80	0.691
784.98	0.697
785.16	0.702
785.33	0.716
785.51	0.707
785.69	0.694
785.87	0.690
786.05	0.702
786.23	0.701
786.41	0.698
786.59	0.702
786.77	0.703
786.94	0.695
787.12	0.696
787.30	0.694
787.48	0.692
787.66	0.685
787.84	0.687
788.02	0.676
788.19	0.676
788.37	0.665
788.55	0.667
788.73	0.664
788.91	0.656
789.09	0.643
789.27	0.633
789.44	0.643
789.62	0.647
789.80	0.655
789.98	0.677
790.16	0.663
790.34	0.659
790.51	0.649
790.69	0.668
790.87	0.673
791.05	0.671
791.23	0.667
791.41	0.666
791.58	0.671
791.76	0.654
791.94	0.627
792.12	0.635
792.30	0.636
792.48	0.634
792.65	0.628
792.83	0.635
793.01	0.639
793.19	0.637
793.37	0.627
793.54	0.623
793.72	0.631
793.90	0.631
794.08	0.621
794.26	0.621
794.43	0.629
794.61	0.615
794.79	0.605
794.97	0.604
795.15	0.607
795.32	0.610
795.50	0.601
795.68	0.596
795.86	0.598
796.04	0.599
796.21	0.594
796.39	0.592
796.57	0.603
796.75	0.610
796.92	0.614
797.10	0.618
797.28	0.618
797.46	0.623
797.64	0.624
797.81	0.631
797.99	0.636
798.17	0.639
798.35	0.636
798.52	0.639
798.70	0.635
798.88	0.641
799.06	0.640
799.23	0.641
799.41	0.645
799.59	0.639
799.77	0.631
799.94	0.637
800.12	0.644
800.30	0.658
800.48	0.659
800.65	0.656
800.83	0.644
801.01	0.639
801.19	0.643
801.36	0.641
801.54	0.644
801.72	0.652
801.90	0.642
802.07	0.637
802.25	0.624
802.43	0.609
802.60	0.606
802.78	0.614
802.96	0.616
803.14	0.609
803.31	0.608
803.49	0.608
803.67	0.604
803.84	0.608
804.02	0.602
804.20	0.604
804.38	0.608
804.55	0.609
804.73	0.599
804.91	0.599
805.08	0.608
805.26	0.605
805.44	0.667
805.61	0.670
805.79	0.670
805.97	0.668
806.15	0.660
806.32	0.656
806.50	0.659
806.68	0.659
806.85	0.653
807.03	0.645
807.21	0.658
807.38	0.595
807.56	0.586
807.74	0.596
807.91	0.601
808.09	0.604
808.27	0.621
808.44	0.644
808.62	0.650
808.80	0.652
808.97	0.649
809.15	0.644
809.33	0.657
809.50	0.664
809.68	0.651
809.86	0.659
810.03	0.686
810.21	0.668
810.39	0.654
810.56	0.659
810.74	0.680
810.91	0.746
811.09	0.740
811.27	0.757
811.44	0.760
811.62	0.762
811.80	0.748
811.97	0.721
812.15	0.721
812.33	0.718
812.50	0.707
812.68	0.694
812.85	0.641
813.03	0.643
813.21	0.616
813.38	0.612
813.56	0.613
813.74	0.624
813.91	0.633
814.09	0.659
814.26	0.650
814.44	0.653
814.62	0.646
814.79	0.647
814.97	0.649
815.14	0.654
815.32	0.657
815.50	0.671
815.67	0.669
815.85	0.661
816.02	0.652
816.20	0.659
816.38	0.670
816.55	0.674
816.73	0.676
816.90	0.686
817.08	0.708
817.26	0.715
817.43	0.701
817.61	0.724
817.78	0.738
817.96	0.720
818.13	0.712
818.31	0.715
818.49	0.726
818.66	0.718
818.84	0.710
819.01	0.692
819.19	0.695
819.36	0.696
819.54	0.672
819.71	0.711
819.89	0.720
820.07	0.733
820.24	0.726
820.42	0.724
820.59	0.738
820.77	0.757
820.94	0.752
821.12	0.769
821.29	0.780
821.47	0.780
821.64	0.725
821.82	0.740
822.00	0.737
822.17	0.736
822.35	0.734
822.52	0.738
822.70	0.726
822.87	0.736
823.05	0.717
823.22	0.728
823.40	0.749
823.57	0.771
823.75	0.755
823.92	0.774
824.10	0.789
824.27	0.823
824.45	0.815
824.62	0.869
824.80	0.881
824.97	0.896
825.15	0.889
825.32	0.903
825.50	0.901
825.67	0.907
825.85	0.895
826.02	0.909
826.20	0.923
826.37	1.030
826.55	0.961
826.72	1.116
826.90	1.160
827.07	1.192
827.25	1.143
827.42	1.257
827.60	1.350
827.77	1.438
827.95	1.437
828.12	1.492
828.30	1.268
828.47	1.342
828.65	1.102
828.82	1.148
829.00	1.187
829.17	1.274
829.34	1.279
829.52	1.298
829.69	-0.000
829.87	-0.000
830.04	-0.000
830.22	-0.000
830.39	-0.000
830.57	-0.000
830.74	-0.000
830.92	-0.000
831.09	-0.000
831.26	-0.000
831.44	-0.000
831.61	-0.000
831.79	-0.000
831.96	-0.000
832.14	-0.000
832.31	-0.000
832.49	-0.000
832.66	-0.000
832.83	-0.000
833.01	-0.000
833.18	-0.000
833.36	-0.000
833.53	-0.000
833.70	-0.000
833.88	-0.000
834.05	-0.000
834.23	-0.000
834.40	-0.000
834.58	-0.000
834.75	-0.000
834.92	-0.000
835.10	-0.000
835.27	-0.000
835.45	-0.000
835.62	-0.000
835.79	-0.000
835.97	-0.000
836.14	-0.000
836.32	-0.000
836.49	-0.000
836.66	-0.000
836.84	-0.000
837.01	-0.000
837.18	-0.000
837.36	-0.000
837.53	-0.000
837.71	-0.000
837.88	-0.000
838.05	-0.000
838.23	-0.000
838.40	-0.000
838.58	-0.000
838.75	-0.000
838.92	-0.000
839.10	-0.000
839.27	-0.000
839.44	-0.000
839.62	-0.000
839.79	-0.000
839.96	-0.000
840.14	-0.000
840.31	-0.000
840.48	-0.000
840.66	-0.000
840.83	-0.000
841.01	-0.000
841.18	-0.000
841.35	-0.000
841.53	-0.000
841.70	-0.000
841.87	-0.000
842.05	-0.000
842.22	-0.000
842.39	-0.000
842.57	-0.000
842.74	-0.000
842.91	-0.000
843.09	-0.000
843.26	-0.000
843.43	-0.000
843.60	-0.000
843.78	-0.000
843.95	-0.000
844.12	-0.000
844.30	-0.000
844.47	-0.000
844.64	-0.000
844.82	-0.000
844.99	-0.000
845.16	-0.000
845.34	-0.000
845.51	-0.000
845.68	-0.000
845.85	-0.000
846.03	-0.000
846.20	-0.000
846.37	-0.000
846.55	-0.000
846.72	-0.000
846.89	-0.000
847.06	-0.000
847.24	-0.000
847.41	-0.000
847.58	-0.000
847.76	-0.000
847.93	-0.000
848.10	-0.000
848.27	-0.000
848.45	-0.000
848.62	-0.000
848.79	-0.000
848.97	-0.000
849.14	-0.000
849.31	-0.000
849.48	-0.000
849.66	-0.000
849.83	-0.000
850.00	-0.000
850.17	-0.000
850.35	-0.000
850.52	-0.000
850.69	-0.000
850.86	-0.000
851.04	-0.000
851.21	-0.000
851.38	-0.000
851.55	-0.000
851.72	-0.000
851.90	-0.000
852.07	-0.000
852.24	-0.000
852.41	-0.000
852.59	-0.000
852.76	-0.000
852.93	-0.000
853.10	-0.000
853.28	-0.000
853.45	-0.000
853.62	-0.000
853.79	-0.000
853.96	-0.000
854.14	-0.000
854.31	-0.000
854.48	-0.000
854.65	-0.000
854.82	-0.000
855.00	-0.000
855.17	-0.000
855.34	-0.000
855.51	-0.000
855.68	-0.000
855.86	-0.000
856.03	-0.000
856.20	-0.000
856.37	-0.000
856.54	-0.000
856.72	-0.000
856.89	-0.000
857.06	-0.000
857.23	-0.000
857.40	-0.000
857.57	-0.000
857.75	-0.000
857.92	-0.000
858.09	-0.000
858.26	-0.000
858.43	-0.000
858.60	-0.000
858.78	-0.000
858.95	-0.000
859.12	-0.000
859.29	-0.000
859.46	-0.000
859.63	-0.000
859.81	-0.000
859.98	-0.000
860.15	-0.000
860.32	-0.000
860.49	-0.000
860.66	-0.000
860.83	-0.000
861.01	-0.000
861.18	-0.000
861.35	-0.000
861.52	-0.000
861.69	-0.000
861.86	-0.000
862.03	-0.000
862.21	-0.000
862.38	-0.000
862.55	-0.000
862.72	-0.000
862.89	-0.000
863.06	-0.000
863.23	-0.000
863.40	-0.000
863.58	-0.000
863.75	-0.000
863.92	-0.000
864.09	-0.000
864.26	-0.000
864.43	-0.000
864.60	-0.000
864.77	-0.000
864.94	-0.000
865.11	-0.000
865.29	-0.000
865.46	-0.000
865.63	-0.000
865.80	-0.000
865.97	-0.000
866.14	-0.000
866.31	-0.000
866.48	-0.000
866.65	-0.000
866.82	-0.000
866.99	-0.000
867.16	-0.000
867.34	-0.000
867.51	-0.000
867.68	-0.000
867.85	-0.000
868.02	-0.000
868.19	-0.000
868.36	-0.000
868.53	-0.000
868.70	-0.000
868.87	-0.000
869.04	-0.000
869.21	-0.000
869.38	-0.000
869.55	-0.000
869.72	-0.000
869.89	-0.000
870.06	-0.000
870.24	-0.000
870.41	-0.000
870.58	-0.000
870.75	-0.000
870.92	-0.000
871.09	-0.000
871.26	-0.000
871.43	-0.000
871.60	-0.000
871.77	-0.000
871.94	-0.000
872.11	-0.000
872.28	-0.000
872.45	-0.000
872.62	-0.000
872.79	-0.000
872.96	-0.000
873.13	-0.000
873.30	-0.000
873.47	-0.000
873.64	-0.000
873.81	-0.000
873.98	-0.000
874.15	-0.000
874.32	-0.000
874.49	-0.000
874.66	-0.000
874.83	-0.000
875.00	-0.000
875.17	-0.000
875.34	-0.000
875.51	-0.000
875.68	-0.000
875.85	-0.000
876.02	-0.000
876.19	-0.000
876.36	-0.000
876.53	-0.000
876.70	-0.000
876.87	-0.000
877.04	-0.000
877.21	-0.000
877.38	-0.000
877.55	-0.000
877.72	-0.000
877.89	-0.000
878.06	-0.000
878.23	-0.000
878.39	-0.000
878.56	-0.000
878.73	-0.000
878.90	-0.000
879.07	-0.000
879.24	-0.000
879.41	-0.000
879.58	-0.000
879.75	-0.000
879.92	-0.000
880.09	-0.000
880.26	-0.000
880.43	-0.000
880.60	-0.000
880.77	-0.000
880.94	-0.000
881.11	-0.000
881.27	-0.000
881.44	-0.000
881.61	-0.000
881.78	-0.000
881.95	-0.000
882.12	-0.000
882.29	-0.000
882.46	-0.000
882.63	-0.000
882.80	-0.000
882.97	-0.000
883.14	-0.000
883.30	-0.000
883.47	-0.000
883.64	-0.000
883.81	-0.000
883.98	-0.000
884.15	-0.000
884.32	-0.000
884.49	-0.000
884.66	-0.000
884.82	-0.000
884.99	-0.000
885.16	-0.000
885.33	-0.000
885.50	-0.000
885.67	-0.000
885.84	-0.000
886.01	-0.000
886.17	-0.000
886.34	-0.000
886.51	-0.000
886.68	-0.000
886.85	-0.000
887.02	-0.000
887.19	-0.000
887.36	-0.000
887.52	-0.000
887.69	-0.000
887.86	-0.000
888.03	-0.000
888.20	-0.000
888.37	-0.000
888.54	-0.000
888.70	-0.000
888.87	-0.000
889.04	-0.000
889.21	-0.000
889.38	-0.000
889.55	-0.000
889.71	-0.000
889.88	-0.000
890.05	-0.000
890.22	-0.000
890.39	-0.000
>>>>>End Processed Spectral Data<<<<<
