SpectraSuite Data File
++++++++++++++++++++++++++++++++++++
Date: Fri Jun 19 14:19:18 CEST 2015
User: introlabs
Dark Spectrum Present: Yes
Reference Spectrum Present: Yes
Number of Sampled Component Spectra: 1
Spectrometers: USB4H08886
Integration Time (usec): 745692 (USB4H08886)
Spectra Averaged: 5 (USB4H08886)
Boxcar Smoothing: 5 (USB4H08886)
Correct for Electrical Dark: Yes (USB4H08886)
Strobe/Lamp Enabled: No (USB4H08886)
Correct for Detector Non-linearity: Yes (USB4H08886)
Correct for Stray Light: Yes (USB4H08886)
Number of Pixels in Processed Spectrum: 3648
>>>>>Begin Processed Spectral Data<<<<<
178.14	-0.000
178.36	-0.000
178.57	-0.000
178.79	-0.000
179.01	-0.000
179.22	-0.000
179.44	-0.000
179.65	-0.000
179.87	-0.000
180.08	-0.000
180.30	-0.000
180.52	-0.000
180.73	-0.000
180.95	-0.000
181.16	-0.000
181.38	-0.000
181.59	-0.000
181.81	-0.000
182.03	-0.000
182.24	-0.000
182.46	-0.000
182.67	-0.000
182.89	-0.000
183.10	-0.000
183.32	-0.000
183.54	-0.000
183.75	-0.000
183.97	-0.000
184.18	-0.000
184.40	-0.000
184.61	-0.000
184.83	-0.000
185.04	-0.000
185.26	-0.000
185.48	-0.000
185.69	-0.000
185.91	-0.000
186.12	-0.000
186.34	-0.000
186.55	-0.000
186.77	-0.000
186.98	-0.000
187.20	-0.000
187.42	-0.000
187.63	-0.000
187.85	-0.000
188.06	-0.000
188.28	-0.000
188.49	-0.000
188.71	-0.000
188.92	-0.000
189.14	-0.000
189.36	-0.000
189.57	-0.000
189.79	-0.000
190.00	-0.000
190.22	-0.000
190.43	-0.000
190.65	-0.000
190.86	-0.000
191.08	-0.000
191.29	-0.000
191.51	-0.000
191.72	-0.000
191.94	-0.000
192.16	-0.000
192.37	-0.000
192.59	-0.000
192.80	-0.000
193.02	-0.000
193.23	-0.000
193.45	-0.000
193.66	-0.000
193.88	-0.000
194.09	-0.000
194.31	-0.000
194.52	-0.000
194.74	-0.000
194.95	-0.000
195.17	-0.000
195.38	-0.000
195.60	-0.000
195.81	-0.000
196.03	-0.000
196.25	-0.000
196.46	-0.000
196.68	-0.000
196.89	-0.000
197.11	-0.000
197.32	-0.000
197.54	-0.000
197.75	-0.000
197.97	-0.000
198.18	-0.000
198.40	-0.000
198.61	-0.000
198.83	-0.000
199.04	-0.000
199.26	-0.000
199.47	-0.000
199.69	-0.000
199.90	-0.000
200.12	-0.000
200.33	-0.000
200.55	-0.000
200.76	-0.000
200.98	-0.000
201.19	-0.000
201.41	-0.000
201.62	-0.000
201.84	-0.000
202.05	-0.000
202.27	-0.000
202.48	-0.000
202.70	-0.000
202.91	-0.000
203.13	-0.000
203.34	-0.000
203.56	-0.000
203.77	-0.000
203.99	-0.000
204.20	-0.000
204.42	-0.000
204.63	-0.000
204.85	-0.000
205.06	-0.000
205.28	-0.000
205.49	-0.000
205.71	-0.000
205.92	-0.000
206.14	-0.000
206.35	-0.000
206.56	-0.000
206.78	-0.000
206.99	-0.000
207.21	-0.000
207.42	-0.000
207.64	-0.000
207.85	-0.000
208.07	-0.000
208.28	-0.000
208.50	-0.000
208.71	-0.000
208.93	-0.000
209.14	-0.000
209.36	-0.000
209.57	-0.000
209.79	-0.000
210.00	-0.000
210.22	-0.000
210.43	-0.000
210.64	-0.000
210.86	-0.000
211.07	-0.000
211.29	-0.000
211.50	-0.000
211.72	-0.000
211.93	-0.000
212.15	-0.000
212.36	-0.000
212.58	-0.000
212.79	-0.000
213.01	-0.000
213.22	-0.000
213.43	-0.000
213.65	-0.000
213.86	-0.000
214.08	-0.000
214.29	-0.000
214.51	-0.000
214.72	-0.000
214.94	-0.000
215.15	-0.000
215.36	-0.000
215.58	-0.000
215.79	-0.000
216.01	-0.000
216.22	-0.000
216.44	-0.000
216.65	-0.000
216.87	-0.000
217.08	-0.000
217.29	-0.000
217.51	-0.000
217.72	-0.000
217.94	-0.000
218.15	-0.000
218.37	-0.000
218.58	-0.000
218.80	-0.000
219.01	-0.000
219.22	-0.000
219.44	-0.000
219.65	-0.000
219.87	-0.000
220.08	-0.000
220.30	-0.000
220.51	-0.000
220.72	-0.000
220.94	-0.000
221.15	-0.000
221.37	-0.000
221.58	-0.000
221.79	-0.000
222.01	-0.000
222.22	-0.000
222.44	-0.000
222.65	-0.000
222.87	-0.000
223.08	-0.000
223.29	-0.000
223.51	-0.000
223.72	-0.000
223.94	-0.000
224.15	-0.000
224.36	-0.000
224.58	-0.000
224.79	-0.000
225.01	-0.000
225.22	-0.000
225.44	-0.000
225.65	-0.000
225.86	-0.000
226.08	-0.000
226.29	-0.000
226.51	-0.000
226.72	-0.000
226.93	-0.000
227.15	-0.000
227.36	-0.000
227.58	-0.000
227.79	-0.000
228.00	-0.000
228.22	-0.000
228.43	-0.000
228.65	-0.000
228.86	-0.000
229.07	-0.000
229.29	-0.000
229.50	-0.000
229.72	-0.000
229.93	-0.000
230.14	-0.000
230.36	-0.000
230.57	-0.000
230.78	-0.000
231.00	-0.000
231.21	-0.000
231.43	-0.000
231.64	-0.000
231.85	-0.000
232.07	-0.000
232.28	-0.000
232.50	-0.000
232.71	-0.000
232.92	-0.000
233.14	-0.000
233.35	-0.000
233.56	-0.000
233.78	-0.000
233.99	-0.000
234.21	-0.000
234.42	-0.000
234.63	-0.000
234.85	-0.000
235.06	-0.000
235.27	-0.000
235.49	-0.000
235.70	-0.000
235.91	-0.000
236.13	-0.000
236.34	-0.000
236.56	-0.000
236.77	-0.000
236.98	-0.000
237.20	-0.000
237.41	-0.000
237.62	-0.000
237.84	-0.000
238.05	-0.000
238.26	-0.000
238.48	-0.000
238.69	-0.000
238.91	-0.000
239.12	-0.000
239.33	-0.000
239.55	-0.000
239.76	-0.000
239.97	-0.000
240.19	-0.000
240.40	-0.000
240.61	-0.000
240.83	-0.000
241.04	-0.000
241.25	-0.000
241.47	-0.000
241.68	-0.000
241.89	-0.000
242.11	-0.000
242.32	-0.000
242.53	-0.000
242.75	-0.000
242.96	-0.000
243.17	-0.000
243.39	-0.000
243.60	-0.000
243.81	-0.000
244.03	-0.000
244.24	-0.000
244.45	-0.000
244.67	-0.000
244.88	-0.000
245.09	-0.000
245.31	-0.000
245.52	-0.000
245.73	-0.000
245.95	-0.000
246.16	-0.000
246.37	-0.000
246.59	-0.000
246.80	-0.000
247.01	-0.000
247.23	-0.000
247.44	-0.000
247.65	-0.000
247.87	-0.000
248.08	-0.000
248.29	-0.000
248.51	-0.000
248.72	-0.000
248.93	-0.000
249.15	-0.000
249.36	-0.000
249.57	-0.000
249.78	-0.000
250.00	-0.000
250.21	-0.000
250.42	-0.000
250.64	-0.000
250.85	-0.000
251.06	-0.000
251.28	-0.000
251.49	-0.000
251.70	-0.000
251.92	-0.000
252.13	-0.000
252.34	-0.000
252.55	-0.000
252.77	-0.000
252.98	-0.000
253.19	-0.000
253.41	-0.000
253.62	-0.000
253.83	-0.000
254.05	-0.000
254.26	-0.000
254.47	-0.000
254.68	-0.000
254.90	-0.000
255.11	-0.000
255.32	-0.000
255.54	-0.000
255.75	-0.000
255.96	-0.000
256.17	-0.000
256.39	-0.000
256.60	-0.000
256.81	-0.000
257.03	-0.000
257.24	-0.000
257.45	-0.000
257.66	-0.000
257.88	-0.000
258.09	-0.000
258.30	-0.000
258.51	-0.000
258.73	-0.000
258.94	-0.000
259.15	-0.000
259.37	-0.000
259.58	-0.000
259.79	-0.000
260.00	-0.000
260.22	-0.000
260.43	-0.000
260.64	-0.000
260.85	-0.000
261.07	-0.000
261.28	-0.000
261.49	-0.000
261.71	-0.000
261.92	-0.000
262.13	-0.000
262.34	-0.000
262.56	-0.000
262.77	-0.000
262.98	-0.000
263.19	-0.000
263.41	-0.000
263.62	-0.000
263.83	-0.000
264.04	-0.000
264.26	-0.000
264.47	-0.000
264.68	-0.000
264.89	-0.000
265.11	-0.000
265.32	-0.000
265.53	-0.000
265.74	-0.000
265.96	-0.000
266.17	-0.000
266.38	-0.000
266.59	-0.000
266.81	-0.000
267.02	-0.000
267.23	-0.000
267.44	-0.000
267.65	-0.000
267.87	-0.000
268.08	-0.000
268.29	-0.000
268.50	-0.000
268.72	-0.000
268.93	-0.000
269.14	-0.000
269.35	-0.000
269.57	-0.000
269.78	-0.000
269.99	-0.000
270.20	-0.000
270.41	-0.000
270.63	-0.000
270.84	-0.000
271.05	-0.000
271.26	-0.000
271.48	-0.000
271.69	-0.000
271.90	-0.000
272.11	-0.000
272.32	-0.000
272.54	-0.000
272.75	-0.000
272.96	-0.000
273.17	-0.000
273.39	-0.000
273.60	-0.000
273.81	-0.000
274.02	-0.000
274.23	-0.000
274.45	-0.000
274.66	-0.000
274.87	-0.000
275.08	-0.000
275.29	-0.000
275.51	-0.000
275.72	-0.000
275.93	-0.000
276.14	-0.000
276.35	-0.000
276.57	-0.000
276.78	-0.000
276.99	-0.000
277.20	-0.000
277.41	-0.000
277.63	-0.000
277.84	-0.000
278.05	-0.000
278.26	-0.000
278.47	-0.000
278.69	-0.000
278.90	-0.000
279.11	-0.000
279.32	-0.000
279.53	-0.000
279.74	-0.000
279.96	-0.000
280.17	-0.000
280.38	-0.000
280.59	-0.000
280.80	-0.000
281.02	-0.000
281.23	-0.000
281.44	-0.000
281.65	-0.000
281.86	-0.000
282.07	-0.000
282.29	-0.000
282.50	-0.000
282.71	-0.000
282.92	-0.000
283.13	-0.000
283.35	-0.000
283.56	-0.000
283.77	-0.000
283.98	-0.000
284.19	-0.000
284.40	-0.000
284.62	-0.000
284.83	-0.000
285.04	-0.000
285.25	-0.000
285.46	-0.000
285.67	-0.000
285.88	-0.000
286.10	-0.000
286.31	-0.000
286.52	-0.000
286.73	-0.000
286.94	-0.000
287.15	-0.000
287.37	-0.000
287.58	-0.000
287.79	-0.000
288.00	-0.000
288.21	-0.000
288.42	-0.000
288.63	-0.000
288.85	-0.000
289.06	-0.000
289.27	-0.000
289.48	-0.000
289.69	-0.000
289.90	-0.000
290.11	-0.000
290.33	-0.000
290.54	-0.000
290.75	-0.000
290.96	-0.000
291.17	-0.000
291.38	-0.000
291.59	-0.000
291.81	-0.000
292.02	-0.000
292.23	-0.000
292.44	-0.000
292.65	-0.000
292.86	-0.000
293.07	-0.000
293.28	-0.000
293.50	-0.000
293.71	-0.000
293.92	-0.000
294.13	-0.000
294.34	-0.000
294.55	-0.000
294.76	-0.000
294.97	-0.000
295.19	-0.000
295.40	-0.000
295.61	-0.000
295.82	-0.000
296.03	3.416
296.24	-0.000
296.45	2.070
296.66	1.723
296.87	1.747
297.09	1.821
297.30	2.017
297.51	1.679
297.72	1.646
297.93	1.743
298.14	1.708
298.35	1.669
298.56	1.634
298.77	1.750
298.99	1.723
299.20	1.689
299.41	1.659
299.62	1.613
299.83	1.602
300.04	1.532
300.25	1.512
300.46	1.553
300.67	1.527
300.88	1.476
301.10	1.483
301.31	1.557
301.52	1.502
301.73	1.448
301.94	1.452
302.15	1.465
302.36	1.429
302.57	1.372
302.78	1.381
302.99	1.423
303.20	1.444
303.41	1.361
303.63	1.336
303.84	1.343
304.05	1.342
304.26	1.287
304.47	1.297
304.68	1.303
304.89	1.296
305.10	1.251
305.31	1.238
305.52	1.279
305.73	1.272
305.94	1.237
306.15	1.231
306.37	1.251
306.58	1.259
306.79	1.229
307.00	1.245
307.21	1.280
307.42	1.276
307.63	1.242
307.84	1.211
308.05	1.247
308.26	1.249
308.47	1.227
308.68	1.223
308.89	1.224
309.10	1.220
309.31	1.183
309.52	1.176
309.73	1.191
309.95	1.184
310.16	1.156
310.37	1.144
310.58	1.161
310.79	1.162
311.00	1.157
311.21	1.160
311.42	1.164
311.63	1.158
311.84	1.140
312.05	1.135
312.26	1.159
312.47	1.173
312.68	1.147
312.89	1.131
313.10	1.136
313.31	1.110
313.52	1.109
313.73	1.109
313.94	1.112
314.15	1.098
314.36	1.079
314.57	1.072
314.78	1.059
314.99	1.055
315.21	1.041
315.42	1.045
315.63	1.059
315.84	1.037
316.05	1.024
316.26	1.030
316.47	1.046
316.68	1.043
316.89	1.024
317.10	1.044
317.31	1.051
317.52	1.054
317.73	1.035
317.94	1.033
318.15	1.077
318.36	1.078
318.57	1.061
318.78	1.052
318.99	1.085
319.20	1.082
319.41	1.048
319.62	1.049
319.83	1.063
320.04	1.057
320.25	1.045
320.46	1.011
320.67	1.014
320.88	1.011
321.09	0.996
321.30	0.983
321.51	0.997
321.72	0.995
321.93	0.980
322.14	0.973
322.35	1.000
322.56	1.000
322.77	0.987
322.98	0.999
323.19	1.007
323.40	1.014
323.61	0.993
323.82	0.988
324.03	0.993
324.24	0.990
324.45	0.977
324.66	0.959
324.87	0.955
325.08	0.955
325.29	0.936
325.50	0.929
325.71	0.934
325.92	0.942
326.13	0.929
326.34	0.931
326.55	0.938
326.76	0.937
326.97	0.925
327.18	0.921
327.39	0.947
327.60	0.948
327.80	0.948
328.01	0.947
328.22	0.946
328.43	0.950
328.64	0.936
328.85	0.941
329.06	0.944
329.27	0.945
329.48	0.940
329.69	0.921
329.90	0.930
330.11	0.922
330.32	0.916
330.53	0.909
330.74	0.910
330.95	0.909
331.16	0.895
331.37	0.903
331.58	0.903
331.79	0.903
332.00	0.895
332.21	0.890
332.42	0.894
332.63	0.884
332.83	0.882
333.04	0.883
333.25	0.896
333.46	0.894
333.67	0.880
333.88	0.882
334.09	0.891
334.30	0.888
334.51	0.878
334.72	0.875
334.93	0.880
335.14	0.877
335.35	0.869
335.56	0.865
335.77	0.874
335.98	0.873
336.18	0.866
336.39	0.860
336.60	0.865
336.81	0.863
337.02	0.862
337.23	0.865
337.44	0.867
337.65	0.870
337.86	0.860
338.07	0.854
338.28	0.859
338.49	0.855
338.70	0.848
338.91	0.854
339.11	0.861
339.32	0.858
339.53	0.847
339.74	0.845
339.95	0.842
340.16	0.840
340.37	0.832
340.58	0.830
340.79	0.835
341.00	0.834
341.21	0.823
341.41	0.824
341.62	0.826
341.83	0.826
342.04	0.821
342.25	0.832
342.46	0.837
342.67	0.836
342.88	0.831
343.09	0.829
343.30	0.838
343.50	0.841
343.71	0.831
343.92	0.828
344.13	0.834
344.34	0.832
344.55	0.815
344.76	0.814
344.97	0.818
345.18	0.817
345.38	0.814
345.59	0.808
345.80	0.807
346.01	0.805
346.22	0.801
346.43	0.795
346.64	0.804
346.85	0.803
347.06	0.796
347.26	0.797
347.47	0.801
347.68	0.797
347.89	0.793
348.10	0.788
348.31	0.796
348.52	0.794
348.73	0.792
348.93	0.789
349.14	0.792
349.35	0.792
349.56	0.786
349.77	0.782
349.98	0.787
350.19	0.784
350.39	0.779
350.60	0.775
350.81	0.791
351.02	0.789
351.23	0.784
351.44	0.788
351.65	0.791
351.86	0.788
352.06	0.786
352.27	0.786
352.48	0.789
352.69	0.788
352.90	0.783
353.11	0.770
353.31	0.776
353.52	0.773
353.73	0.764
353.94	0.764
354.15	0.770
354.36	0.769
354.57	0.760
354.77	0.762
354.98	0.762
355.19	0.761
355.40	0.760
355.61	0.767
355.82	0.771
356.02	0.771
356.23	0.765
356.44	0.766
356.65	0.771
356.86	0.772
357.07	0.766
357.27	0.769
357.48	0.772
357.69	0.767
357.90	0.752
358.11	0.750
358.32	0.754
358.52	0.757
358.73	0.747
358.94	0.749
359.15	0.753
359.36	0.753
359.56	0.748
359.77	0.745
359.98	0.752
360.19	0.751
360.40	0.747
360.61	0.748
360.81	0.747
361.02	0.747
361.23	0.740
361.44	0.738
361.65	0.739
361.85	0.738
362.06	0.736
362.27	0.738
362.48	0.739
362.69	0.741
362.89	0.735
363.10	0.737
363.31	0.742
363.52	0.744
363.73	0.739
363.93	0.740
364.14	0.744
364.35	0.745
364.56	0.735
364.77	0.735
364.97	0.738
365.18	0.738
365.39	0.732
365.60	0.728
365.81	0.729
366.01	0.730
366.22	0.727
366.43	0.725
366.64	0.728
366.84	0.733
367.05	0.730
367.26	0.730
367.47	0.732
367.68	0.732
367.88	0.730
368.09	0.728
368.30	0.730
368.51	0.729
368.71	0.728
368.92	0.732
369.13	0.730
369.34	0.730
369.55	0.728
369.75	0.727
369.96	0.734
370.17	0.734
370.38	0.731
370.58	0.730
370.79	0.736
371.00	0.734
371.21	0.725
371.41	0.731
371.62	0.735
371.83	0.731
372.04	0.729
372.24	0.722
372.45	0.723
372.66	0.724
372.87	0.721
373.07	0.717
373.28	0.718
373.49	0.723
373.70	0.713
373.90	0.712
374.11	0.721
374.32	0.721
374.53	0.720
374.73	0.720
374.94	0.723
375.15	0.723
375.36	0.720
375.56	0.729
375.77	0.728
375.98	0.729
376.19	0.726
376.39	0.720
376.60	0.725
376.81	0.726
377.02	0.724
377.22	0.723
377.43	0.723
377.64	0.723
377.84	0.715
378.05	0.719
378.26	0.725
378.47	0.724
378.67	0.721
378.88	0.718
379.09	0.718
379.30	0.718
379.50	0.716
379.71	0.718
379.92	0.722
380.12	0.720
380.33	0.712
380.54	0.709
380.75	0.715
380.95	0.715
381.16	0.712
381.37	0.712
381.57	0.714
381.78	0.714
381.99	0.713
382.20	0.712
382.40	0.716
382.61	0.716
382.82	0.713
383.02	0.706
383.23	0.710
383.44	0.711
383.64	0.709
383.85	0.712
384.06	0.715
384.27	0.714
384.47	0.712
384.68	0.711
384.89	0.717
385.09	0.717
385.30	0.716
385.51	0.715
385.71	0.718
385.92	0.719
386.13	0.718
386.33	0.719
386.54	0.720
386.75	0.719
386.95	0.716
387.16	0.711
387.37	0.713
387.58	0.713
387.78	0.711
387.99	0.709
388.20	0.711
388.40	0.707
388.61	0.703
388.82	0.706
389.02	0.709
389.23	0.709
389.44	0.707
389.64	0.708
389.85	0.719
390.06	0.718
390.26	0.719
390.47	0.718
390.68	0.721
390.88	0.719
391.09	0.715
391.30	0.713
391.50	0.713
391.71	0.713
391.92	0.710
392.12	0.703
392.33	0.703
392.53	0.703
392.74	0.703
392.95	0.702
393.15	0.704
393.36	0.706
393.57	0.703
393.77	0.707
393.98	0.709
394.19	0.708
394.39	0.707
394.60	0.710
394.81	0.711
395.01	0.710
395.22	0.708
395.43	0.709
395.63	0.714
395.84	0.716
396.04	0.711
396.25	0.713
396.46	0.716
396.66	0.714
396.87	0.711
397.08	0.708
397.28	0.710
397.49	0.711
397.69	0.707
397.90	0.702
398.11	0.704
398.31	0.705
398.52	0.701
398.73	0.702
398.93	0.701
399.14	0.701
399.34	0.699
399.55	0.700
399.76	0.701
399.96	0.703
400.17	0.701
400.37	0.700
400.58	0.706
400.79	0.708
400.99	0.705
401.20	0.711
401.41	0.713
401.61	0.715
401.82	0.719
402.02	0.719
402.23	0.720
402.44	0.720
402.64	0.719
402.85	0.714
403.05	0.713
403.26	0.712
403.47	0.706
403.67	0.705
403.88	0.706
404.08	0.699
404.29	0.698
404.50	0.697
404.70	0.698
404.91	0.696
405.11	0.693
405.32	0.694
405.52	0.694
405.73	0.694
405.94	0.692
406.14	0.694
406.35	0.697
406.55	0.696
406.76	0.694
406.97	0.694
407.17	0.697
407.38	0.698
407.58	0.695
407.79	0.698
407.99	0.701
408.20	0.701
408.41	0.697
408.61	0.695
408.82	0.696
409.02	0.696
409.23	0.693
409.43	0.692
409.64	0.693
409.84	0.693
410.05	0.689
410.26	0.688
410.46	0.688
410.67	0.688
410.87	0.689
411.08	0.691
411.28	0.693
411.49	0.695
411.69	0.692
411.90	0.694
412.11	0.696
412.31	0.696
412.52	0.695
412.72	0.696
412.93	0.697
413.13	0.695
413.34	0.692
413.54	0.694
413.75	0.696
413.95	0.695
414.16	0.692
414.37	0.695
414.57	0.695
414.78	0.698
414.98	0.695
415.19	0.696
415.39	0.694
415.60	0.695
415.80	0.694
416.01	0.692
416.21	0.694
416.42	0.693
416.62	0.688
416.83	0.688
417.03	0.688
417.24	0.688
417.44	0.686
417.65	0.685
417.86	0.686
418.06	0.684
418.27	0.682
418.47	0.684
418.68	0.685
418.88	0.686
419.09	0.685
419.29	0.685
419.50	0.685
419.70	0.685
419.91	0.683
420.11	0.681
420.32	0.683
420.52	0.683
420.73	0.682
420.93	0.683
421.14	0.685
421.34	0.684
421.55	0.681
421.75	0.681
421.96	0.682
422.16	0.682
422.37	0.681
422.57	0.679
422.78	0.681
422.98	0.677
423.19	0.675
423.39	0.673
423.60	0.677
423.80	0.678
424.01	0.677
424.21	0.679
424.42	0.680
424.62	0.680
424.83	0.679
425.03	0.678
425.23	0.681
425.44	0.681
425.64	0.681
425.85	0.680
426.05	0.681
426.26	0.681
426.46	0.677
426.67	0.677
426.87	0.682
427.08	0.683
427.28	0.681
427.49	0.681
427.69	0.682
427.90	0.681
428.10	0.678
428.31	0.678
428.51	0.680
428.71	0.679
428.92	0.680
429.12	0.677
429.33	0.678
429.53	0.681
429.74	0.685
429.94	0.685
430.15	0.685
430.35	0.685
430.56	0.682
430.76	0.682
430.96	0.682
431.17	0.679
431.37	0.676
431.58	0.674
431.78	0.671
431.99	0.665
432.19	0.667
432.40	0.668
432.60	0.669
432.80	0.672
433.01	0.669
433.21	0.669
433.42	0.672
433.62	0.673
433.83	0.673
434.03	0.675
434.23	0.679
434.44	0.677
434.64	0.675
434.85	0.680
435.05	0.681
435.26	0.681
435.46	0.680
435.66	0.680
435.87	0.679
436.07	0.679
436.28	0.674
436.48	0.672
436.69	0.671
436.89	0.671
437.09	0.665
437.30	0.664
437.50	0.664
437.71	0.676
437.91	0.674
438.11	0.675
438.32	0.680
438.52	0.680
438.73	0.679
438.93	0.677
439.13	0.677
439.34	0.681
439.54	0.678
439.75	0.678
439.95	0.668
440.15	0.673
440.36	0.672
440.56	0.669
440.77	0.670
440.97	0.671
441.17	0.670
441.38	0.671
441.58	0.668
441.79	0.668
441.99	0.667
442.19	0.665
442.40	0.663
442.60	0.662
442.81	0.660
443.01	0.660
443.21	0.661
443.42	0.660
443.62	0.659
443.82	0.658
444.03	0.661
444.23	0.660
444.44	0.660
444.64	0.660
444.84	0.661
445.05	0.660
445.25	0.659
445.45	0.658
445.66	0.661
445.86	0.660
446.06	0.662
446.27	0.661
446.47	0.664
446.68	0.663
446.88	0.661
447.08	0.660
447.29	0.663
447.49	0.662
447.69	0.662
447.90	0.660
448.10	0.664
448.30	0.661
448.51	0.662
448.71	0.660
448.91	0.662
449.12	0.661
449.32	0.663
449.52	0.661
449.73	0.665
449.93	0.664
450.14	0.665
450.34	0.664
450.54	0.667
450.75	0.664
450.95	0.663
451.15	0.663
451.36	0.665
451.56	0.662
451.76	0.662
451.97	0.657
452.17	0.658
452.37	0.656
452.58	0.652
452.78	0.652
452.98	0.655
453.19	0.654
453.39	0.654
453.59	0.653
453.79	0.654
454.00	0.654
454.20	0.654
454.40	0.654
454.61	0.657
454.81	0.658
455.01	0.656
455.22	0.656
455.42	0.658
455.62	0.656
455.83	0.656
456.03	0.659
456.23	0.660
456.44	0.661
456.64	0.660
456.84	0.660
457.04	0.660
457.25	0.659
457.45	0.656
457.65	0.654
457.86	0.655
458.06	0.653
458.26	0.649
458.47	0.648
458.67	0.650
458.87	0.650
459.07	0.647
459.28	0.650
459.48	0.653
459.68	0.653
459.89	0.652
460.09	0.650
460.29	0.652
460.49	0.653
460.70	0.652
460.90	0.652
461.10	0.653
461.31	0.653
461.51	0.649
461.71	0.651
461.91	0.652
462.12	0.652
462.32	0.652
462.52	0.653
462.72	0.655
462.93	0.655
463.13	0.653
463.33	0.654
463.53	0.656
463.74	0.655
463.94	0.650
464.14	0.651
464.35	0.653
464.55	0.653
464.75	0.650
464.95	0.647
465.16	0.649
465.36	0.649
465.56	0.647
465.76	0.647
465.97	0.647
466.17	0.648
466.37	0.645
466.57	0.646
466.78	0.647
466.98	0.647
467.18	0.645
467.38	0.644
467.59	0.646
467.79	0.648
467.99	0.646
468.19	0.648
468.39	0.651
468.60	0.652
468.80	0.650
469.00	0.651
469.20	0.653
469.41	0.653
469.61	0.652
469.81	0.652
470.01	0.652
470.22	0.652
470.42	0.650
470.62	0.647
470.82	0.649
471.02	0.648
471.23	0.646
471.43	0.647
471.63	0.649
471.83	0.649
472.04	0.647
472.24	0.646
472.44	0.651
472.64	0.651
472.84	0.649
473.05	0.649
473.25	0.651
473.45	0.651
473.65	0.649
473.85	0.649
474.06	0.651
474.26	0.651
474.46	0.652
474.66	0.648
474.86	0.649
475.07	0.649
475.27	0.648
475.47	0.645
475.67	0.646
475.87	0.648
476.08	0.644
476.28	0.646
476.48	0.647
476.68	0.646
476.88	0.643
477.09	0.645
477.29	0.647
477.49	0.647
477.69	0.646
477.89	0.646
478.09	0.646
478.30	0.648
478.50	0.645
478.70	0.644
478.90	0.644
479.10	0.647
479.31	0.648
479.51	0.646
479.71	0.646
479.91	0.646
480.11	0.645
480.31	0.646
480.52	0.645
480.72	0.645
480.92	0.644
481.12	0.643
481.32	0.640
481.52	0.639
481.72	0.639
481.93	0.643
482.13	0.643
482.33	0.643
482.53	0.640
482.73	0.641
482.93	0.642
483.14	0.641
483.34	0.641
483.54	0.642
483.74	0.641
483.94	0.640
484.14	0.636
484.34	0.636
484.55	0.637
484.75	0.637
484.95	0.635
485.15	0.634
485.35	0.635
485.55	0.634
485.75	0.631
485.96	0.632
486.16	0.633
486.36	0.633
486.56	0.631
486.76	0.631
486.96	0.631
487.16	0.631
487.36	0.630
487.57	0.629
487.77	0.630
487.97	0.631
488.17	0.629
488.37	0.628
488.57	0.629
488.77	0.630
488.97	0.628
489.18	0.628
489.38	0.630
489.58	0.631
489.78	0.631
489.98	0.630
490.18	0.630
490.38	0.631
490.58	0.629
490.78	0.630
490.98	0.631
491.19	0.632
491.39	0.631
491.59	0.630
491.79	0.632
491.99	0.633
492.19	0.632
492.39	0.635
492.59	0.635
492.79	0.637
492.99	0.637
493.20	0.638
493.40	0.638
493.60	0.639
493.80	0.637
494.00	0.635
494.20	0.636
494.40	0.635
494.60	0.633
494.80	0.637
495.00	0.636
495.20	0.634
495.40	0.633
495.61	0.634
495.81	0.635
496.01	0.638
496.21	0.639
496.41	0.638
496.61	0.638
496.81	0.637
497.01	0.632
497.21	0.631
497.41	0.632
497.61	0.632
497.81	0.629
498.01	0.629
498.21	0.627
498.41	0.626
498.61	0.626
498.82	0.627
499.02	0.629
499.22	0.630
499.42	0.630
499.62	0.631
499.82	0.631
500.02	0.632
500.22	0.631
500.42	0.633
500.62	0.633
500.82	0.633
501.02	0.631
501.22	0.632
501.42	0.632
501.62	0.634
501.82	0.633
502.02	0.634
502.22	0.633
502.42	0.635
502.62	0.632
502.82	0.633
503.02	0.633
503.22	0.633
503.42	0.630
503.63	0.630
503.83	0.628
504.03	0.627
504.23	0.625
504.43	0.626
504.63	0.627
504.83	0.628
505.03	0.626
505.23	0.628
505.43	0.630
505.63	0.631
505.83	0.631
506.03	0.632
506.23	0.634
506.43	0.635
506.63	0.633
506.83	0.632
507.03	0.634
507.23	0.635
507.43	0.632
507.63	0.633
507.83	0.633
508.03	0.634
508.23	0.632
508.43	0.631
508.63	0.633
508.83	0.633
509.03	0.634
509.23	0.633
509.43	0.634
509.63	0.634
509.83	0.633
510.03	0.635
510.23	0.637
510.43	0.638
510.63	0.638
510.83	0.638
511.03	0.640
511.23	0.638
511.43	0.637
511.63	0.639
511.83	0.641
512.03	0.640
512.22	0.637
512.42	0.637
512.62	0.638
512.82	0.637
513.02	0.636
513.22	0.636
513.42	0.638
513.62	0.640
513.82	0.637
514.02	0.637
514.22	0.638
514.42	0.638
514.62	0.637
514.82	0.637
515.02	0.639
515.22	0.643
515.42	0.642
515.62	0.644
515.82	0.644
516.02	0.645
516.22	0.645
516.42	0.646
516.62	0.649
516.82	0.650
517.01	0.648
517.21	0.647
517.41	0.651
517.61	0.651
517.81	0.646
518.01	0.646
518.21	0.646
518.41	0.645
518.61	0.644
518.81	0.645
519.01	0.646
519.21	0.646
519.41	0.645
519.61	0.639
519.81	0.641
520.00	0.642
520.20	0.642
520.40	0.645
520.60	0.646
520.80	0.645
521.00	0.646
521.20	0.646
521.40	0.651
521.60	0.652
521.80	0.651
522.00	0.651
522.20	0.655
522.39	0.654
522.59	0.651
522.79	0.652
522.99	0.655
523.19	0.653
523.39	0.651
523.59	0.649
523.79	0.652
523.99	0.654
524.19	0.653
524.38	0.651
524.58	0.653
524.78	0.653
524.98	0.651
525.18	0.652
525.38	0.653
525.58	0.654
525.78	0.651
525.98	0.650
526.18	0.650
526.37	0.649
526.57	0.651
526.77	0.651
526.97	0.652
527.17	0.652
527.37	0.649
527.57	0.651
527.77	0.653
527.96	0.654
528.16	0.652
528.36	0.653
528.56	0.655
528.76	0.652
528.96	0.651
529.16	0.652
529.36	0.656
529.55	0.655
529.75	0.652
529.95	0.652
530.15	0.653
530.35	0.656
530.55	0.654
530.75	0.654
530.94	0.656
531.14	0.657
531.34	0.654
531.54	0.652
531.74	0.656
531.94	0.659
532.13	0.658
532.33	0.659
532.53	0.658
532.73	0.658
532.93	0.655
533.13	0.656
533.33	0.657
533.52	0.658
533.72	0.661
533.92	0.660
534.12	0.658
534.32	0.657
534.52	0.656
534.71	0.657
534.91	0.661
535.11	0.662
535.31	0.660
535.51	0.662
535.71	0.664
535.90	0.661
536.10	0.662
536.30	0.664
536.50	0.665
536.70	0.665
536.89	0.662
537.09	0.661
537.29	0.663
537.49	0.664
537.69	0.662
537.89	0.663
538.08	0.663
538.28	0.661
538.48	0.661
538.68	0.662
538.88	0.664
539.07	0.665
539.27	0.662
539.47	0.661
539.67	0.661
539.87	0.663
540.06	0.660
540.26	0.661
540.46	0.663
540.66	0.661
540.86	0.658
541.05	0.658
541.25	0.660
541.45	0.660
541.65	0.659
541.84	0.661
542.04	0.662
542.24	0.662
542.44	0.662
542.64	0.663
542.83	0.666
543.03	0.667
543.23	0.664
543.43	0.664
543.62	0.665
543.82	0.666
544.02	0.664
544.22	0.664
544.42	0.668
544.61	0.668
544.81	0.665
545.01	0.663
545.21	0.665
545.40	0.667
545.60	0.665
545.80	0.668
546.00	0.668
546.19	0.667
546.39	0.666
546.59	0.664
546.79	0.665
546.98	0.665
547.18	0.665
547.38	0.665
547.58	0.668
547.77	0.668
547.97	0.665
548.17	0.666
548.37	0.667
548.56	0.667
548.76	0.666
548.96	0.668
549.16	0.670
549.35	0.670
549.55	0.667
549.75	0.667
549.95	0.670
550.14	0.670
550.34	0.668
550.54	0.674
550.73	0.677
550.93	0.678
551.13	0.674
551.33	0.674
551.52	0.676
551.72	0.676
551.92	0.674
552.12	0.675
552.31	0.676
552.51	0.676
552.71	0.671
552.90	0.670
553.10	0.672
553.30	0.672
553.50	0.671
553.69	0.672
553.89	0.673
554.09	0.673
554.28	0.669
554.48	0.671
554.68	0.672
554.87	0.673
555.07	0.670
555.27	0.670
555.47	0.672
555.66	0.672
555.86	0.670
556.06	0.672
556.25	0.673
556.45	0.681
556.65	0.680
556.84	0.683
557.04	0.686
557.24	0.687
557.43	0.685
557.63	0.688
557.83	0.690
558.02	0.691
558.22	0.694
558.42	0.695
558.61	0.688
558.81	0.688
559.01	0.685
559.21	0.685
559.40	0.687
559.60	0.687
559.80	0.684
559.99	0.685
560.19	0.687
560.39	0.681
560.58	0.678
560.78	0.678
560.97	0.682
561.17	0.681
561.37	0.678
561.56	0.679
561.76	0.680
561.96	0.680
562.15	0.677
562.35	0.680
562.55	0.681
562.74	0.681
562.94	0.680
563.14	0.678
563.33	0.678
563.53	0.678
563.73	0.675
563.92	0.677
564.12	0.679
564.31	0.682
564.51	0.679
564.71	0.682
564.90	0.684
565.10	0.685
565.30	0.688
565.49	0.689
565.69	0.692
565.89	0.692
566.08	0.689
566.28	0.691
566.47	0.692
566.67	0.691
566.87	0.687
567.06	0.689
567.26	0.695
567.46	0.690
567.65	0.689
567.85	0.691
568.04	0.694
568.24	0.693
568.44	0.690
568.63	0.688
568.83	0.690
569.02	0.688
569.22	0.684
569.42	0.680
569.61	0.683
569.81	0.682
570.00	0.679
570.20	0.681
570.40	0.682
570.59	0.682
570.79	0.680
570.98	0.679
571.18	0.680
571.38	0.680
571.57	0.677
571.77	0.675
571.96	0.679
572.16	0.676
572.35	0.671
572.55	0.672
572.75	0.671
572.94	0.670
573.14	0.669
573.33	0.669
573.53	0.669
573.73	0.669
573.92	0.666
574.12	0.665
574.31	0.667
574.51	0.668
574.70	0.665
574.90	0.666
575.09	0.669
575.29	0.669
575.49	0.666
575.68	0.667
575.88	0.668
576.07	0.670
576.27	0.667
576.46	0.666
576.66	0.665
576.86	0.664
577.05	0.662
577.25	0.661
577.44	0.663
577.64	0.662
577.83	0.660
578.03	0.662
578.22	0.661
578.42	0.660
578.61	0.659
578.81	0.660
579.00	0.660
579.20	0.660
579.40	0.659
579.59	0.657
579.79	0.658
579.98	0.657
580.18	0.656
580.37	0.656
580.57	0.659
580.76	0.663
580.96	0.662
581.15	0.662
581.35	0.665
581.54	0.665
581.74	0.664
581.93	0.666
582.13	0.667
582.32	0.664
582.52	0.662
582.71	0.662
582.91	0.658
583.10	0.658
583.30	0.657
583.49	0.655
583.69	0.659
583.88	0.660
584.08	0.659
584.27	0.661
584.47	0.665
584.66	0.666
584.86	0.664
585.05	0.666
585.25	0.668
585.44	0.668
585.64	0.666
585.83	0.663
586.03	0.663
586.22	0.662
586.42	0.658
586.61	0.659
586.81	0.662
587.00	0.662
587.20	0.660
587.39	0.660
587.59	0.663
587.78	0.664
587.98	0.665
588.17	0.666
588.37	0.669
588.56	0.671
588.76	0.667
588.95	0.667
589.15	0.671
589.34	0.674
589.54	0.672
589.73	0.673
589.92	0.676
590.12	0.676
590.31	0.674
590.51	0.678
590.70	0.680
590.90	0.681
591.09	0.678
591.29	0.676
591.48	0.676
591.68	0.676
591.87	0.674
592.06	0.674
592.26	0.677
592.45	0.676
592.65	0.669
592.84	0.669
593.04	0.672
593.23	0.674
593.43	0.672
593.62	0.671
593.81	0.672
594.01	0.671
594.20	0.669
594.40	0.668
594.59	0.669
594.79	0.670
594.98	0.669
595.17	0.668
595.37	0.668
595.56	0.670
595.76	0.669
595.95	0.670
596.14	0.673
596.34	0.675
596.53	0.673
596.73	0.675
596.92	0.676
597.12	0.678
597.31	0.678
597.50	0.678
597.70	0.679
597.89	0.679
598.09	0.675
598.28	0.677
598.47	0.679
598.67	0.677
598.86	0.674
599.06	0.676
599.25	0.676
599.44	0.675
599.64	0.672
599.83	0.670
600.03	0.673
600.22	0.673
600.41	0.673
600.61	0.670
600.80	0.673
601.00	0.673
601.19	0.668
601.38	0.667
601.58	0.670
601.77	0.671
601.96	0.673
602.16	0.673
602.35	0.681
602.55	0.679
602.74	0.680
602.93	0.682
603.13	0.688
603.32	0.689
603.51	0.689
603.71	0.692
603.90	0.693
604.09	0.694
604.29	0.691
604.48	0.685
604.68	0.686
604.87	0.684
605.06	0.681
605.26	0.678
605.45	0.679
605.64	0.677
605.84	0.673
606.03	0.672
606.22	0.670
606.42	0.670
606.61	0.667
606.80	0.667
607.00	0.670
607.19	0.670
607.38	0.668
607.58	0.670
607.77	0.673
607.96	0.673
608.16	0.672
608.35	0.677
608.54	0.680
608.74	0.683
608.93	0.688
609.12	0.691
609.32	0.693
609.51	0.696
609.70	0.695
609.90	0.696
610.09	0.701
610.28	0.706
610.48	0.699
610.67	0.700
610.86	0.701
611.06	0.695
611.25	0.693
611.44	0.693
611.64	0.694
611.83	0.696
612.02	0.692
612.21	0.690
612.41	0.690
612.60	0.689
612.79	0.685
612.99	0.685
613.18	0.687
613.37	0.685
613.57	0.682
613.76	0.683
613.95	0.682
614.14	0.682
614.34	0.679
614.53	0.680
614.72	0.683
614.92	0.683
615.11	0.680
615.30	0.677
615.49	0.679
615.69	0.682
615.88	0.678
616.07	0.679
616.26	0.681
616.46	0.682
616.65	0.680
616.84	0.678
617.04	0.679
617.23	0.683
617.42	0.683
617.61	0.687
617.81	0.688
618.00	0.690
618.19	0.688
618.38	0.692
618.58	0.696
618.77	0.696
618.96	0.696
619.15	0.698
619.35	0.699
619.54	0.700
619.73	0.695
619.92	0.696
620.12	0.700
620.31	0.700
620.50	0.695
620.69	0.695
620.89	0.698
621.08	0.697
621.27	0.697
621.46	0.696
621.66	0.700
621.85	0.700
622.04	0.696
622.23	0.698
622.43	0.699
622.62	0.699
622.81	0.698
623.00	0.697
623.19	0.701
623.39	0.700
623.58	0.697
623.77	0.697
623.96	0.700
624.16	0.700
624.35	0.694
624.54	0.697
624.73	0.701
624.92	0.698
625.12	0.696
625.31	0.696
625.50	0.699
625.69	0.700
625.88	0.695
626.08	0.695
626.27	0.696
626.46	0.697
626.65	0.694
626.84	0.694
627.04	0.700
627.23	0.699
627.42	0.695
627.61	0.697
627.80	0.700
628.00	0.701
628.19	0.700
628.38	0.704
628.57	0.706
628.76	0.705
628.96	0.701
629.15	0.702
629.34	0.706
629.53	0.706
629.72	0.700
629.91	0.700
630.11	0.705
630.30	0.704
630.49	0.707
630.68	0.708
630.87	0.712
631.06	0.714
631.26	0.709
631.45	0.711
631.64	0.719
631.83	0.721
632.02	0.719
632.21	0.718
632.41	0.725
632.60	0.720
632.79	0.718
632.98	0.718
633.17	0.719
633.36	0.721
633.55	0.717
633.75	0.714
633.94	0.717
634.13	0.717
634.32	0.714
634.51	0.707
634.70	0.710
634.89	0.709
635.09	0.705
635.28	0.707
635.47	0.708
635.66	0.710
635.85	0.705
636.04	0.706
636.23	0.711
636.43	0.713
636.62	0.711
636.81	0.710
637.00	0.713
637.19	0.717
637.38	0.712
637.57	0.712
637.76	0.714
637.95	0.715
638.15	0.711
638.34	0.708
638.53	0.712
638.72	0.714
638.91	0.711
639.10	0.709
639.29	0.709
639.48	0.710
639.67	0.709
639.87	0.708
640.06	0.714
640.25	0.713
640.44	0.712
640.63	0.712
640.82	0.714
641.01	0.713
641.20	0.712
641.39	0.714
641.58	0.717
641.78	0.715
641.97	0.712
642.16	0.725
642.35	0.727
642.54	0.727
642.73	0.721
642.92	0.720
643.11	0.725
643.30	0.723
643.49	0.718
643.68	0.721
643.87	0.723
644.06	0.724
644.25	0.703
644.45	0.705
644.64	0.706
644.83	0.707
645.02	0.704
645.21	0.702
645.40	0.706
645.59	0.705
645.78	0.699
645.97	0.701
646.16	0.702
646.35	0.701
646.54	0.699
646.73	0.701
646.92	0.702
647.11	0.701
647.30	0.697
647.49	0.698
647.68	0.698
647.88	0.697
648.07	0.690
648.26	0.694
648.45	0.696
648.64	0.691
648.83	0.688
649.02	0.691
649.21	0.701
649.40	0.700
649.59	0.695
649.78	0.696
649.97	0.711
650.16	0.709
650.35	0.703
650.54	0.706
650.73	0.715
650.92	0.712
651.11	0.706
651.30	0.704
651.49	0.708
651.68	0.708
651.87	0.704
652.06	0.694
652.25	0.698
652.44	0.701
652.63	0.698
652.82	0.697
653.01	0.697
653.20	0.695
653.39	0.683
653.58	0.681
653.77	0.681
653.96	0.677
654.15	0.669
654.34	0.666
654.53	0.661
654.72	0.656
654.91	0.647
655.10	0.643
655.29	0.642
655.48	0.640
655.67	0.635
655.86	0.632
656.05	0.631
656.24	0.630
656.43	0.626
656.62	0.625
656.81	0.625
657.00	0.623
657.19	0.621
657.38	0.620
657.57	0.620
657.76	0.622
657.95	0.620
658.14	0.623
658.33	0.626
658.51	0.631
658.70	0.631
658.89	0.633
659.08	0.642
659.27	0.649
659.46	0.648
659.65	0.655
659.84	0.657
660.03	0.661
660.22	0.661
660.41	0.665
660.60	0.665
660.79	0.665
660.98	0.671
661.17	0.670
661.36	0.669
661.55	0.670
661.74	0.667
661.92	0.670
662.11	0.673
662.30	0.671
662.49	0.664
662.68	0.664
662.87	0.668
663.06	0.662
663.25	0.663
663.44	0.664
663.63	0.665
663.82	0.664
664.01	0.659
664.20	0.658
664.38	0.659
664.57	0.660
664.76	0.659
664.95	0.660
665.14	0.665
665.33	0.659
665.52	0.667
665.71	0.671
665.90	0.671
666.09	0.672
666.28	0.670
666.46	0.669
666.65	0.670
666.84	0.668
667.03	0.661
667.22	0.660
667.41	0.663
667.60	0.653
667.79	0.646
667.98	0.648
668.16	0.650
668.35	0.650
668.54	0.645
668.73	0.645
668.92	0.647
669.11	0.646
669.30	0.639
669.49	0.635
669.67	0.637
669.86	0.639
670.05	0.637
670.24	0.634
670.43	0.632
670.62	0.631
670.81	0.627
671.00	0.627
671.18	0.628
671.37	0.627
671.56	0.625
671.75	0.624
671.94	0.621
672.13	0.619
672.32	0.614
672.50	0.613
672.69	0.614
672.88	0.614
673.07	0.609
673.26	0.611
673.45	0.612
673.63	0.612
673.82	0.608
674.01	0.610
674.20	0.609
674.39	0.609
674.58	0.608
674.76	0.608
674.95	0.606
675.14	0.607
675.33	0.602
675.52	0.600
675.71	0.600
675.89	0.600
676.08	0.595
676.27	0.596
676.46	0.597
676.65	0.597
676.84	0.596
677.02	0.598
677.21	0.600
677.40	0.600
677.59	0.598
677.78	0.599
677.96	0.601
678.15	0.601
678.34	0.598
678.53	0.599
678.72	0.599
678.90	0.596
679.09	0.591
679.28	0.588
679.47	0.588
679.66	0.587
679.84	0.584
680.03	0.582
680.22	0.581
680.41	0.583
680.60	0.579
680.78	0.578
680.97	0.580
681.16	0.581
681.35	0.579
681.53	0.578
681.72	0.579
681.91	0.581
682.10	0.579
682.29	0.581
682.47	0.578
682.66	0.579
682.85	0.577
683.04	0.575
683.22	0.575
683.41	0.577
683.60	0.575
683.79	0.576
683.97	0.576
684.16	0.575
684.35	0.571
684.54	0.573
684.72	0.573
684.91	0.574
685.10	0.572
685.29	0.572
685.47	0.570
685.66	0.570
685.85	0.566
686.04	0.566
686.22	0.568
686.41	0.571
686.60	0.567
686.79	0.570
686.97	0.572
687.16	0.573
687.35	0.570
687.54	0.574
687.72	0.578
687.91	0.577
688.10	0.578
688.29	0.578
688.47	0.576
688.66	0.576
688.85	0.571
689.03	0.569
689.22	0.573
689.41	0.573
689.60	0.568
689.78	0.566
689.97	0.567
690.16	0.564
690.34	0.560
690.53	0.560
690.72	0.560
690.91	0.559
691.09	0.556
691.28	0.551
691.47	0.549
691.65	0.548
691.84	0.545
692.03	0.544
692.21	0.542
692.40	0.542
692.59	0.539
692.77	0.539
692.96	0.540
693.15	0.541
693.34	0.538
693.52	0.538
693.71	0.539
693.90	0.540
694.08	0.540
694.27	0.541
694.46	0.551
694.64	0.552
694.83	0.550
695.02	0.550
695.20	0.550
695.39	0.550
695.58	0.550
695.76	0.550
695.95	0.549
696.14	0.549
696.32	0.546
696.51	0.537
696.70	0.537
696.88	0.538
697.07	0.536
697.26	0.538
697.44	0.539
697.63	0.538
697.81	0.536
698.00	0.536
698.19	0.535
698.37	0.535
698.56	0.535
698.75	0.534
698.93	0.534
699.12	0.534
699.31	0.532
699.49	0.531
699.68	0.532
699.87	0.535
700.05	0.535
700.24	0.534
700.42	0.536
700.61	0.535
700.80	0.533
700.98	0.533
701.17	0.534
701.36	0.533
701.54	0.532
701.73	0.534
701.91	0.531
702.10	0.531
702.29	0.529
702.47	0.528
702.66	0.529
702.84	0.530
703.03	0.528
703.22	0.530
703.40	0.530
703.59	0.531
703.77	0.530
703.96	0.531
704.15	0.532
704.33	0.532
704.52	0.531
704.70	0.530
704.89	0.530
705.08	0.528
705.26	0.524
705.45	0.524
705.63	0.523
705.82	0.520
706.00	0.519
706.19	0.518
706.38	0.518
706.56	0.518
706.75	0.516
706.93	0.515
707.12	0.518
707.30	0.518
707.49	0.516
707.68	0.514
707.86	0.514
708.05	0.514
708.23	0.511
708.42	0.512
708.60	0.515
708.79	0.514
708.98	0.513
709.16	0.512
709.35	0.514
709.53	0.518
709.72	0.517
709.90	0.519
710.09	0.521
710.27	0.523
710.46	0.526
710.64	0.524
710.83	0.526
711.02	0.527
711.20	0.526
711.39	0.524
711.57	0.522
711.76	0.522
711.94	0.519
712.13	0.520
712.31	0.520
712.50	0.515
712.68	0.513
712.87	0.514
713.05	0.514
713.24	0.514
713.42	0.513
713.61	0.514
713.79	0.515
713.98	0.515
714.16	0.516
714.35	0.516
714.54	0.517
714.72	0.517
714.91	0.514
715.09	0.521
715.28	0.524
715.46	0.525
715.65	0.522
715.83	0.522
716.02	0.525
716.20	0.522
716.39	0.521
716.57	0.522
716.76	0.524
716.94	0.524
717.12	0.516
717.31	0.518
717.49	0.520
717.68	0.522
717.86	0.520
718.05	0.522
718.23	0.524
718.42	0.527
718.60	0.528
718.79	0.536
718.97	0.539
719.16	0.539
719.34	0.536
719.53	0.535
719.71	0.536
719.90	0.537
720.08	0.534
720.27	0.535
720.45	0.535
720.63	0.533
720.82	0.526
721.00	0.528
721.19	0.532
721.37	0.532
721.56	0.532
721.74	0.535
721.93	0.544
722.11	0.550
722.30	0.549
722.48	0.553
722.66	0.555
722.85	0.554
723.03	0.554
723.22	0.552
723.40	0.556
723.59	0.555
723.77	0.560
723.95	0.553
724.14	0.554
724.32	0.556
724.51	0.555
724.69	0.556
724.88	0.557
725.06	0.555
725.24	0.556
725.43	0.558
725.61	0.560
725.80	0.554
725.98	0.552
726.16	0.548
726.35	0.555
726.53	0.553
726.72	0.552
726.90	0.562
727.09	0.563
727.27	0.569
727.45	0.565
727.64	0.573
727.82	0.582
728.01	0.586
728.19	0.582
728.37	0.587
728.56	0.592
728.74	0.598
728.92	0.585
729.11	0.587
729.29	0.586
729.48	0.589
729.66	0.577
729.84	0.577
730.03	0.582
730.21	0.584
730.40	0.574
730.58	0.574
730.76	0.575
730.95	0.578
731.13	0.578
731.31	0.590
731.50	0.600
731.68	0.604
731.86	0.598
732.05	0.611
732.23	0.616
732.42	0.619
732.60	0.622
732.78	0.626
732.97	0.644
733.15	0.651
733.33	0.640
733.52	0.646
733.70	0.657
733.88	0.666
734.07	0.651
734.25	0.677
734.43	0.685
734.62	0.689
734.80	0.682
734.98	0.674
735.17	0.681
735.35	0.687
735.53	0.676
735.72	0.679
735.90	0.701
736.08	0.719
736.27	0.694
736.45	0.703
736.63	0.714
736.82	0.723
737.00	0.725
737.18	0.736
737.37	0.768
737.55	0.791
737.73	0.785
737.92	0.789
738.10	0.788
738.28	0.808
738.46	0.795
738.65	0.808
738.83	0.828
739.01	0.876
739.20	0.866
739.38	0.844
739.56	0.835
739.75	0.837
739.93	0.801
740.11	0.824
740.29	0.826
740.48	0.834
740.66	0.812
740.84	0.811
741.03	0.778
741.21	0.785
741.39	0.768
741.57	0.778
741.76	0.796
741.94	0.800
742.12	0.764
742.31	0.766
742.49	0.786
742.67	0.809
742.85	0.819
743.04	0.825
743.22	0.838
743.40	0.890
743.58	0.872
743.77	0.891
743.95	0.928
744.13	0.981
744.31	0.961
744.50	0.951
744.68	0.948
744.86	0.923
745.04	0.929
745.23	0.989
745.41	0.970
745.59	0.977
745.77	0.938
745.96	0.927
746.14	0.938
746.32	0.937
746.50	0.927
746.69	0.917
746.87	0.929
747.05	0.917
747.23	0.845
747.42	0.834
747.60	0.864
747.78	0.867
747.96	0.891
748.14	0.846
748.33	0.872
748.51	0.868
748.69	0.859
748.87	0.882
749.06	0.881
749.24	0.880
749.42	0.865
749.60	0.845
749.78	0.857
749.97	0.818
750.15	0.811
750.33	0.812
750.51	0.837
750.69	0.841
750.88	0.845
751.06	0.851
751.24	0.878
751.42	0.866
751.60	0.858
751.79	0.920
751.97	0.963
752.15	0.964
752.33	0.933
752.51	0.994
752.69	1.009
752.88	0.979
753.06	1.024
753.24	0.999
753.42	1.043
753.60	1.201
753.78	1.066
753.97	1.084
754.15	1.103
754.33	1.132
754.51	1.005
754.69	0.990
754.87	1.019
755.06	0.946
755.24	0.945
755.42	0.950
755.60	0.860
755.78	0.867
755.96	0.815
756.15	0.816
756.33	0.820
756.51	0.837
756.69	0.827
756.87	0.799
757.05	0.819
757.23	0.806
757.42	0.776
757.60	0.774
757.78	0.765
757.96	0.765
758.14	0.748
758.32	0.737
758.50	0.753
758.69	0.751
758.87	0.739
759.05	0.742
759.23	0.749
759.41	0.748
759.59	0.740
759.77	0.763
759.95	0.786
760.13	0.832
760.32	0.829
760.50	0.820
760.68	0.844
760.86	0.846
761.04	0.821
761.22	0.828
761.40	0.874
761.58	0.874
761.76	0.847
761.95	0.830
762.13	0.787
762.31	0.788
762.49	0.758
762.67	0.773
762.85	0.788
763.03	0.783
763.21	0.765
763.39	0.747
763.57	0.752
763.75	0.745
763.94	0.732
764.12	0.734
764.30	0.757
764.48	0.763
764.66	0.727
764.84	0.722
765.02	0.759
765.20	0.765
765.38	0.747
765.56	0.753
765.74	0.793
765.92	0.793
766.10	0.798
766.28	0.793
766.46	0.820
766.65	0.823
766.83	0.815
767.01	0.801
767.19	0.809
767.37	0.809
767.55	0.794
767.73	0.773
767.91	0.777
768.09	0.766
768.27	0.754
768.45	0.745
768.63	0.750
768.81	0.751
768.99	0.724
769.17	0.746
769.35	0.761
769.53	0.760
769.71	0.742
769.89	0.751
770.07	0.758
770.25	0.742
770.43	0.721
770.61	0.744
770.79	0.750
770.97	0.762
771.15	0.731
771.33	0.731
771.51	0.731
771.69	0.742
771.87	0.752
772.05	0.759
772.24	0.767
772.42	0.774
772.60	0.751
772.78	0.806
772.96	0.829
773.14	0.827
773.32	0.804
773.49	0.815
773.67	0.813
773.85	0.790
774.03	0.775
774.21	0.806
774.39	0.817
774.57	0.839
774.75	0.773
774.93	0.772
775.11	0.791
775.29	0.800
775.47	0.799
775.65	0.807
775.83	0.826
776.01	0.850
776.19	0.803
776.37	0.806
776.55	0.805
776.73	0.798
776.91	0.789
777.09	0.774
777.27	0.771
777.45	0.761
777.63	0.741
777.81	0.735
777.99	0.721
778.17	0.722
778.35	0.700
778.53	0.690
778.71	0.699
778.89	0.689
779.07	0.677
779.24	0.681
779.42	0.682
779.60	0.699
779.78	0.694
779.96	0.700
780.14	0.708
780.32	0.729
780.50	0.711
780.68	0.709
780.86	0.701
781.04	0.719
781.22	0.723
781.40	0.733
781.58	0.725
781.75	0.718
781.93	0.701
782.11	0.699
782.29	0.687
782.47	0.687
782.65	0.675
782.83	0.703
783.01	0.698
783.19	0.694
783.37	0.679
783.55	0.682
783.72	0.699
783.90	0.709
784.08	0.703
784.26	0.714
784.44	0.735
784.62	0.738
784.80	0.703
784.98	0.709
785.16	0.712
785.33	0.729
785.51	0.715
785.69	0.703
785.87	0.705
786.05	0.716
786.23	0.710
786.41	0.708
786.59	0.714
786.77	0.714
786.94	0.701
787.12	0.705
787.30	0.707
787.48	0.704
787.66	0.693
787.84	0.691
788.02	0.682
788.19	0.683
788.37	0.669
788.55	0.671
788.73	0.672
788.91	0.667
789.09	0.649
789.27	0.638
789.44	0.650
789.62	0.655
789.80	0.664
789.98	0.688
790.16	0.674
790.34	0.671
790.51	0.657
790.69	0.677
790.87	0.682
791.05	0.681
791.23	0.675
791.41	0.675
791.58	0.685
791.76	0.666
791.94	0.636
792.12	0.643
792.30	0.647
792.48	0.645
792.65	0.638
792.83	0.645
793.01	0.651
793.19	0.650
793.37	0.635
793.54	0.630
793.72	0.641
793.90	0.640
794.08	0.630
794.26	0.629
794.43	0.639
794.61	0.622
794.79	0.610
794.97	0.610
795.15	0.617
795.32	0.620
795.50	0.609
795.68	0.602
795.86	0.605
796.04	0.607
796.21	0.600
796.39	0.597
796.57	0.612
796.75	0.620
796.92	0.621
797.10	0.626
797.28	0.628
797.46	0.632
797.64	0.635
797.81	0.644
797.99	0.648
798.17	0.651
798.35	0.647
798.52	0.649
798.70	0.645
798.88	0.652
799.06	0.650
799.23	0.654
799.41	0.662
799.59	0.655
799.77	0.643
799.94	0.651
800.12	0.661
800.30	0.678
800.48	0.675
800.65	0.675
800.83	0.667
801.01	0.658
801.19	0.655
801.36	0.652
801.54	0.656
801.72	0.666
801.90	0.654
802.07	0.649
802.25	0.635
802.43	0.622
802.60	0.619
802.78	0.624
802.96	0.629
803.14	0.625
803.31	0.623
803.49	0.623
803.67	0.618
803.84	0.622
804.02	0.614
804.20	0.617
804.38	0.621
804.55	0.618
804.73	0.605
804.91	0.606
805.08	0.619
805.26	0.616
805.44	0.677
805.61	0.682
805.79	0.682
805.97	0.682
806.15	0.674
806.32	0.670
806.50	0.679
806.68	0.680
806.85	0.672
807.03	0.663
807.21	0.680
807.38	0.613
807.56	0.602
807.74	0.612
807.91	0.620
808.09	0.623
808.27	0.641
808.44	0.664
808.62	0.673
808.80	0.675
808.97	0.670
809.15	0.665
809.33	0.683
809.50	0.691
809.68	0.676
809.86	0.682
810.03	0.712
810.21	0.691
810.39	0.676
810.56	0.682
810.74	0.706
810.91	0.778
811.09	0.765
811.27	0.786
811.44	0.788
811.62	0.791
811.80	0.774
811.97	0.743
812.15	0.743
812.33	0.736
812.50	0.721
812.68	0.709
812.85	0.655
813.03	0.657
813.21	0.626
813.38	0.622
813.56	0.623
813.74	0.632
813.91	0.639
814.09	0.670
814.26	0.664
814.44	0.668
814.62	0.656
814.79	0.659
814.97	0.665
815.14	0.668
815.32	0.675
815.50	0.693
815.67	0.695
815.85	0.687
816.02	0.672
816.20	0.680
816.38	0.694
816.55	0.699
816.73	0.698
816.90	0.706
817.08	0.737
817.26	0.739
817.43	0.716
817.61	0.738
817.78	0.759
817.96	0.739
818.13	0.730
818.31	0.731
818.49	0.743
818.66	0.733
818.84	0.717
819.01	0.696
819.19	0.701
819.36	0.702
819.54	0.675
819.71	0.715
819.89	0.729
820.07	0.738
820.24	0.730
820.42	0.732
820.59	0.753
820.77	0.779
820.94	0.767
821.12	0.784
821.29	0.802
821.47	0.804
821.64	0.740
821.82	0.755
822.00	0.755
822.17	0.754
822.35	0.747
822.52	0.750
822.70	0.737
822.87	0.749
823.05	0.728
823.22	0.739
823.40	0.763
823.57	0.788
823.75	0.764
823.92	0.791
824.10	0.807
824.27	0.843
824.45	0.828
824.62	0.886
824.80	0.903
824.97	0.916
825.15	0.904
825.32	0.921
825.50	0.923
825.67	0.940
825.85	0.914
826.02	0.929
826.20	0.955
826.37	1.082
826.55	1.002
826.72	1.179
826.90	1.266
827.07	1.321
827.25	1.263
827.42	1.411
827.60	1.555
827.77	1.727
827.95	1.717
828.12	1.866
828.30	1.440
828.47	1.612
828.65	1.227
828.82	1.283
829.00	1.368
829.17	1.489
829.34	1.499
829.52	1.589
829.69	-0.000
829.87	-0.000
830.04	-0.000
830.22	-0.000
830.39	-0.000
830.57	-0.000
830.74	-0.000
830.92	-0.000
831.09	-0.000
831.26	-0.000
831.44	-0.000
831.61	-0.000
831.79	-0.000
831.96	-0.000
832.14	-0.000
832.31	-0.000
832.49	-0.000
832.66	-0.000
832.83	-0.000
833.01	-0.000
833.18	-0.000
833.36	-0.000
833.53	-0.000
833.70	-0.000
833.88	-0.000
834.05	-0.000
834.23	-0.000
834.40	-0.000
834.58	-0.000
834.75	-0.000
834.92	-0.000
835.10	-0.000
835.27	-0.000
835.45	-0.000
835.62	-0.000
835.79	-0.000
835.97	-0.000
836.14	-0.000
836.32	-0.000
836.49	-0.000
836.66	-0.000
836.84	-0.000
837.01	-0.000
837.18	-0.000
837.36	-0.000
837.53	-0.000
837.71	-0.000
837.88	-0.000
838.05	-0.000
838.23	-0.000
838.40	-0.000
838.58	-0.000
838.75	-0.000
838.92	-0.000
839.10	-0.000
839.27	-0.000
839.44	-0.000
839.62	-0.000
839.79	-0.000
839.96	-0.000
840.14	-0.000
840.31	-0.000
840.48	-0.000
840.66	-0.000
840.83	-0.000
841.01	-0.000
841.18	-0.000
841.35	-0.000
841.53	-0.000
841.70	-0.000
841.87	-0.000
842.05	-0.000
842.22	-0.000
842.39	-0.000
842.57	-0.000
842.74	-0.000
842.91	-0.000
843.09	-0.000
843.26	-0.000
843.43	-0.000
843.60	-0.000
843.78	-0.000
843.95	-0.000
844.12	-0.000
844.30	-0.000
844.47	-0.000
844.64	-0.000
844.82	-0.000
844.99	-0.000
845.16	-0.000
845.34	-0.000
845.51	-0.000
845.68	-0.000
845.85	-0.000
846.03	-0.000
846.20	-0.000
846.37	-0.000
846.55	-0.000
846.72	-0.000
846.89	-0.000
847.06	-0.000
847.24	-0.000
847.41	-0.000
847.58	-0.000
847.76	-0.000
847.93	-0.000
848.10	-0.000
848.27	-0.000
848.45	-0.000
848.62	-0.000
848.79	-0.000
848.97	-0.000
849.14	-0.000
849.31	-0.000
849.48	-0.000
849.66	-0.000
849.83	-0.000
850.00	-0.000
850.17	-0.000
850.35	-0.000
850.52	-0.000
850.69	-0.000
850.86	-0.000
851.04	-0.000
851.21	-0.000
851.38	-0.000
851.55	-0.000
851.72	-0.000
851.90	-0.000
852.07	-0.000
852.24	-0.000
852.41	-0.000
852.59	-0.000
852.76	-0.000
852.93	-0.000
853.10	-0.000
853.28	-0.000
853.45	-0.000
853.62	-0.000
853.79	-0.000
853.96	-0.000
854.14	-0.000
854.31	-0.000
854.48	-0.000
854.65	-0.000
854.82	-0.000
855.00	-0.000
855.17	-0.000
855.34	-0.000
855.51	-0.000
855.68	-0.000
855.86	-0.000
856.03	-0.000
856.20	-0.000
856.37	-0.000
856.54	-0.000
856.72	-0.000
856.89	-0.000
857.06	-0.000
857.23	-0.000
857.40	-0.000
857.57	-0.000
857.75	-0.000
857.92	-0.000
858.09	-0.000
858.26	-0.000
858.43	-0.000
858.60	-0.000
858.78	-0.000
858.95	-0.000
859.12	-0.000
859.29	-0.000
859.46	-0.000
859.63	-0.000
859.81	-0.000
859.98	-0.000
860.15	-0.000
860.32	-0.000
860.49	-0.000
860.66	-0.000
860.83	-0.000
861.01	-0.000
861.18	-0.000
861.35	-0.000
861.52	-0.000
861.69	-0.000
861.86	-0.000
862.03	-0.000
862.21	-0.000
862.38	-0.000
862.55	-0.000
862.72	-0.000
862.89	-0.000
863.06	-0.000
863.23	-0.000
863.40	-0.000
863.58	-0.000
863.75	-0.000
863.92	-0.000
864.09	-0.000
864.26	-0.000
864.43	-0.000
864.60	-0.000
864.77	-0.000
864.94	-0.000
865.11	-0.000
865.29	-0.000
865.46	-0.000
865.63	-0.000
865.80	-0.000
865.97	-0.000
866.14	-0.000
866.31	-0.000
866.48	-0.000
866.65	-0.000
866.82	-0.000
866.99	-0.000
867.16	-0.000
867.34	-0.000
867.51	-0.000
867.68	-0.000
867.85	-0.000
868.02	-0.000
868.19	-0.000
868.36	-0.000
868.53	-0.000
868.70	-0.000
868.87	-0.000
869.04	-0.000
869.21	-0.000
869.38	-0.000
869.55	-0.000
869.72	-0.000
869.89	-0.000
870.06	-0.000
870.24	-0.000
870.41	-0.000
870.58	-0.000
870.75	-0.000
870.92	-0.000
871.09	-0.000
871.26	-0.000
871.43	-0.000
871.60	-0.000
871.77	-0.000
871.94	-0.000
872.11	-0.000
872.28	-0.000
872.45	-0.000
872.62	-0.000
872.79	-0.000
872.96	-0.000
873.13	-0.000
873.30	-0.000
873.47	-0.000
873.64	-0.000
873.81	-0.000
873.98	-0.000
874.15	-0.000
874.32	-0.000
874.49	-0.000
874.66	-0.000
874.83	-0.000
875.00	-0.000
875.17	-0.000
875.34	-0.000
875.51	-0.000
875.68	-0.000
875.85	-0.000
876.02	-0.000
876.19	-0.000
876.36	-0.000
876.53	-0.000
876.70	-0.000
876.87	-0.000
877.04	-0.000
877.21	-0.000
877.38	-0.000
877.55	-0.000
877.72	-0.000
877.89	-0.000
878.06	-0.000
878.23	-0.000
878.39	-0.000
878.56	-0.000
878.73	-0.000
878.90	-0.000
879.07	-0.000
879.24	-0.000
879.41	-0.000
879.58	-0.000
879.75	-0.000
879.92	-0.000
880.09	-0.000
880.26	-0.000
880.43	-0.000
880.60	-0.000
880.77	-0.000
880.94	-0.000
881.11	-0.000
881.27	-0.000
881.44	-0.000
881.61	-0.000
881.78	-0.000
881.95	-0.000
882.12	-0.000
882.29	-0.000
882.46	-0.000
882.63	-0.000
882.80	-0.000
882.97	-0.000
883.14	-0.000
883.30	-0.000
883.47	-0.000
883.64	-0.000
883.81	-0.000
883.98	-0.000
884.15	-0.000
884.32	-0.000
884.49	-0.000
884.66	-0.000
884.82	-0.000
884.99	-0.000
885.16	-0.000
885.33	-0.000
885.50	-0.000
885.67	-0.000
885.84	-0.000
886.01	-0.000
886.17	-0.000
886.34	-0.000
886.51	-0.000
886.68	-0.000
886.85	-0.000
887.02	-0.000
887.19	-0.000
887.36	-0.000
887.52	-0.000
887.69	-0.000
887.86	-0.000
888.03	-0.000
888.20	-0.000
888.37	-0.000
888.54	-0.000
888.70	-0.000
888.87	-0.000
889.04	-0.000
889.21	-0.000
889.38	-0.000
889.55	-0.000
889.71	-0.000
889.88	-0.000
890.05	-0.000
890.22	-0.000
890.39	-0.000
>>>>>End Processed Spectral Data<<<<<
