SpectraSuite Data File
++++++++++++++++++++++++++++++++++++
Date: Fri Jun 19 14:51:56 CEST 2015
User: introlabs
Dark Spectrum Present: Yes
Reference Spectrum Present: Yes
Number of Sampled Component Spectra: 1
Spectrometers: USB4H08886
Integration Time (usec): 745692 (USB4H08886)
Spectra Averaged: 5 (USB4H08886)
Boxcar Smoothing: 5 (USB4H08886)
Correct for Electrical Dark: Yes (USB4H08886)
Strobe/Lamp Enabled: No (USB4H08886)
Correct for Detector Non-linearity: Yes (USB4H08886)
Correct for Stray Light: Yes (USB4H08886)
Number of Pixels in Processed Spectrum: 3648
>>>>>Begin Processed Spectral Data<<<<<
178.14	-0.000
178.36	-0.000
178.57	-0.000
178.79	-0.000
179.01	-0.000
179.22	-0.000
179.44	-0.000
179.65	-0.000
179.87	-0.000
180.08	-0.000
180.30	-0.000
180.52	-0.000
180.73	-0.000
180.95	-0.000
181.16	-0.000
181.38	-0.000
181.59	-0.000
181.81	-0.000
182.03	-0.000
182.24	-0.000
182.46	-0.000
182.67	-0.000
182.89	-0.000
183.10	-0.000
183.32	-0.000
183.54	-0.000
183.75	-0.000
183.97	-0.000
184.18	-0.000
184.40	-0.000
184.61	-0.000
184.83	-0.000
185.04	-0.000
185.26	-0.000
185.48	-0.000
185.69	-0.000
185.91	-0.000
186.12	-0.000
186.34	-0.000
186.55	-0.000
186.77	-0.000
186.98	-0.000
187.20	-0.000
187.42	-0.000
187.63	-0.000
187.85	-0.000
188.06	-0.000
188.28	-0.000
188.49	-0.000
188.71	-0.000
188.92	-0.000
189.14	-0.000
189.36	-0.000
189.57	-0.000
189.79	-0.000
190.00	-0.000
190.22	-0.000
190.43	-0.000
190.65	-0.000
190.86	-0.000
191.08	-0.000
191.29	-0.000
191.51	-0.000
191.72	-0.000
191.94	-0.000
192.16	-0.000
192.37	-0.000
192.59	-0.000
192.80	-0.000
193.02	-0.000
193.23	-0.000
193.45	-0.000
193.66	-0.000
193.88	-0.000
194.09	-0.000
194.31	-0.000
194.52	-0.000
194.74	-0.000
194.95	-0.000
195.17	-0.000
195.38	-0.000
195.60	-0.000
195.81	-0.000
196.03	-0.000
196.25	-0.000
196.46	-0.000
196.68	-0.000
196.89	-0.000
197.11	-0.000
197.32	-0.000
197.54	-0.000
197.75	-0.000
197.97	-0.000
198.18	-0.000
198.40	-0.000
198.61	-0.000
198.83	-0.000
199.04	-0.000
199.26	-0.000
199.47	-0.000
199.69	-0.000
199.90	-0.000
200.12	-0.000
200.33	-0.000
200.55	-0.000
200.76	-0.000
200.98	-0.000
201.19	-0.000
201.41	-0.000
201.62	-0.000
201.84	-0.000
202.05	-0.000
202.27	-0.000
202.48	-0.000
202.70	-0.000
202.91	-0.000
203.13	-0.000
203.34	-0.000
203.56	-0.000
203.77	-0.000
203.99	-0.000
204.20	-0.000
204.42	-0.000
204.63	-0.000
204.85	-0.000
205.06	-0.000
205.28	-0.000
205.49	-0.000
205.71	-0.000
205.92	-0.000
206.14	-0.000
206.35	-0.000
206.56	-0.000
206.78	-0.000
206.99	-0.000
207.21	-0.000
207.42	-0.000
207.64	-0.000
207.85	-0.000
208.07	-0.000
208.28	-0.000
208.50	-0.000
208.71	-0.000
208.93	-0.000
209.14	-0.000
209.36	-0.000
209.57	-0.000
209.79	-0.000
210.00	-0.000
210.22	-0.000
210.43	-0.000
210.64	-0.000
210.86	-0.000
211.07	-0.000
211.29	-0.000
211.50	-0.000
211.72	-0.000
211.93	-0.000
212.15	-0.000
212.36	-0.000
212.58	-0.000
212.79	-0.000
213.01	-0.000
213.22	-0.000
213.43	-0.000
213.65	-0.000
213.86	-0.000
214.08	-0.000
214.29	-0.000
214.51	-0.000
214.72	-0.000
214.94	-0.000
215.15	-0.000
215.36	-0.000
215.58	-0.000
215.79	-0.000
216.01	-0.000
216.22	-0.000
216.44	-0.000
216.65	-0.000
216.87	-0.000
217.08	-0.000
217.29	-0.000
217.51	-0.000
217.72	-0.000
217.94	-0.000
218.15	-0.000
218.37	-0.000
218.58	-0.000
218.80	-0.000
219.01	-0.000
219.22	-0.000
219.44	-0.000
219.65	-0.000
219.87	-0.000
220.08	-0.000
220.30	-0.000
220.51	-0.000
220.72	-0.000
220.94	-0.000
221.15	-0.000
221.37	-0.000
221.58	-0.000
221.79	-0.000
222.01	-0.000
222.22	-0.000
222.44	-0.000
222.65	-0.000
222.87	-0.000
223.08	-0.000
223.29	-0.000
223.51	-0.000
223.72	-0.000
223.94	-0.000
224.15	-0.000
224.36	-0.000
224.58	-0.000
224.79	-0.000
225.01	-0.000
225.22	-0.000
225.44	-0.000
225.65	-0.000
225.86	-0.000
226.08	-0.000
226.29	-0.000
226.51	-0.000
226.72	-0.000
226.93	-0.000
227.15	-0.000
227.36	-0.000
227.58	-0.000
227.79	-0.000
228.00	-0.000
228.22	-0.000
228.43	-0.000
228.65	-0.000
228.86	-0.000
229.07	-0.000
229.29	-0.000
229.50	-0.000
229.72	-0.000
229.93	-0.000
230.14	-0.000
230.36	-0.000
230.57	-0.000
230.78	-0.000
231.00	-0.000
231.21	-0.000
231.43	-0.000
231.64	-0.000
231.85	-0.000
232.07	-0.000
232.28	-0.000
232.50	-0.000
232.71	-0.000
232.92	-0.000
233.14	-0.000
233.35	-0.000
233.56	-0.000
233.78	-0.000
233.99	-0.000
234.21	-0.000
234.42	-0.000
234.63	-0.000
234.85	-0.000
235.06	-0.000
235.27	-0.000
235.49	-0.000
235.70	-0.000
235.91	-0.000
236.13	-0.000
236.34	-0.000
236.56	-0.000
236.77	-0.000
236.98	-0.000
237.20	-0.000
237.41	-0.000
237.62	-0.000
237.84	-0.000
238.05	-0.000
238.26	-0.000
238.48	-0.000
238.69	-0.000
238.91	-0.000
239.12	-0.000
239.33	-0.000
239.55	-0.000
239.76	-0.000
239.97	-0.000
240.19	-0.000
240.40	-0.000
240.61	-0.000
240.83	-0.000
241.04	-0.000
241.25	-0.000
241.47	-0.000
241.68	-0.000
241.89	-0.000
242.11	-0.000
242.32	-0.000
242.53	-0.000
242.75	-0.000
242.96	-0.000
243.17	-0.000
243.39	-0.000
243.60	-0.000
243.81	-0.000
244.03	-0.000
244.24	-0.000
244.45	-0.000
244.67	-0.000
244.88	-0.000
245.09	-0.000
245.31	-0.000
245.52	-0.000
245.73	-0.000
245.95	-0.000
246.16	-0.000
246.37	-0.000
246.59	-0.000
246.80	-0.000
247.01	-0.000
247.23	-0.000
247.44	-0.000
247.65	-0.000
247.87	-0.000
248.08	-0.000
248.29	-0.000
248.51	-0.000
248.72	-0.000
248.93	-0.000
249.15	-0.000
249.36	-0.000
249.57	-0.000
249.78	-0.000
250.00	-0.000
250.21	-0.000
250.42	-0.000
250.64	-0.000
250.85	-0.000
251.06	-0.000
251.28	-0.000
251.49	-0.000
251.70	-0.000
251.92	-0.000
252.13	-0.000
252.34	-0.000
252.55	-0.000
252.77	-0.000
252.98	-0.000
253.19	-0.000
253.41	-0.000
253.62	-0.000
253.83	-0.000
254.05	-0.000
254.26	-0.000
254.47	-0.000
254.68	-0.000
254.90	-0.000
255.11	-0.000
255.32	-0.000
255.54	-0.000
255.75	-0.000
255.96	-0.000
256.17	-0.000
256.39	-0.000
256.60	-0.000
256.81	-0.000
257.03	-0.000
257.24	-0.000
257.45	-0.000
257.66	-0.000
257.88	-0.000
258.09	-0.000
258.30	-0.000
258.51	-0.000
258.73	-0.000
258.94	-0.000
259.15	-0.000
259.37	-0.000
259.58	-0.000
259.79	-0.000
260.00	-0.000
260.22	-0.000
260.43	-0.000
260.64	-0.000
260.85	-0.000
261.07	-0.000
261.28	-0.000
261.49	-0.000
261.71	-0.000
261.92	-0.000
262.13	-0.000
262.34	-0.000
262.56	-0.000
262.77	-0.000
262.98	-0.000
263.19	-0.000
263.41	-0.000
263.62	-0.000
263.83	-0.000
264.04	-0.000
264.26	-0.000
264.47	-0.000
264.68	-0.000
264.89	-0.000
265.11	-0.000
265.32	-0.000
265.53	-0.000
265.74	-0.000
265.96	-0.000
266.17	-0.000
266.38	-0.000
266.59	-0.000
266.81	-0.000
267.02	-0.000
267.23	-0.000
267.44	-0.000
267.65	-0.000
267.87	-0.000
268.08	-0.000
268.29	-0.000
268.50	-0.000
268.72	-0.000
268.93	-0.000
269.14	-0.000
269.35	-0.000
269.57	-0.000
269.78	-0.000
269.99	-0.000
270.20	-0.000
270.41	-0.000
270.63	-0.000
270.84	-0.000
271.05	-0.000
271.26	-0.000
271.48	-0.000
271.69	-0.000
271.90	-0.000
272.11	-0.000
272.32	-0.000
272.54	-0.000
272.75	-0.000
272.96	-0.000
273.17	-0.000
273.39	-0.000
273.60	-0.000
273.81	-0.000
274.02	-0.000
274.23	-0.000
274.45	-0.000
274.66	-0.000
274.87	-0.000
275.08	-0.000
275.29	-0.000
275.51	-0.000
275.72	-0.000
275.93	-0.000
276.14	-0.000
276.35	-0.000
276.57	-0.000
276.78	-0.000
276.99	-0.000
277.20	-0.000
277.41	-0.000
277.63	-0.000
277.84	-0.000
278.05	-0.000
278.26	-0.000
278.47	-0.000
278.69	-0.000
278.90	-0.000
279.11	-0.000
279.32	-0.000
279.53	-0.000
279.74	-0.000
279.96	-0.000
280.17	-0.000
280.38	-0.000
280.59	-0.000
280.80	-0.000
281.02	-0.000
281.23	-0.000
281.44	-0.000
281.65	-0.000
281.86	-0.000
282.07	-0.000
282.29	-0.000
282.50	-0.000
282.71	-0.000
282.92	-0.000
283.13	-0.000
283.35	-0.000
283.56	-0.000
283.77	-0.000
283.98	-0.000
284.19	-0.000
284.40	-0.000
284.62	-0.000
284.83	-0.000
285.04	-0.000
285.25	-0.000
285.46	-0.000
285.67	-0.000
285.88	-0.000
286.10	-0.000
286.31	-0.000
286.52	-0.000
286.73	-0.000
286.94	-0.000
287.15	-0.000
287.37	-0.000
287.58	-0.000
287.79	-0.000
288.00	-0.000
288.21	-0.000
288.42	-0.000
288.63	-0.000
288.85	-0.000
289.06	-0.000
289.27	-0.000
289.48	-0.000
289.69	-0.000
289.90	-0.000
290.11	-0.000
290.33	-0.000
290.54	-0.000
290.75	-0.000
290.96	-0.000
291.17	-0.000
291.38	-0.000
291.59	-0.000
291.81	-0.000
292.02	-0.000
292.23	-0.000
292.44	-0.000
292.65	-0.000
292.86	-0.000
293.07	-0.000
293.28	-0.000
293.50	-0.000
293.71	-0.000
293.92	-0.000
294.13	-0.000
294.34	-0.000
294.55	-0.000
294.76	-0.000
294.97	-0.000
295.19	-0.000
295.40	-0.000
295.61	-0.000
295.82	-0.000
296.03	-0.000
296.24	-0.000
296.45	2.256
296.66	1.818
296.87	1.837
297.09	1.931
297.30	2.180
297.51	1.766
297.72	1.730
297.93	1.840
298.14	1.803
298.35	1.750
298.56	1.733
298.77	1.879
298.99	1.846
299.20	1.821
299.41	1.780
299.62	1.728
299.83	1.724
300.04	1.653
300.25	1.643
300.46	1.690
300.67	1.660
300.88	1.593
301.10	1.586
301.31	1.664
301.52	1.601
301.73	1.544
301.94	1.537
302.15	1.553
302.36	1.506
302.57	1.438
302.78	1.443
302.99	1.488
303.20	1.512
303.41	1.423
303.63	1.406
303.84	1.408
304.05	1.408
304.26	1.351
304.47	1.354
304.68	1.352
304.89	1.343
305.10	1.303
305.31	1.285
305.52	1.328
305.73	1.322
305.94	1.283
306.15	1.275
306.37	1.293
306.58	1.301
306.79	1.272
307.00	1.298
307.21	1.337
307.42	1.329
307.63	1.296
307.84	1.261
308.05	1.298
308.26	1.296
308.47	1.270
308.68	1.268
308.89	1.266
309.10	1.262
309.31	1.222
309.52	1.213
309.73	1.228
309.95	1.221
310.16	1.195
310.37	1.181
310.58	1.200
310.79	1.201
311.00	1.196
311.21	1.199
311.42	1.201
311.63	1.195
311.84	1.178
312.05	1.177
312.26	1.200
312.47	1.213
312.68	1.189
312.89	1.172
313.10	1.179
313.31	1.152
313.52	1.154
313.73	1.156
313.94	1.156
314.15	1.137
314.36	1.115
314.57	1.104
314.78	1.091
314.99	1.087
315.21	1.075
315.42	1.080
315.63	1.090
315.84	1.067
316.05	1.053
316.26	1.062
316.47	1.081
316.68	1.079
316.89	1.063
317.10	1.082
317.31	1.086
317.52	1.087
317.73	1.067
317.94	1.068
318.15	1.110
318.36	1.112
318.57	1.094
318.78	1.083
318.99	1.119
319.20	1.116
319.41	1.082
319.62	1.084
319.83	1.098
320.04	1.093
320.25	1.080
320.46	1.048
320.67	1.049
320.88	1.046
321.09	1.030
321.30	1.014
321.51	1.028
321.72	1.027
321.93	1.011
322.14	1.002
322.35	1.029
322.56	1.031
322.77	1.017
322.98	1.028
323.19	1.036
323.40	1.043
323.61	1.021
323.82	1.018
324.03	1.022
324.24	1.019
324.45	1.007
324.66	0.988
324.87	0.984
325.08	0.986
325.29	0.966
325.50	0.960
325.71	0.965
325.92	0.974
326.13	0.959
326.34	0.959
326.55	0.967
326.76	0.966
326.97	0.955
327.18	0.950
327.39	0.973
327.60	0.974
327.80	0.973
328.01	0.971
328.22	0.970
328.43	0.974
328.64	0.962
328.85	0.967
329.06	0.968
329.27	0.967
329.48	0.963
329.69	0.944
329.90	0.954
330.11	0.948
330.32	0.941
330.53	0.935
330.74	0.935
330.95	0.936
331.16	0.920
331.37	0.930
331.58	0.929
331.79	0.929
332.00	0.920
332.21	0.913
332.42	0.916
332.63	0.907
332.83	0.904
333.04	0.905
333.25	0.916
333.46	0.915
333.67	0.901
333.88	0.904
334.09	0.914
334.30	0.910
334.51	0.902
334.72	0.898
334.93	0.901
335.14	0.900
335.35	0.892
335.56	0.888
335.77	0.895
335.98	0.895
336.18	0.889
336.39	0.883
336.60	0.887
336.81	0.886
337.02	0.885
337.23	0.889
337.44	0.892
337.65	0.893
337.86	0.883
338.07	0.877
338.28	0.881
338.49	0.877
338.70	0.869
338.91	0.875
339.11	0.882
339.32	0.878
339.53	0.867
339.74	0.863
339.95	0.859
340.16	0.858
340.37	0.850
340.58	0.849
340.79	0.852
341.00	0.853
341.21	0.843
341.41	0.844
341.62	0.845
341.83	0.846
342.04	0.841
342.25	0.853
342.46	0.858
342.67	0.857
342.88	0.850
343.09	0.849
343.30	0.856
343.50	0.858
343.71	0.848
343.92	0.847
344.13	0.851
344.34	0.851
344.55	0.835
344.76	0.833
344.97	0.839
345.18	0.837
345.38	0.834
345.59	0.828
345.80	0.828
346.01	0.827
346.22	0.822
346.43	0.817
346.64	0.825
346.85	0.823
347.06	0.816
347.26	0.817
347.47	0.821
347.68	0.816
347.89	0.812
348.10	0.806
348.31	0.812
348.52	0.812
348.73	0.809
348.93	0.805
349.14	0.808
349.35	0.809
349.56	0.802
349.77	0.798
349.98	0.804
350.19	0.802
350.39	0.797
350.60	0.793
350.81	0.808
351.02	0.807
351.23	0.802
351.44	0.805
351.65	0.807
351.86	0.805
352.06	0.804
352.27	0.804
352.48	0.805
352.69	0.805
352.90	0.799
353.11	0.785
353.31	0.794
353.52	0.790
353.73	0.781
353.94	0.783
354.15	0.789
354.36	0.789
354.57	0.780
354.77	0.782
354.98	0.782
355.19	0.781
355.40	0.782
355.61	0.787
355.82	0.791
356.02	0.791
356.23	0.783
356.44	0.785
356.65	0.787
356.86	0.787
357.07	0.781
357.27	0.784
357.48	0.787
357.69	0.782
357.90	0.766
358.11	0.763
358.32	0.766
358.52	0.769
358.73	0.760
358.94	0.762
359.15	0.766
359.36	0.767
359.56	0.762
359.77	0.759
359.98	0.767
360.19	0.766
360.40	0.762
360.61	0.763
360.81	0.762
361.02	0.762
361.23	0.754
361.44	0.752
361.65	0.752
361.85	0.751
362.06	0.749
362.27	0.750
362.48	0.752
362.69	0.753
362.89	0.747
363.10	0.749
363.31	0.753
363.52	0.756
363.73	0.752
363.93	0.752
364.14	0.754
364.35	0.756
364.56	0.746
364.77	0.747
364.97	0.750
365.18	0.750
365.39	0.744
365.60	0.741
365.81	0.742
366.01	0.741
366.22	0.739
366.43	0.738
366.64	0.740
366.84	0.746
367.05	0.742
367.26	0.742
367.47	0.744
367.68	0.744
367.88	0.741
368.09	0.739
368.30	0.742
368.51	0.741
368.71	0.741
368.92	0.744
369.13	0.742
369.34	0.741
369.55	0.740
369.75	0.740
369.96	0.747
370.17	0.747
370.38	0.744
370.58	0.743
370.79	0.748
371.00	0.746
371.21	0.738
371.41	0.743
371.62	0.747
371.83	0.742
372.04	0.740
372.24	0.734
372.45	0.735
372.66	0.736
372.87	0.734
373.07	0.731
373.28	0.732
373.49	0.735
373.70	0.726
373.90	0.725
374.11	0.734
374.32	0.733
374.53	0.732
374.73	0.732
374.94	0.734
375.15	0.734
375.36	0.731
375.56	0.739
375.77	0.739
375.98	0.740
376.19	0.737
376.39	0.730
376.60	0.734
376.81	0.735
377.02	0.732
377.22	0.732
377.43	0.731
377.64	0.732
377.84	0.723
378.05	0.728
378.26	0.734
378.47	0.734
378.67	0.731
378.88	0.728
379.09	0.729
379.30	0.729
379.50	0.726
379.71	0.728
379.92	0.731
380.12	0.730
380.33	0.722
380.54	0.718
380.75	0.724
380.95	0.725
381.16	0.724
381.37	0.724
381.57	0.726
381.78	0.726
381.99	0.726
382.20	0.725
382.40	0.728
382.61	0.729
382.82	0.726
383.02	0.719
383.23	0.722
383.44	0.722
383.64	0.720
383.85	0.722
384.06	0.725
384.27	0.723
384.47	0.721
384.68	0.721
384.89	0.726
385.09	0.726
385.30	0.725
385.51	0.724
385.71	0.727
385.92	0.728
386.13	0.726
386.33	0.728
386.54	0.729
386.75	0.729
386.95	0.725
387.16	0.721
387.37	0.723
387.58	0.723
387.78	0.721
387.99	0.719
388.20	0.720
388.40	0.718
388.61	0.714
388.82	0.717
389.02	0.719
389.23	0.719
389.44	0.717
389.64	0.717
389.85	0.729
390.06	0.729
390.26	0.730
390.47	0.729
390.68	0.732
390.88	0.730
391.09	0.727
391.30	0.726
391.50	0.726
391.71	0.727
391.92	0.724
392.12	0.716
392.33	0.716
392.53	0.716
392.74	0.716
392.95	0.715
393.15	0.717
393.36	0.718
393.57	0.717
393.77	0.720
393.98	0.722
394.19	0.722
394.39	0.722
394.60	0.723
394.81	0.725
395.01	0.723
395.22	0.722
395.43	0.723
395.63	0.728
395.84	0.729
396.04	0.725
396.25	0.726
396.46	0.728
396.66	0.726
396.87	0.724
397.08	0.720
397.28	0.721
397.49	0.722
397.69	0.718
397.90	0.713
398.11	0.714
398.31	0.714
398.52	0.710
398.73	0.712
398.93	0.711
399.14	0.710
399.34	0.709
399.55	0.711
399.76	0.712
399.96	0.713
400.17	0.712
400.37	0.710
400.58	0.717
400.79	0.719
400.99	0.717
401.20	0.723
401.41	0.725
401.61	0.726
401.82	0.731
402.02	0.730
402.23	0.732
402.44	0.732
402.64	0.733
402.85	0.727
403.05	0.726
403.26	0.725
403.47	0.718
403.67	0.717
403.88	0.718
404.08	0.712
404.29	0.711
404.50	0.710
404.70	0.711
404.91	0.710
405.11	0.707
405.32	0.708
405.52	0.708
405.73	0.708
405.94	0.706
406.14	0.709
406.35	0.711
406.55	0.710
406.76	0.708
406.97	0.708
407.17	0.711
407.38	0.711
407.58	0.709
407.79	0.711
407.99	0.714
408.20	0.715
408.41	0.711
408.61	0.709
408.82	0.709
409.02	0.710
409.23	0.708
409.43	0.707
409.64	0.708
409.84	0.708
410.05	0.704
410.26	0.702
410.46	0.702
410.67	0.701
410.87	0.703
411.08	0.705
411.28	0.706
411.49	0.706
411.69	0.704
411.90	0.706
412.11	0.707
412.31	0.708
412.52	0.707
412.72	0.708
412.93	0.709
413.13	0.708
413.34	0.705
413.54	0.706
413.75	0.708
413.95	0.708
414.16	0.704
414.37	0.708
414.57	0.708
414.78	0.711
414.98	0.709
415.19	0.710
415.39	0.707
415.60	0.709
415.80	0.709
416.01	0.707
416.21	0.709
416.42	0.709
416.62	0.704
416.83	0.703
417.03	0.703
417.24	0.703
417.44	0.701
417.65	0.701
417.86	0.701
418.06	0.699
418.27	0.696
418.47	0.698
418.68	0.698
418.88	0.699
419.09	0.698
419.29	0.698
419.50	0.698
419.70	0.698
419.91	0.696
420.11	0.694
420.32	0.696
420.52	0.695
420.73	0.695
420.93	0.696
421.14	0.697
421.34	0.696
421.55	0.693
421.75	0.693
421.96	0.694
422.16	0.694
422.37	0.693
422.57	0.690
422.78	0.692
422.98	0.688
423.19	0.686
423.39	0.684
423.60	0.688
423.80	0.689
424.01	0.688
424.21	0.690
424.42	0.691
424.62	0.690
424.83	0.690
425.03	0.690
425.23	0.693
425.44	0.693
425.64	0.694
425.85	0.692
426.05	0.693
426.26	0.693
426.46	0.689
426.67	0.689
426.87	0.694
427.08	0.695
427.28	0.693
427.49	0.694
427.69	0.695
427.90	0.694
428.10	0.691
428.31	0.690
428.51	0.692
428.71	0.691
428.92	0.692
429.12	0.689
429.33	0.690
429.53	0.694
429.74	0.697
429.94	0.697
430.15	0.696
430.35	0.696
430.56	0.694
430.76	0.693
430.96	0.694
431.17	0.691
431.37	0.688
431.58	0.685
431.78	0.682
431.99	0.675
432.19	0.677
432.40	0.679
432.60	0.680
432.80	0.682
433.01	0.680
433.21	0.680
433.42	0.682
433.62	0.682
433.83	0.682
434.03	0.684
434.23	0.687
434.44	0.686
434.64	0.683
434.85	0.688
435.05	0.689
435.26	0.689
435.46	0.688
435.66	0.688
435.87	0.688
436.07	0.689
436.28	0.684
436.48	0.681
436.69	0.681
436.89	0.682
437.09	0.675
437.30	0.674
437.50	0.675
437.71	0.686
437.91	0.685
438.11	0.686
438.32	0.690
438.52	0.691
438.73	0.690
438.93	0.688
439.13	0.688
439.34	0.691
439.54	0.689
439.75	0.689
439.95	0.679
440.15	0.683
440.36	0.682
440.56	0.679
440.77	0.680
440.97	0.679
441.17	0.678
441.38	0.679
441.58	0.676
441.79	0.676
441.99	0.674
442.19	0.673
442.40	0.671
442.60	0.671
442.81	0.668
443.01	0.668
443.21	0.668
443.42	0.668
443.62	0.666
443.82	0.666
444.03	0.668
444.23	0.667
444.44	0.668
444.64	0.666
444.84	0.667
445.05	0.668
445.25	0.666
445.45	0.667
445.66	0.669
445.86	0.668
446.06	0.670
446.27	0.669
446.47	0.672
446.68	0.670
446.88	0.670
447.08	0.668
447.29	0.670
447.49	0.669
447.69	0.669
447.90	0.667
448.10	0.670
448.30	0.668
448.51	0.669
448.71	0.667
448.91	0.669
449.12	0.667
449.32	0.669
449.52	0.668
449.73	0.672
449.93	0.672
450.14	0.672
450.34	0.672
450.54	0.674
450.75	0.671
450.95	0.670
451.15	0.670
451.36	0.672
451.56	0.669
451.76	0.668
451.97	0.665
452.17	0.665
452.37	0.664
452.58	0.660
452.78	0.660
452.98	0.662
453.19	0.661
453.39	0.662
453.59	0.661
453.79	0.662
454.00	0.662
454.20	0.661
454.40	0.662
454.61	0.664
454.81	0.664
455.01	0.662
455.22	0.664
455.42	0.665
455.62	0.663
455.83	0.663
456.03	0.666
456.23	0.667
456.44	0.668
456.64	0.667
456.84	0.667
457.04	0.667
457.25	0.667
457.45	0.663
457.65	0.663
457.86	0.664
458.06	0.663
458.26	0.658
458.47	0.657
458.67	0.658
458.87	0.658
459.07	0.656
459.28	0.658
459.48	0.660
459.68	0.659
459.89	0.659
460.09	0.657
460.29	0.658
460.49	0.659
460.70	0.658
460.90	0.658
461.10	0.659
461.31	0.658
461.51	0.655
461.71	0.657
461.91	0.658
462.12	0.658
462.32	0.657
462.52	0.658
462.72	0.661
462.93	0.661
463.13	0.660
463.33	0.661
463.53	0.663
463.74	0.662
463.94	0.658
464.14	0.658
464.35	0.659
464.55	0.660
464.75	0.658
464.95	0.655
465.16	0.657
465.36	0.655
465.56	0.654
465.76	0.653
465.97	0.654
466.17	0.655
466.37	0.653
466.57	0.654
466.78	0.654
466.98	0.654
467.18	0.652
467.38	0.651
467.59	0.653
467.79	0.654
467.99	0.653
468.19	0.654
468.39	0.657
468.60	0.657
468.80	0.655
469.00	0.657
469.20	0.658
469.41	0.658
469.61	0.658
469.81	0.659
470.01	0.658
470.22	0.659
470.42	0.657
470.62	0.654
470.82	0.656
471.02	0.656
471.23	0.653
471.43	0.653
471.63	0.655
471.83	0.655
472.04	0.653
472.24	0.652
472.44	0.657
472.64	0.658
472.84	0.656
473.05	0.656
473.25	0.658
473.45	0.657
473.65	0.656
473.85	0.656
474.06	0.657
474.26	0.656
474.46	0.657
474.66	0.653
474.86	0.654
475.07	0.654
475.27	0.652
475.47	0.650
475.67	0.650
475.87	0.652
476.08	0.649
476.28	0.650
476.48	0.651
476.68	0.650
476.88	0.648
477.09	0.649
477.29	0.651
477.49	0.652
477.69	0.651
477.89	0.651
478.09	0.650
478.30	0.652
478.50	0.649
478.70	0.648
478.90	0.649
479.10	0.652
479.31	0.652
479.51	0.651
479.71	0.651
479.91	0.651
480.11	0.650
480.31	0.651
480.52	0.650
480.72	0.650
480.92	0.649
481.12	0.648
481.32	0.645
481.52	0.644
481.72	0.644
481.93	0.648
482.13	0.649
482.33	0.649
482.53	0.647
482.73	0.647
482.93	0.649
483.14	0.648
483.34	0.647
483.54	0.648
483.74	0.648
483.94	0.646
484.14	0.642
484.34	0.642
484.55	0.643
484.75	0.643
484.95	0.641
485.15	0.641
485.35	0.641
485.55	0.641
485.75	0.639
485.96	0.639
486.16	0.640
486.36	0.640
486.56	0.638
486.76	0.638
486.96	0.637
487.16	0.636
487.36	0.634
487.57	0.634
487.77	0.634
487.97	0.635
488.17	0.633
488.37	0.632
488.57	0.633
488.77	0.633
488.97	0.632
489.18	0.631
489.38	0.634
489.58	0.635
489.78	0.634
489.98	0.634
490.18	0.634
490.38	0.635
490.58	0.634
490.78	0.634
490.98	0.635
491.19	0.636
491.39	0.636
491.59	0.634
491.79	0.637
491.99	0.637
492.19	0.637
492.39	0.640
492.59	0.640
492.79	0.642
492.99	0.643
493.20	0.643
493.40	0.643
493.60	0.645
493.80	0.643
494.00	0.641
494.20	0.641
494.40	0.640
494.60	0.638
494.80	0.643
495.00	0.641
495.20	0.639
495.40	0.638
495.61	0.639
495.81	0.639
496.01	0.642
496.21	0.643
496.41	0.642
496.61	0.642
496.81	0.641
497.01	0.636
497.21	0.635
497.41	0.637
497.61	0.636
497.81	0.634
498.01	0.634
498.21	0.632
498.41	0.630
498.61	0.630
498.82	0.632
499.02	0.634
499.22	0.634
499.42	0.634
499.62	0.635
499.82	0.635
500.02	0.637
500.22	0.635
500.42	0.637
500.62	0.638
500.82	0.638
501.02	0.636
501.22	0.637
501.42	0.637
501.62	0.639
501.82	0.638
502.02	0.639
502.22	0.638
502.42	0.640
502.62	0.637
502.82	0.637
503.02	0.638
503.22	0.638
503.42	0.636
503.63	0.636
503.83	0.634
504.03	0.633
504.23	0.631
504.43	0.632
504.63	0.633
504.83	0.633
505.03	0.631
505.23	0.632
505.43	0.634
505.63	0.635
505.83	0.634
506.03	0.636
506.23	0.638
506.43	0.638
506.63	0.637
506.83	0.635
507.03	0.637
507.23	0.638
507.43	0.636
507.63	0.636
507.83	0.636
508.03	0.636
508.23	0.635
508.43	0.634
508.63	0.637
508.83	0.637
509.03	0.638
509.23	0.637
509.43	0.639
509.63	0.639
509.83	0.638
510.03	0.640
510.23	0.642
510.43	0.642
510.63	0.643
510.83	0.642
511.03	0.644
511.23	0.641
511.43	0.641
511.63	0.642
511.83	0.645
512.03	0.645
512.22	0.642
512.42	0.641
512.62	0.642
512.82	0.641
513.02	0.641
513.22	0.640
513.42	0.642
513.62	0.644
513.82	0.642
514.02	0.642
514.22	0.643
514.42	0.644
514.62	0.644
514.82	0.644
515.02	0.647
515.22	0.649
515.42	0.648
515.62	0.651
515.82	0.650
516.02	0.651
516.22	0.650
516.42	0.651
516.62	0.653
516.82	0.654
517.01	0.653
517.21	0.652
517.41	0.655
517.61	0.656
517.81	0.652
518.01	0.651
518.21	0.651
518.41	0.650
518.61	0.648
518.81	0.649
519.01	0.650
519.21	0.650
519.41	0.649
519.61	0.643
519.81	0.646
520.00	0.646
520.20	0.647
520.40	0.650
520.60	0.651
520.80	0.650
521.00	0.650
521.20	0.651
521.40	0.656
521.60	0.656
521.80	0.655
522.00	0.655
522.20	0.656
522.39	0.656
522.59	0.653
522.79	0.655
522.99	0.657
523.19	0.655
523.39	0.653
523.59	0.651
523.79	0.654
523.99	0.656
524.19	0.655
524.38	0.654
524.58	0.655
524.78	0.656
524.98	0.653
525.18	0.656
525.38	0.657
525.58	0.657
525.78	0.656
525.98	0.654
526.18	0.654
526.37	0.654
526.57	0.656
526.77	0.656
526.97	0.656
527.17	0.657
527.37	0.653
527.57	0.655
527.77	0.656
527.96	0.656
528.16	0.654
528.36	0.656
528.56	0.657
528.76	0.655
528.96	0.654
529.16	0.656
529.36	0.658
529.55	0.658
529.75	0.656
529.95	0.656
530.15	0.657
530.35	0.660
530.55	0.657
530.75	0.658
530.94	0.659
531.14	0.660
531.34	0.658
531.54	0.656
531.74	0.659
531.94	0.662
532.13	0.660
532.33	0.662
532.53	0.660
532.73	0.660
532.93	0.658
533.13	0.659
533.33	0.659
533.52	0.660
533.72	0.663
533.92	0.661
534.12	0.659
534.32	0.660
534.52	0.660
534.71	0.662
534.91	0.665
535.11	0.666
535.31	0.665
535.51	0.667
535.71	0.668
535.90	0.665
536.10	0.667
536.30	0.668
536.50	0.669
536.70	0.668
536.89	0.666
537.09	0.665
537.29	0.667
537.49	0.667
537.69	0.665
537.89	0.666
538.08	0.665
538.28	0.663
538.48	0.664
538.68	0.665
538.88	0.667
539.07	0.667
539.27	0.665
539.47	0.664
539.67	0.663
539.87	0.665
540.06	0.663
540.26	0.665
540.46	0.667
540.66	0.664
540.86	0.662
541.05	0.663
541.25	0.664
541.45	0.664
541.65	0.663
541.84	0.666
542.04	0.666
542.24	0.666
542.44	0.665
542.64	0.666
542.83	0.669
543.03	0.669
543.23	0.666
543.43	0.666
543.62	0.668
543.82	0.667
544.02	0.666
544.22	0.666
544.42	0.669
544.61	0.670
544.81	0.667
545.01	0.666
545.21	0.668
545.40	0.669
545.60	0.667
545.80	0.671
546.00	0.671
546.19	0.670
546.39	0.668
546.59	0.666
546.79	0.668
546.98	0.668
547.18	0.668
547.38	0.668
547.58	0.671
547.77	0.671
547.97	0.667
548.17	0.669
548.37	0.670
548.56	0.670
548.76	0.669
548.96	0.671
549.16	0.674
549.35	0.674
549.55	0.672
549.75	0.672
549.95	0.675
550.14	0.675
550.34	0.673
550.54	0.678
550.73	0.682
550.93	0.682
551.13	0.679
551.33	0.678
551.52	0.679
551.72	0.679
551.92	0.677
552.12	0.677
552.31	0.678
552.51	0.678
552.71	0.674
552.90	0.673
553.10	0.674
553.30	0.674
553.50	0.673
553.69	0.674
553.89	0.675
554.09	0.675
554.28	0.672
554.48	0.673
554.68	0.675
554.87	0.675
555.07	0.672
555.27	0.673
555.47	0.675
555.66	0.676
555.86	0.674
556.06	0.676
556.25	0.677
556.45	0.685
556.65	0.682
556.84	0.685
557.04	0.688
557.24	0.690
557.43	0.689
557.63	0.692
557.83	0.694
558.02	0.694
558.22	0.698
558.42	0.699
558.61	0.692
558.81	0.693
559.01	0.689
559.21	0.689
559.40	0.689
559.60	0.689
559.80	0.686
559.99	0.687
560.19	0.690
560.39	0.683
560.58	0.681
560.78	0.681
560.97	0.684
561.17	0.683
561.37	0.681
561.56	0.682
561.76	0.684
561.96	0.683
562.15	0.680
562.35	0.682
562.55	0.683
562.74	0.683
562.94	0.682
563.14	0.680
563.33	0.681
563.53	0.681
563.73	0.679
563.92	0.681
564.12	0.683
564.31	0.685
564.51	0.683
564.71	0.685
564.90	0.688
565.10	0.689
565.30	0.692
565.49	0.693
565.69	0.695
565.89	0.695
566.08	0.693
566.28	0.694
566.47	0.696
566.67	0.694
566.87	0.692
567.06	0.694
567.26	0.700
567.46	0.695
567.65	0.694
567.85	0.696
568.04	0.698
568.24	0.697
568.44	0.695
568.63	0.693
568.83	0.695
569.02	0.693
569.22	0.687
569.42	0.684
569.61	0.687
569.81	0.685
570.00	0.683
570.20	0.685
570.40	0.686
570.59	0.686
570.79	0.683
570.98	0.682
571.18	0.683
571.38	0.683
571.57	0.680
571.77	0.678
571.96	0.682
572.16	0.679
572.35	0.673
572.55	0.675
572.75	0.673
572.94	0.673
573.14	0.671
573.33	0.671
573.53	0.672
573.73	0.672
573.92	0.670
574.12	0.668
574.31	0.670
574.51	0.672
574.70	0.668
574.90	0.670
575.09	0.673
575.29	0.673
575.49	0.670
575.68	0.671
575.88	0.672
576.07	0.673
576.27	0.672
576.46	0.670
576.66	0.670
576.86	0.669
577.05	0.667
577.25	0.664
577.44	0.666
577.64	0.666
577.83	0.663
578.03	0.665
578.22	0.665
578.42	0.665
578.61	0.663
578.81	0.663
579.00	0.664
579.20	0.663
579.40	0.663
579.59	0.661
579.79	0.662
579.98	0.661
580.18	0.660
580.37	0.660
580.57	0.662
580.76	0.667
580.96	0.665
581.15	0.666
581.35	0.668
581.54	0.667
581.74	0.667
581.93	0.669
582.13	0.670
582.32	0.667
582.52	0.665
582.71	0.664
582.91	0.660
583.10	0.660
583.30	0.659
583.49	0.658
583.69	0.661
583.88	0.662
584.08	0.661
584.27	0.663
584.47	0.667
584.66	0.667
584.86	0.667
585.05	0.669
585.25	0.671
585.44	0.671
585.64	0.669
585.83	0.666
586.03	0.666
586.22	0.665
586.42	0.661
586.61	0.662
586.81	0.664
587.00	0.664
587.20	0.661
587.39	0.662
587.59	0.664
587.78	0.665
587.98	0.666
588.17	0.667
588.37	0.669
588.56	0.671
588.76	0.667
588.95	0.667
589.15	0.672
589.34	0.674
589.54	0.672
589.73	0.673
589.92	0.676
590.12	0.676
590.31	0.674
590.51	0.678
590.70	0.680
590.90	0.681
591.09	0.679
591.29	0.677
591.48	0.677
591.68	0.679
591.87	0.677
592.06	0.676
592.26	0.679
592.45	0.679
592.65	0.673
592.84	0.672
593.04	0.675
593.23	0.678
593.43	0.675
593.62	0.674
593.81	0.674
594.01	0.674
594.20	0.671
594.40	0.670
594.59	0.672
594.79	0.673
594.98	0.672
595.17	0.670
595.37	0.671
595.56	0.673
595.76	0.672
595.95	0.674
596.14	0.677
596.34	0.678
596.53	0.676
596.73	0.678
596.92	0.679
597.12	0.682
597.31	0.682
597.50	0.681
597.70	0.684
597.89	0.683
598.09	0.679
598.28	0.681
598.47	0.683
598.67	0.682
598.86	0.678
599.06	0.680
599.25	0.680
599.44	0.678
599.64	0.676
599.83	0.672
600.03	0.676
600.22	0.676
600.41	0.677
600.61	0.675
600.80	0.676
601.00	0.676
601.19	0.672
601.38	0.671
601.58	0.674
601.77	0.675
601.96	0.677
602.16	0.676
602.35	0.685
602.55	0.683
602.74	0.683
602.93	0.684
603.13	0.690
603.32	0.691
603.51	0.691
603.71	0.694
603.90	0.696
604.09	0.696
604.29	0.694
604.48	0.688
604.68	0.690
604.87	0.689
605.06	0.685
605.26	0.682
605.45	0.683
605.64	0.682
605.84	0.677
606.03	0.676
606.22	0.674
606.42	0.674
606.61	0.670
606.80	0.670
607.00	0.672
607.19	0.672
607.38	0.671
607.58	0.672
607.77	0.674
607.96	0.674
608.16	0.672
608.35	0.677
608.54	0.680
608.74	0.683
608.93	0.689
609.12	0.691
609.32	0.693
609.51	0.696
609.70	0.695
609.90	0.697
610.09	0.702
610.28	0.707
610.48	0.701
610.67	0.702
610.86	0.703
611.06	0.697
611.25	0.694
611.44	0.695
611.64	0.696
611.83	0.699
612.02	0.695
612.21	0.694
612.41	0.693
612.60	0.692
612.79	0.688
612.99	0.688
613.18	0.691
613.37	0.688
613.57	0.685
613.76	0.687
613.95	0.684
614.14	0.683
614.34	0.680
614.53	0.681
614.72	0.684
614.92	0.684
615.11	0.681
615.30	0.677
615.49	0.679
615.69	0.682
615.88	0.678
616.07	0.680
616.26	0.682
616.46	0.683
616.65	0.680
616.84	0.678
617.04	0.680
617.23	0.683
617.42	0.683
617.61	0.686
617.81	0.687
618.00	0.689
618.19	0.688
618.38	0.691
618.58	0.695
618.77	0.696
618.96	0.696
619.15	0.697
619.35	0.699
619.54	0.699
619.73	0.695
619.92	0.697
620.12	0.702
620.31	0.702
620.50	0.698
620.69	0.699
620.89	0.702
621.08	0.702
621.27	0.703
621.46	0.703
621.66	0.707
621.85	0.706
622.04	0.702
622.23	0.703
622.43	0.704
622.62	0.703
622.81	0.701
623.00	0.700
623.19	0.704
623.39	0.702
623.58	0.700
623.77	0.698
623.96	0.701
624.16	0.701
624.35	0.695
624.54	0.698
624.73	0.703
624.92	0.701
625.12	0.698
625.31	0.699
625.50	0.702
625.69	0.702
625.88	0.699
626.08	0.699
626.27	0.700
626.46	0.701
626.65	0.697
626.84	0.696
627.04	0.702
627.23	0.702
627.42	0.697
627.61	0.699
627.80	0.702
628.00	0.702
628.19	0.701
628.38	0.704
628.57	0.706
628.76	0.706
628.96	0.703
629.15	0.703
629.34	0.706
629.53	0.706
629.72	0.701
629.91	0.701
630.11	0.707
630.30	0.707
630.49	0.710
630.68	0.710
630.87	0.713
631.06	0.714
631.26	0.710
631.45	0.712
631.64	0.720
631.83	0.721
632.02	0.718
632.21	0.716
632.41	0.723
632.60	0.718
632.79	0.717
632.98	0.718
633.17	0.720
633.36	0.721
633.55	0.718
633.75	0.714
633.94	0.716
634.13	0.716
634.32	0.713
634.51	0.708
634.70	0.710
634.89	0.710
635.09	0.705
635.28	0.706
635.47	0.706
635.66	0.709
635.85	0.705
636.04	0.707
636.23	0.711
636.43	0.713
636.62	0.711
636.81	0.710
637.00	0.713
637.19	0.716
637.38	0.713
637.57	0.713
637.76	0.715
637.95	0.716
638.15	0.713
638.34	0.710
638.53	0.713
638.72	0.715
638.91	0.712
639.10	0.710
639.29	0.710
639.48	0.712
639.67	0.712
639.87	0.710
640.06	0.715
640.25	0.714
640.44	0.715
640.63	0.715
640.82	0.718
641.01	0.718
641.20	0.717
641.39	0.720
641.58	0.722
641.78	0.721
641.97	0.717
642.16	0.730
642.35	0.730
642.54	0.728
642.73	0.723
642.92	0.721
643.11	0.725
643.30	0.724
643.49	0.718
643.68	0.721
643.87	0.721
644.06	0.721
644.25	0.701
644.45	0.704
644.64	0.706
644.83	0.706
645.02	0.703
645.21	0.702
645.40	0.704
645.59	0.703
645.78	0.698
645.97	0.701
646.16	0.703
646.35	0.703
646.54	0.701
646.73	0.701
646.92	0.703
647.11	0.703
647.30	0.698
647.49	0.700
647.68	0.701
647.88	0.699
648.07	0.693
648.26	0.696
648.45	0.697
648.64	0.694
648.83	0.692
649.02	0.694
649.21	0.704
649.40	0.704
649.59	0.699
649.78	0.699
649.97	0.713
650.16	0.711
650.35	0.706
650.54	0.709
650.73	0.717
650.92	0.714
651.11	0.708
651.30	0.705
651.49	0.709
651.68	0.708
651.87	0.705
652.06	0.695
652.25	0.698
652.44	0.701
652.63	0.699
652.82	0.700
653.01	0.699
653.20	0.698
653.39	0.687
653.58	0.686
653.77	0.686
653.96	0.681
654.15	0.673
654.34	0.672
654.53	0.666
654.72	0.660
654.91	0.650
655.10	0.647
655.29	0.645
655.48	0.643
655.67	0.637
655.86	0.635
656.05	0.634
656.24	0.633
656.43	0.628
656.62	0.627
656.81	0.627
657.00	0.625
657.19	0.621
657.38	0.621
657.57	0.619
657.76	0.621
657.95	0.619
658.14	0.622
658.33	0.624
658.51	0.629
658.70	0.630
658.89	0.631
659.08	0.640
659.27	0.648
659.46	0.649
659.65	0.656
659.84	0.658
660.03	0.662
660.22	0.662
660.41	0.667
660.60	0.666
660.79	0.667
660.98	0.673
661.17	0.673
661.36	0.672
661.55	0.673
661.74	0.671
661.92	0.674
662.11	0.677
662.30	0.676
662.49	0.669
662.68	0.669
662.87	0.672
663.06	0.666
663.25	0.667
663.44	0.667
663.63	0.668
663.82	0.666
664.01	0.661
664.20	0.660
664.38	0.661
664.57	0.661
664.76	0.661
664.95	0.661
665.14	0.666
665.33	0.661
665.52	0.668
665.71	0.671
665.90	0.671
666.09	0.672
666.28	0.670
666.46	0.669
666.65	0.670
666.84	0.668
667.03	0.662
667.22	0.660
667.41	0.662
667.60	0.652
667.79	0.645
667.98	0.647
668.16	0.648
668.35	0.648
668.54	0.643
668.73	0.644
668.92	0.645
669.11	0.645
669.30	0.638
669.49	0.635
669.67	0.636
669.86	0.638
670.05	0.635
670.24	0.633
670.43	0.631
670.62	0.631
670.81	0.626
671.00	0.626
671.18	0.627
671.37	0.626
671.56	0.624
671.75	0.624
671.94	0.621
672.13	0.619
672.32	0.615
672.50	0.614
672.69	0.614
672.88	0.614
673.07	0.609
673.26	0.611
673.45	0.612
673.63	0.612
673.82	0.609
674.01	0.611
674.20	0.610
674.39	0.609
674.58	0.609
674.76	0.609
674.95	0.608
675.14	0.608
675.33	0.605
675.52	0.603
675.71	0.602
675.89	0.601
676.08	0.597
676.27	0.598
676.46	0.598
676.65	0.597
676.84	0.596
677.02	0.598
677.21	0.599
677.40	0.598
677.59	0.595
677.78	0.597
677.96	0.599
678.15	0.599
678.34	0.597
678.53	0.598
678.72	0.598
678.90	0.595
679.09	0.591
679.28	0.588
679.47	0.589
679.66	0.589
679.84	0.585
680.03	0.582
680.22	0.581
680.41	0.582
680.60	0.579
680.78	0.578
680.97	0.580
681.16	0.581
681.35	0.580
681.53	0.578
681.72	0.580
681.91	0.581
682.10	0.580
682.29	0.583
682.47	0.580
682.66	0.580
682.85	0.579
683.04	0.577
683.22	0.576
683.41	0.578
683.60	0.577
683.79	0.579
683.97	0.578
684.16	0.577
684.35	0.573
684.54	0.575
684.72	0.575
684.91	0.575
685.10	0.574
685.29	0.575
685.47	0.573
685.66	0.572
685.85	0.568
686.04	0.567
686.22	0.569
686.41	0.571
686.60	0.568
686.79	0.571
686.97	0.572
687.16	0.573
687.35	0.570
687.54	0.573
687.72	0.577
687.91	0.577
688.10	0.578
688.29	0.578
688.47	0.577
688.66	0.577
688.85	0.573
689.03	0.570
689.22	0.575
689.41	0.575
689.60	0.571
689.78	0.568
689.97	0.569
690.16	0.566
690.34	0.562
690.53	0.562
690.72	0.563
690.91	0.560
691.09	0.559
691.28	0.553
691.47	0.551
691.65	0.549
691.84	0.546
692.03	0.545
692.21	0.543
692.40	0.543
692.59	0.541
692.77	0.539
692.96	0.541
693.15	0.541
693.34	0.539
693.52	0.539
693.71	0.540
693.90	0.541
694.08	0.541
694.27	0.542
694.46	0.551
694.64	0.552
694.83	0.551
695.02	0.550
695.20	0.550
695.39	0.551
695.58	0.551
695.76	0.551
695.95	0.550
696.14	0.549
696.32	0.547
696.51	0.538
696.70	0.538
696.88	0.539
697.07	0.538
697.26	0.539
697.44	0.539
697.63	0.538
697.81	0.536
698.00	0.537
698.19	0.536
698.37	0.536
698.56	0.536
698.75	0.536
698.93	0.535
699.12	0.534
699.31	0.533
699.49	0.532
699.68	0.533
699.87	0.535
700.05	0.535
700.24	0.534
700.42	0.536
700.61	0.535
700.80	0.533
700.98	0.533
701.17	0.535
701.36	0.534
701.54	0.534
701.73	0.535
701.91	0.533
702.10	0.533
702.29	0.532
702.47	0.531
702.66	0.533
702.84	0.534
703.03	0.532
703.22	0.533
703.40	0.533
703.59	0.534
703.77	0.534
703.96	0.533
704.15	0.534
704.33	0.534
704.52	0.533
704.70	0.533
704.89	0.532
705.08	0.531
705.26	0.527
705.45	0.527
705.63	0.526
705.82	0.523
706.00	0.521
706.19	0.520
706.38	0.519
706.56	0.519
706.75	0.517
706.93	0.515
707.12	0.517
707.30	0.517
707.49	0.514
707.68	0.513
707.86	0.513
708.05	0.513
708.23	0.510
708.42	0.511
708.60	0.513
708.79	0.513
708.98	0.512
709.16	0.511
709.35	0.513
709.53	0.517
709.72	0.515
709.90	0.517
710.09	0.518
710.27	0.520
710.46	0.523
710.64	0.522
710.83	0.525
711.02	0.526
711.20	0.525
711.39	0.523
711.57	0.521
711.76	0.521
711.94	0.520
712.13	0.521
712.31	0.520
712.50	0.516
712.68	0.514
712.87	0.514
713.05	0.514
713.24	0.515
713.42	0.515
713.61	0.516
713.79	0.517
713.98	0.517
714.16	0.518
714.35	0.518
714.54	0.519
714.72	0.518
714.91	0.515
715.09	0.522
715.28	0.524
715.46	0.524
715.65	0.522
715.83	0.523
716.02	0.525
716.20	0.521
716.39	0.520
716.57	0.522
716.76	0.525
716.94	0.526
717.12	0.518
717.31	0.519
717.49	0.522
717.68	0.524
717.86	0.522
718.05	0.525
718.23	0.527
718.42	0.529
718.60	0.530
718.79	0.537
718.97	0.540
719.16	0.540
719.34	0.537
719.53	0.537
719.71	0.537
719.90	0.539
720.08	0.536
720.27	0.537
720.45	0.537
720.63	0.535
720.82	0.529
721.00	0.531
721.19	0.533
721.37	0.533
721.56	0.533
721.74	0.536
721.93	0.544
722.11	0.552
722.30	0.551
722.48	0.555
722.66	0.557
722.85	0.556
723.03	0.556
723.22	0.556
723.40	0.559
723.59	0.560
723.77	0.564
723.95	0.557
724.14	0.557
724.32	0.559
724.51	0.559
724.69	0.560
724.88	0.561
725.06	0.559
725.24	0.559
725.43	0.559
725.61	0.561
725.80	0.556
725.98	0.554
726.16	0.551
726.35	0.556
726.53	0.555
726.72	0.554
726.90	0.564
727.09	0.567
727.27	0.572
727.45	0.569
727.64	0.578
727.82	0.587
728.01	0.591
728.19	0.588
728.37	0.593
728.56	0.597
728.74	0.602
728.92	0.590
729.11	0.591
729.29	0.591
729.48	0.593
729.66	0.585
729.84	0.583
730.03	0.586
730.21	0.589
730.40	0.580
730.58	0.581
730.76	0.581
730.95	0.585
731.13	0.584
731.31	0.596
731.50	0.605
731.68	0.607
731.86	0.604
732.05	0.619
732.23	0.622
732.42	0.625
732.60	0.629
732.78	0.634
732.97	0.650
733.15	0.658
733.33	0.647
733.52	0.655
733.70	0.666
733.88	0.675
734.07	0.659
734.25	0.683
734.43	0.691
734.62	0.694
734.80	0.688
734.98	0.681
735.17	0.686
735.35	0.692
735.53	0.680
735.72	0.683
735.90	0.705
736.08	0.723
736.27	0.701
736.45	0.708
736.63	0.719
736.82	0.729
737.00	0.730
737.18	0.740
737.37	0.768
737.55	0.789
737.73	0.784
737.92	0.785
738.10	0.783
738.28	0.804
738.46	0.792
738.65	0.805
738.83	0.826
739.01	0.878
739.20	0.867
739.38	0.850
739.56	0.841
739.75	0.843
739.93	0.810
740.11	0.833
740.29	0.828
740.48	0.836
740.66	0.812
740.84	0.804
741.03	0.769
741.21	0.780
741.39	0.766
741.57	0.776
741.76	0.792
741.94	0.799
742.12	0.764
742.31	0.772
742.49	0.790
742.67	0.817
742.85	0.833
743.04	0.838
743.22	0.850
743.40	0.900
743.58	0.882
743.77	0.898
743.95	0.927
744.13	0.977
744.31	0.956
744.50	0.952
744.68	0.946
744.86	0.921
745.04	0.931
745.23	0.982
745.41	0.959
745.59	0.967
745.77	0.936
745.96	0.928
746.14	0.940
746.32	0.938
746.50	0.930
746.69	0.915
746.87	0.921
747.05	0.905
747.23	0.837
747.42	0.827
747.60	0.851
747.78	0.854
747.96	0.881
748.14	0.845
748.33	0.870
748.51	0.859
748.69	0.851
748.87	0.881
749.06	0.884
749.24	0.887
749.42	0.869
749.60	0.855
749.78	0.865
749.97	0.820
750.15	0.806
750.33	0.810
750.51	0.835
750.69	0.840
750.88	0.845
751.06	0.847
751.24	0.867
751.42	0.863
751.60	0.854
751.79	0.914
751.97	0.959
752.15	0.962
752.33	0.930
752.51	0.991
752.69	1.006
752.88	0.971
753.06	1.018
753.24	1.003
753.42	1.038
753.60	1.196
753.78	1.071
753.97	1.085
754.15	1.102
754.33	1.130
754.51	1.016
754.69	1.004
754.87	1.034
755.06	0.964
755.24	0.965
755.42	0.973
755.60	0.876
755.78	0.879
755.96	0.828
756.15	0.824
756.33	0.833
756.51	0.847
756.69	0.832
756.87	0.800
757.05	0.819
757.23	0.805
757.42	0.773
757.60	0.772
757.78	0.764
757.96	0.764
758.14	0.752
758.32	0.737
758.50	0.751
758.69	0.749
758.87	0.743
759.05	0.745
759.23	0.750
759.41	0.749
759.59	0.742
759.77	0.760
759.95	0.783
760.13	0.828
760.32	0.826
760.50	0.816
760.68	0.837
760.86	0.839
761.04	0.814
761.22	0.818
761.40	0.866
761.58	0.866
761.76	0.846
761.95	0.829
762.13	0.789
762.31	0.790
762.49	0.764
762.67	0.781
762.85	0.794
763.03	0.790
763.21	0.772
763.39	0.753
763.57	0.757
763.75	0.752
763.94	0.740
764.12	0.741
764.30	0.765
764.48	0.769
764.66	0.734
764.84	0.730
765.02	0.766
765.20	0.776
765.38	0.758
765.56	0.762
765.74	0.797
765.92	0.797
766.10	0.801
766.28	0.793
766.46	0.820
766.65	0.822
766.83	0.810
767.01	0.791
767.19	0.798
767.37	0.796
767.55	0.783
767.73	0.764
767.91	0.768
768.09	0.759
768.27	0.747
768.45	0.738
768.63	0.745
768.81	0.750
768.99	0.726
769.17	0.746
769.35	0.760
769.53	0.759
769.71	0.741
769.89	0.747
770.07	0.749
770.25	0.733
770.43	0.712
770.61	0.731
770.79	0.736
770.97	0.749
771.15	0.721
771.33	0.725
771.51	0.727
771.69	0.736
771.87	0.746
772.05	0.757
772.24	0.762
772.42	0.770
772.60	0.748
772.78	0.802
772.96	0.825
773.14	0.822
773.32	0.801
773.49	0.808
773.67	0.806
773.85	0.785
774.03	0.771
774.21	0.803
774.39	0.811
774.57	0.835
774.75	0.769
774.93	0.765
775.11	0.783
775.29	0.788
775.47	0.790
775.65	0.801
775.83	0.818
776.01	0.840
776.19	0.797
776.37	0.799
776.55	0.797
776.73	0.792
776.91	0.786
777.09	0.771
777.27	0.770
777.45	0.759
777.63	0.739
777.81	0.734
777.99	0.721
778.17	0.718
778.35	0.698
778.53	0.687
778.71	0.692
778.89	0.680
779.07	0.672
779.24	0.676
779.42	0.678
779.60	0.693
779.78	0.689
779.96	0.694
780.14	0.702
780.32	0.720
780.50	0.705
780.68	0.708
780.86	0.701
781.04	0.717
781.22	0.721
781.40	0.730
781.58	0.721
781.75	0.715
781.93	0.698
782.11	0.698
782.29	0.686
782.47	0.684
782.65	0.672
782.83	0.696
783.01	0.689
783.19	0.682
783.37	0.670
783.55	0.672
783.72	0.690
783.90	0.702
784.08	0.696
784.26	0.707
784.44	0.729
784.62	0.732
784.80	0.704
784.98	0.710
785.16	0.715
785.33	0.729
785.51	0.716
785.69	0.705
785.87	0.703
786.05	0.712
786.23	0.707
786.41	0.703
786.59	0.710
786.77	0.708
786.94	0.697
787.12	0.701
787.30	0.700
787.48	0.701
787.66	0.686
787.84	0.687
788.02	0.679
788.19	0.679
788.37	0.665
788.55	0.664
788.73	0.666
788.91	0.662
789.09	0.644
789.27	0.635
789.44	0.645
789.62	0.651
789.80	0.660
789.98	0.685
790.16	0.674
790.34	0.670
790.51	0.659
790.69	0.675
790.87	0.679
791.05	0.678
791.23	0.673
791.41	0.673
791.58	0.680
791.76	0.660
791.94	0.630
792.12	0.638
792.30	0.641
792.48	0.639
792.65	0.634
792.83	0.642
793.01	0.647
793.19	0.645
793.37	0.632
793.54	0.629
793.72	0.641
793.90	0.638
794.08	0.628
794.26	0.629
794.43	0.636
794.61	0.622
794.79	0.611
794.97	0.611
795.15	0.617
795.32	0.618
795.50	0.609
795.68	0.604
795.86	0.609
796.04	0.610
796.21	0.604
796.39	0.602
796.57	0.614
796.75	0.622
796.92	0.623
797.10	0.626
797.28	0.627
797.46	0.630
797.64	0.629
797.81	0.635
797.99	0.638
798.17	0.641
798.35	0.637
798.52	0.639
798.70	0.634
798.88	0.643
799.06	0.642
799.23	0.646
799.41	0.653
799.59	0.646
799.77	0.636
799.94	0.645
800.12	0.656
800.30	0.672
800.48	0.670
800.65	0.671
800.83	0.661
801.01	0.654
801.19	0.652
801.36	0.649
801.54	0.653
801.72	0.663
801.90	0.649
802.07	0.646
802.25	0.631
802.43	0.616
802.60	0.612
802.78	0.619
802.96	0.623
803.14	0.618
803.31	0.616
803.49	0.618
803.67	0.613
803.84	0.618
804.02	0.610
804.20	0.613
804.38	0.619
804.55	0.619
804.73	0.606
804.91	0.607
805.08	0.620
805.26	0.617
805.44	0.679
805.61	0.681
805.79	0.680
805.97	0.680
806.15	0.673
806.32	0.667
806.50	0.673
806.68	0.672
806.85	0.663
807.03	0.654
807.21	0.668
807.38	0.601
807.56	0.593
807.74	0.603
807.91	0.609
808.09	0.612
808.27	0.630
808.44	0.654
808.62	0.662
808.80	0.664
808.97	0.660
809.15	0.654
809.33	0.674
809.50	0.679
809.68	0.665
809.86	0.670
810.03	0.699
810.21	0.680
810.39	0.662
810.56	0.667
810.74	0.691
810.91	0.759
811.09	0.747
811.27	0.765
811.44	0.771
811.62	0.773
811.80	0.761
811.97	0.730
812.15	0.729
812.33	0.724
812.50	0.711
812.68	0.696
812.85	0.644
813.03	0.647
813.21	0.619
813.38	0.614
813.56	0.616
813.74	0.624
813.91	0.631
814.09	0.660
814.26	0.655
814.44	0.659
814.62	0.652
814.79	0.654
814.97	0.657
815.14	0.660
815.32	0.667
815.50	0.683
815.67	0.687
815.85	0.679
816.02	0.669
816.20	0.677
816.38	0.693
816.55	0.696
816.73	0.696
816.90	0.708
817.08	0.736
817.26	0.736
817.43	0.718
817.61	0.741
817.78	0.761
817.96	0.742
818.13	0.731
818.31	0.727
818.49	0.739
818.66	0.731
818.84	0.714
819.01	0.695
819.19	0.701
819.36	0.702
819.54	0.673
819.71	0.709
819.89	0.720
820.07	0.731
820.24	0.729
820.42	0.729
820.59	0.747
820.77	0.771
820.94	0.761
821.12	0.777
821.29	0.792
821.47	0.794
821.64	0.738
821.82	0.750
822.00	0.749
822.17	0.745
822.35	0.739
822.52	0.743
822.70	0.734
822.87	0.743
823.05	0.723
823.22	0.735
823.40	0.757
823.57	0.775
823.75	0.758
823.92	0.780
824.10	0.798
824.27	0.837
824.45	0.826
824.62	0.884
824.80	0.900
824.97	0.912
825.15	0.900
825.32	0.913
825.50	0.913
825.67	0.926
825.85	0.901
826.02	0.919
826.20	0.935
826.37	1.040
826.55	0.967
826.72	1.142
826.90	1.208
827.07	1.251
827.25	1.196
827.42	1.329
827.60	1.442
827.77	1.611
827.95	1.558
828.12	1.671
828.30	1.378
828.47	1.487
828.65	1.155
828.82	1.200
829.00	1.256
829.17	1.344
829.34	1.353
829.52	1.380
829.69	-0.000
829.87	-0.000
830.04	-0.000
830.22	-0.000
830.39	-0.000
830.57	-0.000
830.74	-0.000
830.92	-0.000
831.09	-0.000
831.26	-0.000
831.44	-0.000
831.61	-0.000
831.79	-0.000
831.96	-0.000
832.14	-0.000
832.31	-0.000
832.49	-0.000
832.66	-0.000
832.83	-0.000
833.01	-0.000
833.18	-0.000
833.36	-0.000
833.53	-0.000
833.70	-0.000
833.88	-0.000
834.05	-0.000
834.23	-0.000
834.40	-0.000
834.58	-0.000
834.75	-0.000
834.92	-0.000
835.10	-0.000
835.27	-0.000
835.45	-0.000
835.62	-0.000
835.79	-0.000
835.97	-0.000
836.14	-0.000
836.32	-0.000
836.49	-0.000
836.66	-0.000
836.84	-0.000
837.01	-0.000
837.18	-0.000
837.36	-0.000
837.53	-0.000
837.71	-0.000
837.88	-0.000
838.05	-0.000
838.23	-0.000
838.40	-0.000
838.58	-0.000
838.75	-0.000
838.92	-0.000
839.10	-0.000
839.27	-0.000
839.44	-0.000
839.62	-0.000
839.79	-0.000
839.96	-0.000
840.14	-0.000
840.31	-0.000
840.48	-0.000
840.66	-0.000
840.83	-0.000
841.01	-0.000
841.18	-0.000
841.35	-0.000
841.53	-0.000
841.70	-0.000
841.87	-0.000
842.05	-0.000
842.22	-0.000
842.39	-0.000
842.57	-0.000
842.74	-0.000
842.91	-0.000
843.09	-0.000
843.26	-0.000
843.43	-0.000
843.60	-0.000
843.78	-0.000
843.95	-0.000
844.12	-0.000
844.30	-0.000
844.47	-0.000
844.64	-0.000
844.82	-0.000
844.99	-0.000
845.16	-0.000
845.34	-0.000
845.51	-0.000
845.68	-0.000
845.85	-0.000
846.03	-0.000
846.20	-0.000
846.37	-0.000
846.55	-0.000
846.72	-0.000
846.89	-0.000
847.06	-0.000
847.24	-0.000
847.41	-0.000
847.58	-0.000
847.76	-0.000
847.93	-0.000
848.10	-0.000
848.27	-0.000
848.45	-0.000
848.62	-0.000
848.79	-0.000
848.97	-0.000
849.14	-0.000
849.31	-0.000
849.48	-0.000
849.66	-0.000
849.83	-0.000
850.00	-0.000
850.17	-0.000
850.35	-0.000
850.52	-0.000
850.69	-0.000
850.86	-0.000
851.04	-0.000
851.21	-0.000
851.38	-0.000
851.55	-0.000
851.72	-0.000
851.90	-0.000
852.07	-0.000
852.24	-0.000
852.41	-0.000
852.59	-0.000
852.76	-0.000
852.93	-0.000
853.10	-0.000
853.28	-0.000
853.45	-0.000
853.62	-0.000
853.79	-0.000
853.96	-0.000
854.14	-0.000
854.31	-0.000
854.48	-0.000
854.65	-0.000
854.82	-0.000
855.00	-0.000
855.17	-0.000
855.34	-0.000
855.51	-0.000
855.68	-0.000
855.86	-0.000
856.03	-0.000
856.20	-0.000
856.37	-0.000
856.54	-0.000
856.72	-0.000
856.89	-0.000
857.06	-0.000
857.23	-0.000
857.40	-0.000
857.57	-0.000
857.75	-0.000
857.92	-0.000
858.09	-0.000
858.26	-0.000
858.43	-0.000
858.60	-0.000
858.78	-0.000
858.95	-0.000
859.12	-0.000
859.29	-0.000
859.46	-0.000
859.63	-0.000
859.81	-0.000
859.98	-0.000
860.15	-0.000
860.32	-0.000
860.49	-0.000
860.66	-0.000
860.83	-0.000
861.01	-0.000
861.18	-0.000
861.35	-0.000
861.52	-0.000
861.69	-0.000
861.86	-0.000
862.03	-0.000
862.21	-0.000
862.38	-0.000
862.55	-0.000
862.72	-0.000
862.89	-0.000
863.06	-0.000
863.23	-0.000
863.40	-0.000
863.58	-0.000
863.75	-0.000
863.92	-0.000
864.09	-0.000
864.26	-0.000
864.43	-0.000
864.60	-0.000
864.77	-0.000
864.94	-0.000
865.11	-0.000
865.29	-0.000
865.46	-0.000
865.63	-0.000
865.80	-0.000
865.97	-0.000
866.14	-0.000
866.31	-0.000
866.48	-0.000
866.65	-0.000
866.82	-0.000
866.99	-0.000
867.16	-0.000
867.34	-0.000
867.51	-0.000
867.68	-0.000
867.85	-0.000
868.02	-0.000
868.19	-0.000
868.36	-0.000
868.53	-0.000
868.70	-0.000
868.87	-0.000
869.04	-0.000
869.21	-0.000
869.38	-0.000
869.55	-0.000
869.72	-0.000
869.89	-0.000
870.06	-0.000
870.24	-0.000
870.41	-0.000
870.58	-0.000
870.75	-0.000
870.92	-0.000
871.09	-0.000
871.26	-0.000
871.43	-0.000
871.60	-0.000
871.77	-0.000
871.94	-0.000
872.11	-0.000
872.28	-0.000
872.45	-0.000
872.62	-0.000
872.79	-0.000
872.96	-0.000
873.13	-0.000
873.30	-0.000
873.47	-0.000
873.64	-0.000
873.81	-0.000
873.98	-0.000
874.15	-0.000
874.32	-0.000
874.49	-0.000
874.66	-0.000
874.83	-0.000
875.00	-0.000
875.17	-0.000
875.34	-0.000
875.51	-0.000
875.68	-0.000
875.85	-0.000
876.02	-0.000
876.19	-0.000
876.36	-0.000
876.53	-0.000
876.70	-0.000
876.87	-0.000
877.04	-0.000
877.21	-0.000
877.38	-0.000
877.55	-0.000
877.72	-0.000
877.89	-0.000
878.06	-0.000
878.23	-0.000
878.39	-0.000
878.56	-0.000
878.73	-0.000
878.90	-0.000
879.07	-0.000
879.24	-0.000
879.41	-0.000
879.58	-0.000
879.75	-0.000
879.92	-0.000
880.09	-0.000
880.26	-0.000
880.43	-0.000
880.60	-0.000
880.77	-0.000
880.94	-0.000
881.11	-0.000
881.27	-0.000
881.44	-0.000
881.61	-0.000
881.78	-0.000
881.95	-0.000
882.12	-0.000
882.29	-0.000
882.46	-0.000
882.63	-0.000
882.80	-0.000
882.97	-0.000
883.14	-0.000
883.30	-0.000
883.47	-0.000
883.64	-0.000
883.81	-0.000
883.98	-0.000
884.15	-0.000
884.32	-0.000
884.49	-0.000
884.66	-0.000
884.82	-0.000
884.99	-0.000
885.16	-0.000
885.33	-0.000
885.50	-0.000
885.67	-0.000
885.84	-0.000
886.01	-0.000
886.17	-0.000
886.34	-0.000
886.51	-0.000
886.68	-0.000
886.85	-0.000
887.02	-0.000
887.19	-0.000
887.36	-0.000
887.52	-0.000
887.69	-0.000
887.86	-0.000
888.03	-0.000
888.20	-0.000
888.37	-0.000
888.54	-0.000
888.70	-0.000
888.87	-0.000
889.04	-0.000
889.21	-0.000
889.38	-0.000
889.55	-0.000
889.71	-0.000
889.88	-0.000
890.05	-0.000
890.22	-0.000
890.39	-0.000
>>>>>End Processed Spectral Data<<<<<
