SpectraSuite Data File
++++++++++++++++++++++++++++++++++++
Date: Fri Jun 19 15:29:15 CEST 2015
User: introlabs
Dark Spectrum Present: Yes
Reference Spectrum Present: Yes
Number of Sampled Component Spectra: 1
Spectrometers: USB4H08886
Integration Time (usec): 745692 (USB4H08886)
Spectra Averaged: 5 (USB4H08886)
Boxcar Smoothing: 5 (USB4H08886)
Correct for Electrical Dark: Yes (USB4H08886)
Strobe/Lamp Enabled: No (USB4H08886)
Correct for Detector Non-linearity: Yes (USB4H08886)
Correct for Stray Light: Yes (USB4H08886)
Number of Pixels in Processed Spectrum: 3648
>>>>>Begin Processed Spectral Data<<<<<
178.14	-0.000
178.36	-0.000
178.57	-0.000
178.79	-0.000
179.01	-0.000
179.22	-0.000
179.44	-0.000
179.65	-0.000
179.87	-0.000
180.08	-0.000
180.30	-0.000
180.52	-0.000
180.73	-0.000
180.95	-0.000
181.16	-0.000
181.38	-0.000
181.59	-0.000
181.81	-0.000
182.03	-0.000
182.24	-0.000
182.46	-0.000
182.67	-0.000
182.89	-0.000
183.10	-0.000
183.32	-0.000
183.54	-0.000
183.75	-0.000
183.97	-0.000
184.18	-0.000
184.40	-0.000
184.61	-0.000
184.83	-0.000
185.04	-0.000
185.26	-0.000
185.48	-0.000
185.69	-0.000
185.91	-0.000
186.12	-0.000
186.34	-0.000
186.55	-0.000
186.77	-0.000
186.98	-0.000
187.20	-0.000
187.42	-0.000
187.63	-0.000
187.85	-0.000
188.06	-0.000
188.28	-0.000
188.49	-0.000
188.71	-0.000
188.92	-0.000
189.14	-0.000
189.36	-0.000
189.57	-0.000
189.79	-0.000
190.00	-0.000
190.22	-0.000
190.43	-0.000
190.65	-0.000
190.86	-0.000
191.08	-0.000
191.29	-0.000
191.51	-0.000
191.72	-0.000
191.94	-0.000
192.16	-0.000
192.37	-0.000
192.59	-0.000
192.80	-0.000
193.02	-0.000
193.23	-0.000
193.45	-0.000
193.66	-0.000
193.88	-0.000
194.09	-0.000
194.31	-0.000
194.52	-0.000
194.74	-0.000
194.95	-0.000
195.17	-0.000
195.38	-0.000
195.60	-0.000
195.81	-0.000
196.03	-0.000
196.25	-0.000
196.46	-0.000
196.68	-0.000
196.89	-0.000
197.11	-0.000
197.32	-0.000
197.54	-0.000
197.75	-0.000
197.97	-0.000
198.18	-0.000
198.40	-0.000
198.61	-0.000
198.83	-0.000
199.04	-0.000
199.26	-0.000
199.47	-0.000
199.69	-0.000
199.90	-0.000
200.12	-0.000
200.33	-0.000
200.55	-0.000
200.76	-0.000
200.98	-0.000
201.19	-0.000
201.41	-0.000
201.62	-0.000
201.84	-0.000
202.05	-0.000
202.27	-0.000
202.48	-0.000
202.70	-0.000
202.91	-0.000
203.13	-0.000
203.34	-0.000
203.56	-0.000
203.77	-0.000
203.99	-0.000
204.20	-0.000
204.42	-0.000
204.63	-0.000
204.85	-0.000
205.06	-0.000
205.28	-0.000
205.49	-0.000
205.71	-0.000
205.92	-0.000
206.14	-0.000
206.35	-0.000
206.56	-0.000
206.78	-0.000
206.99	-0.000
207.21	-0.000
207.42	-0.000
207.64	-0.000
207.85	-0.000
208.07	-0.000
208.28	-0.000
208.50	-0.000
208.71	-0.000
208.93	-0.000
209.14	-0.000
209.36	-0.000
209.57	-0.000
209.79	-0.000
210.00	-0.000
210.22	-0.000
210.43	-0.000
210.64	-0.000
210.86	-0.000
211.07	-0.000
211.29	-0.000
211.50	-0.000
211.72	-0.000
211.93	-0.000
212.15	-0.000
212.36	-0.000
212.58	-0.000
212.79	-0.000
213.01	-0.000
213.22	-0.000
213.43	-0.000
213.65	-0.000
213.86	-0.000
214.08	-0.000
214.29	-0.000
214.51	-0.000
214.72	-0.000
214.94	-0.000
215.15	-0.000
215.36	-0.000
215.58	-0.000
215.79	-0.000
216.01	-0.000
216.22	-0.000
216.44	-0.000
216.65	-0.000
216.87	-0.000
217.08	-0.000
217.29	-0.000
217.51	-0.000
217.72	-0.000
217.94	-0.000
218.15	-0.000
218.37	-0.000
218.58	-0.000
218.80	-0.000
219.01	-0.000
219.22	-0.000
219.44	-0.000
219.65	-0.000
219.87	-0.000
220.08	-0.000
220.30	-0.000
220.51	-0.000
220.72	-0.000
220.94	-0.000
221.15	-0.000
221.37	-0.000
221.58	-0.000
221.79	-0.000
222.01	-0.000
222.22	-0.000
222.44	-0.000
222.65	-0.000
222.87	-0.000
223.08	-0.000
223.29	-0.000
223.51	-0.000
223.72	-0.000
223.94	-0.000
224.15	-0.000
224.36	-0.000
224.58	-0.000
224.79	-0.000
225.01	-0.000
225.22	-0.000
225.44	-0.000
225.65	-0.000
225.86	-0.000
226.08	-0.000
226.29	-0.000
226.51	-0.000
226.72	-0.000
226.93	-0.000
227.15	-0.000
227.36	-0.000
227.58	-0.000
227.79	-0.000
228.00	-0.000
228.22	-0.000
228.43	-0.000
228.65	-0.000
228.86	-0.000
229.07	-0.000
229.29	-0.000
229.50	-0.000
229.72	-0.000
229.93	-0.000
230.14	-0.000
230.36	-0.000
230.57	-0.000
230.78	-0.000
231.00	-0.000
231.21	-0.000
231.43	-0.000
231.64	-0.000
231.85	-0.000
232.07	-0.000
232.28	-0.000
232.50	-0.000
232.71	-0.000
232.92	-0.000
233.14	-0.000
233.35	-0.000
233.56	-0.000
233.78	-0.000
233.99	-0.000
234.21	-0.000
234.42	-0.000
234.63	-0.000
234.85	-0.000
235.06	-0.000
235.27	-0.000
235.49	-0.000
235.70	-0.000
235.91	-0.000
236.13	-0.000
236.34	-0.000
236.56	-0.000
236.77	-0.000
236.98	-0.000
237.20	-0.000
237.41	-0.000
237.62	-0.000
237.84	-0.000
238.05	-0.000
238.26	-0.000
238.48	-0.000
238.69	-0.000
238.91	-0.000
239.12	-0.000
239.33	-0.000
239.55	-0.000
239.76	-0.000
239.97	-0.000
240.19	-0.000
240.40	-0.000
240.61	-0.000
240.83	-0.000
241.04	-0.000
241.25	-0.000
241.47	-0.000
241.68	-0.000
241.89	-0.000
242.11	-0.000
242.32	-0.000
242.53	-0.000
242.75	-0.000
242.96	-0.000
243.17	-0.000
243.39	-0.000
243.60	-0.000
243.81	-0.000
244.03	-0.000
244.24	-0.000
244.45	-0.000
244.67	-0.000
244.88	-0.000
245.09	-0.000
245.31	-0.000
245.52	-0.000
245.73	-0.000
245.95	-0.000
246.16	-0.000
246.37	-0.000
246.59	-0.000
246.80	-0.000
247.01	-0.000
247.23	-0.000
247.44	-0.000
247.65	-0.000
247.87	-0.000
248.08	-0.000
248.29	-0.000
248.51	-0.000
248.72	-0.000
248.93	-0.000
249.15	-0.000
249.36	-0.000
249.57	-0.000
249.78	-0.000
250.00	-0.000
250.21	-0.000
250.42	-0.000
250.64	-0.000
250.85	-0.000
251.06	-0.000
251.28	-0.000
251.49	-0.000
251.70	-0.000
251.92	-0.000
252.13	-0.000
252.34	-0.000
252.55	-0.000
252.77	-0.000
252.98	-0.000
253.19	-0.000
253.41	-0.000
253.62	-0.000
253.83	-0.000
254.05	-0.000
254.26	-0.000
254.47	-0.000
254.68	-0.000
254.90	-0.000
255.11	-0.000
255.32	-0.000
255.54	-0.000
255.75	-0.000
255.96	-0.000
256.17	-0.000
256.39	-0.000
256.60	-0.000
256.81	-0.000
257.03	-0.000
257.24	-0.000
257.45	-0.000
257.66	-0.000
257.88	-0.000
258.09	-0.000
258.30	-0.000
258.51	-0.000
258.73	-0.000
258.94	-0.000
259.15	-0.000
259.37	-0.000
259.58	-0.000
259.79	-0.000
260.00	-0.000
260.22	-0.000
260.43	-0.000
260.64	-0.000
260.85	-0.000
261.07	-0.000
261.28	-0.000
261.49	-0.000
261.71	-0.000
261.92	-0.000
262.13	-0.000
262.34	-0.000
262.56	-0.000
262.77	-0.000
262.98	-0.000
263.19	-0.000
263.41	-0.000
263.62	-0.000
263.83	-0.000
264.04	-0.000
264.26	-0.000
264.47	-0.000
264.68	-0.000
264.89	-0.000
265.11	-0.000
265.32	-0.000
265.53	-0.000
265.74	-0.000
265.96	-0.000
266.17	-0.000
266.38	-0.000
266.59	-0.000
266.81	-0.000
267.02	-0.000
267.23	-0.000
267.44	-0.000
267.65	-0.000
267.87	-0.000
268.08	-0.000
268.29	-0.000
268.50	-0.000
268.72	-0.000
268.93	-0.000
269.14	-0.000
269.35	-0.000
269.57	-0.000
269.78	-0.000
269.99	-0.000
270.20	-0.000
270.41	-0.000
270.63	-0.000
270.84	-0.000
271.05	-0.000
271.26	-0.000
271.48	-0.000
271.69	-0.000
271.90	-0.000
272.11	-0.000
272.32	-0.000
272.54	-0.000
272.75	-0.000
272.96	-0.000
273.17	-0.000
273.39	-0.000
273.60	-0.000
273.81	-0.000
274.02	-0.000
274.23	-0.000
274.45	-0.000
274.66	-0.000
274.87	-0.000
275.08	-0.000
275.29	-0.000
275.51	-0.000
275.72	-0.000
275.93	-0.000
276.14	-0.000
276.35	-0.000
276.57	-0.000
276.78	-0.000
276.99	-0.000
277.20	-0.000
277.41	-0.000
277.63	-0.000
277.84	-0.000
278.05	-0.000
278.26	-0.000
278.47	-0.000
278.69	-0.000
278.90	-0.000
279.11	-0.000
279.32	-0.000
279.53	-0.000
279.74	-0.000
279.96	-0.000
280.17	-0.000
280.38	-0.000
280.59	-0.000
280.80	-0.000
281.02	-0.000
281.23	-0.000
281.44	-0.000
281.65	-0.000
281.86	-0.000
282.07	-0.000
282.29	-0.000
282.50	-0.000
282.71	-0.000
282.92	-0.000
283.13	-0.000
283.35	-0.000
283.56	-0.000
283.77	-0.000
283.98	-0.000
284.19	-0.000
284.40	-0.000
284.62	-0.000
284.83	-0.000
285.04	-0.000
285.25	-0.000
285.46	-0.000
285.67	-0.000
285.88	-0.000
286.10	-0.000
286.31	-0.000
286.52	-0.000
286.73	-0.000
286.94	-0.000
287.15	-0.000
287.37	-0.000
287.58	-0.000
287.79	-0.000
288.00	-0.000
288.21	-0.000
288.42	-0.000
288.63	-0.000
288.85	-0.000
289.06	-0.000
289.27	-0.000
289.48	-0.000
289.69	-0.000
289.90	-0.000
290.11	-0.000
290.33	-0.000
290.54	-0.000
290.75	-0.000
290.96	-0.000
291.17	-0.000
291.38	-0.000
291.59	-0.000
291.81	-0.000
292.02	-0.000
292.23	-0.000
292.44	-0.000
292.65	-0.000
292.86	-0.000
293.07	-0.000
293.28	-0.000
293.50	-0.000
293.71	-0.000
293.92	-0.000
294.13	-0.000
294.34	-0.000
294.55	-0.000
294.76	-0.000
294.97	-0.000
295.19	-0.000
295.40	-0.000
295.61	-0.000
295.82	-0.000
296.03	2.902
296.24	3.636
296.45	1.965
296.66	1.706
296.87	1.728
297.09	1.770
297.30	1.923
297.51	1.647
297.72	1.632
297.93	1.704
298.14	1.680
298.35	1.654
298.56	1.636
298.77	1.748
298.99	1.735
299.20	1.724
299.41	1.710
299.62	1.660
299.83	1.646
300.04	1.581
300.25	1.575
300.46	1.610
300.67	1.573
300.88	1.532
301.10	1.539
301.31	1.594
301.52	1.534
301.73	1.484
301.94	1.485
302.15	1.499
302.36	1.459
302.57	1.402
302.78	1.407
302.99	1.453
303.20	1.475
303.41	1.386
303.63	1.374
303.84	1.377
304.05	1.369
304.26	1.318
304.47	1.321
304.68	1.319
304.89	1.309
305.10	1.273
305.31	1.258
305.52	1.295
305.73	1.292
305.94	1.255
306.15	1.248
306.37	1.271
306.58	1.274
306.79	1.247
307.00	1.273
307.21	1.311
307.42	1.306
307.63	1.273
307.84	1.240
308.05	1.274
308.26	1.276
308.47	1.257
308.68	1.251
308.89	1.253
309.10	1.250
309.31	1.210
309.52	1.202
309.73	1.212
309.95	1.209
310.16	1.184
310.37	1.172
310.58	1.187
310.79	1.184
311.00	1.186
311.21	1.187
311.42	1.188
311.63	1.183
311.84	1.164
312.05	1.166
312.26	1.184
312.47	1.195
312.68	1.173
312.89	1.157
313.10	1.161
313.31	1.133
313.52	1.135
313.73	1.136
313.94	1.140
314.15	1.126
314.36	1.106
314.57	1.099
314.78	1.088
314.99	1.083
315.21	1.073
315.42	1.079
315.63	1.092
315.84	1.070
316.05	1.058
316.26	1.065
316.47	1.081
316.68	1.075
316.89	1.058
317.10	1.076
317.31	1.081
317.52	1.081
317.73	1.061
317.94	1.060
318.15	1.099
318.36	1.099
318.57	1.083
318.78	1.073
318.99	1.107
319.20	1.104
319.41	1.072
319.62	1.074
319.83	1.087
320.04	1.083
320.25	1.072
320.46	1.040
320.67	1.042
320.88	1.037
321.09	1.024
321.30	1.009
321.51	1.024
321.72	1.023
321.93	1.007
322.14	0.999
322.35	1.025
322.56	1.027
322.77	1.015
322.98	1.027
323.19	1.035
323.40	1.042
323.61	1.022
323.82	1.016
324.03	1.021
324.24	1.019
324.45	1.008
324.66	0.989
324.87	0.985
325.08	0.985
325.29	0.966
325.50	0.958
325.71	0.962
325.92	0.970
326.13	0.957
326.34	0.957
326.55	0.963
326.76	0.962
326.97	0.952
327.18	0.946
327.39	0.969
327.60	0.970
327.80	0.974
328.01	0.971
328.22	0.969
328.43	0.972
328.64	0.961
328.85	0.964
329.06	0.965
329.27	0.966
329.48	0.963
329.69	0.945
329.90	0.954
330.11	0.947
330.32	0.942
330.53	0.936
330.74	0.936
330.95	0.936
331.16	0.923
331.37	0.932
331.58	0.930
331.79	0.929
332.00	0.920
332.21	0.913
332.42	0.916
332.63	0.907
332.83	0.903
333.04	0.905
333.25	0.916
333.46	0.915
333.67	0.901
333.88	0.905
334.09	0.916
334.30	0.912
334.51	0.904
334.72	0.899
334.93	0.903
335.14	0.902
335.35	0.895
335.56	0.889
335.77	0.896
335.98	0.895
336.18	0.888
336.39	0.879
336.60	0.884
336.81	0.883
337.02	0.883
337.23	0.889
337.44	0.891
337.65	0.892
337.86	0.883
338.07	0.878
338.28	0.882
338.49	0.880
338.70	0.874
338.91	0.881
339.11	0.886
339.32	0.882
339.53	0.870
339.74	0.867
339.95	0.863
340.16	0.861
340.37	0.855
340.58	0.853
340.79	0.856
341.00	0.855
341.21	0.845
341.41	0.846
341.62	0.848
341.83	0.848
342.04	0.843
342.25	0.855
342.46	0.858
342.67	0.858
342.88	0.853
343.09	0.853
343.30	0.859
343.50	0.861
343.71	0.853
343.92	0.850
344.13	0.854
344.34	0.853
344.55	0.836
344.76	0.836
344.97	0.838
345.18	0.837
345.38	0.835
345.59	0.831
345.80	0.829
346.01	0.827
346.22	0.824
346.43	0.819
346.64	0.828
346.85	0.828
347.06	0.822
347.26	0.823
347.47	0.826
347.68	0.820
347.89	0.816
348.10	0.812
348.31	0.818
348.52	0.817
348.73	0.815
348.93	0.812
349.14	0.814
349.35	0.812
349.56	0.807
349.77	0.801
349.98	0.807
350.19	0.805
350.39	0.800
350.60	0.797
350.81	0.811
351.02	0.809
351.23	0.805
351.44	0.807
351.65	0.810
351.86	0.807
352.06	0.807
352.27	0.806
352.48	0.808
352.69	0.808
352.90	0.803
353.11	0.789
353.31	0.796
353.52	0.793
353.73	0.786
353.94	0.787
354.15	0.792
354.36	0.791
354.57	0.783
354.77	0.784
354.98	0.783
355.19	0.782
355.40	0.783
355.61	0.789
355.82	0.791
356.02	0.790
356.23	0.784
356.44	0.785
356.65	0.788
356.86	0.788
357.07	0.783
357.27	0.786
357.48	0.788
357.69	0.783
357.90	0.768
358.11	0.765
358.32	0.768
358.52	0.771
358.73	0.762
358.94	0.765
359.15	0.769
359.36	0.769
359.56	0.765
359.77	0.761
359.98	0.768
360.19	0.767
360.40	0.765
360.61	0.766
360.81	0.765
361.02	0.765
361.23	0.757
361.44	0.756
361.65	0.758
361.85	0.757
362.06	0.756
362.27	0.757
362.48	0.758
362.69	0.760
362.89	0.754
363.10	0.755
363.31	0.759
363.52	0.762
363.73	0.757
363.93	0.756
364.14	0.758
364.35	0.760
364.56	0.751
364.77	0.753
364.97	0.753
365.18	0.753
365.39	0.749
365.60	0.745
365.81	0.746
366.01	0.746
366.22	0.743
366.43	0.742
366.64	0.743
366.84	0.748
367.05	0.746
367.26	0.746
367.47	0.748
367.68	0.748
367.88	0.746
368.09	0.743
368.30	0.744
368.51	0.743
368.71	0.743
368.92	0.746
369.13	0.744
369.34	0.743
369.55	0.742
369.75	0.742
369.96	0.748
370.17	0.748
370.38	0.745
370.58	0.745
370.79	0.751
371.00	0.748
371.21	0.741
371.41	0.745
371.62	0.748
371.83	0.743
372.04	0.742
372.24	0.735
372.45	0.736
372.66	0.737
372.87	0.734
373.07	0.732
373.28	0.733
373.49	0.737
373.70	0.729
373.90	0.728
374.11	0.737
374.32	0.737
374.53	0.737
374.73	0.737
374.94	0.739
375.15	0.739
375.36	0.736
375.56	0.745
375.77	0.745
375.98	0.745
376.19	0.743
376.39	0.737
376.60	0.739
376.81	0.739
377.02	0.738
377.22	0.737
377.43	0.735
377.64	0.736
377.84	0.726
378.05	0.730
378.26	0.736
378.47	0.735
378.67	0.732
378.88	0.730
379.09	0.731
379.30	0.730
379.50	0.728
379.71	0.731
379.92	0.733
380.12	0.733
380.33	0.725
380.54	0.722
380.75	0.728
380.95	0.728
381.16	0.726
381.37	0.726
381.57	0.727
381.78	0.728
381.99	0.728
382.20	0.728
382.40	0.731
382.61	0.731
382.82	0.728
383.02	0.722
383.23	0.725
383.44	0.726
383.64	0.725
383.85	0.727
384.06	0.730
384.27	0.728
384.47	0.726
384.68	0.726
384.89	0.732
385.09	0.732
385.30	0.732
385.51	0.730
385.71	0.733
385.92	0.734
386.13	0.733
386.33	0.735
386.54	0.736
386.75	0.735
386.95	0.731
387.16	0.726
387.37	0.728
387.58	0.728
387.78	0.727
387.99	0.724
388.20	0.726
388.40	0.722
388.61	0.718
388.82	0.721
389.02	0.723
389.23	0.723
389.44	0.722
389.64	0.723
389.85	0.733
390.06	0.733
390.26	0.734
390.47	0.734
390.68	0.736
390.88	0.735
391.09	0.732
391.30	0.731
391.50	0.730
391.71	0.731
391.92	0.728
392.12	0.720
392.33	0.721
392.53	0.720
392.74	0.721
392.95	0.719
393.15	0.722
393.36	0.724
393.57	0.723
393.77	0.726
393.98	0.727
394.19	0.727
394.39	0.727
394.60	0.728
394.81	0.730
395.01	0.729
395.22	0.728
395.43	0.729
395.63	0.732
395.84	0.734
396.04	0.730
396.25	0.732
396.46	0.734
396.66	0.733
396.87	0.730
397.08	0.727
397.28	0.729
397.49	0.730
397.69	0.726
397.90	0.722
398.11	0.723
398.31	0.724
398.52	0.721
398.73	0.722
398.93	0.721
399.14	0.720
399.34	0.720
399.55	0.721
399.76	0.721
399.96	0.722
400.17	0.721
400.37	0.719
400.58	0.726
400.79	0.727
400.99	0.725
401.20	0.730
401.41	0.733
401.61	0.734
401.82	0.740
402.02	0.739
402.23	0.741
402.44	0.741
402.64	0.741
402.85	0.737
403.05	0.735
403.26	0.734
403.47	0.728
403.67	0.726
403.88	0.727
404.08	0.720
404.29	0.718
404.50	0.718
404.70	0.717
404.91	0.716
405.11	0.713
405.32	0.714
405.52	0.713
405.73	0.713
405.94	0.711
406.14	0.713
406.35	0.716
406.55	0.716
406.76	0.714
406.97	0.715
407.17	0.718
407.38	0.717
407.58	0.716
407.79	0.719
407.99	0.721
408.20	0.722
408.41	0.718
408.61	0.716
408.82	0.718
409.02	0.717
409.23	0.715
409.43	0.714
409.64	0.716
409.84	0.716
410.05	0.713
410.26	0.712
410.46	0.711
410.67	0.712
410.87	0.713
411.08	0.715
411.28	0.715
411.49	0.717
411.69	0.715
411.90	0.716
412.11	0.717
412.31	0.718
412.52	0.716
412.72	0.717
412.93	0.718
413.13	0.717
413.34	0.713
413.54	0.715
413.75	0.717
413.95	0.717
414.16	0.714
414.37	0.717
414.57	0.717
414.78	0.719
414.98	0.717
415.19	0.718
415.39	0.715
415.60	0.718
415.80	0.717
416.01	0.715
416.21	0.716
416.42	0.717
416.62	0.712
416.83	0.712
417.03	0.711
417.24	0.711
417.44	0.708
417.65	0.708
417.86	0.708
418.06	0.706
418.27	0.704
418.47	0.706
418.68	0.706
418.88	0.707
419.09	0.705
419.29	0.705
419.50	0.706
419.70	0.706
419.91	0.705
420.11	0.703
420.32	0.705
420.52	0.705
420.73	0.704
420.93	0.704
421.14	0.706
421.34	0.704
421.55	0.701
421.75	0.701
421.96	0.702
422.16	0.702
422.37	0.701
422.57	0.698
422.78	0.699
422.98	0.696
423.19	0.695
423.39	0.693
423.60	0.696
423.80	0.698
424.01	0.696
424.21	0.698
424.42	0.700
424.62	0.700
424.83	0.699
425.03	0.699
425.23	0.701
425.44	0.701
425.64	0.701
425.85	0.700
426.05	0.700
426.26	0.701
426.46	0.697
426.67	0.696
426.87	0.701
427.08	0.702
427.28	0.700
427.49	0.701
427.69	0.702
427.90	0.701
428.10	0.698
428.31	0.699
428.51	0.700
428.71	0.699
428.92	0.700
429.12	0.696
429.33	0.697
429.53	0.701
429.74	0.705
429.94	0.705
430.15	0.704
430.35	0.704
430.56	0.700
430.76	0.700
430.96	0.700
431.17	0.698
431.37	0.695
431.58	0.693
431.78	0.689
431.99	0.682
432.19	0.684
432.40	0.686
432.60	0.686
432.80	0.689
433.01	0.687
433.21	0.687
433.42	0.688
433.62	0.689
433.83	0.689
434.03	0.692
434.23	0.695
434.44	0.694
434.64	0.691
434.85	0.696
435.05	0.697
435.26	0.697
435.46	0.696
435.66	0.696
435.87	0.695
436.07	0.695
436.28	0.690
436.48	0.687
436.69	0.687
436.89	0.687
437.09	0.681
437.30	0.680
437.50	0.680
437.71	0.692
437.91	0.691
438.11	0.693
438.32	0.697
438.52	0.697
438.73	0.696
438.93	0.695
439.13	0.694
439.34	0.697
439.54	0.695
439.75	0.695
439.95	0.685
440.15	0.689
440.36	0.687
440.56	0.685
440.77	0.685
440.97	0.685
441.17	0.684
441.38	0.685
441.58	0.682
441.79	0.682
441.99	0.680
442.19	0.679
442.40	0.676
442.60	0.676
442.81	0.674
443.01	0.675
443.21	0.675
443.42	0.674
443.62	0.673
443.82	0.674
444.03	0.675
444.23	0.674
444.44	0.674
444.64	0.674
444.84	0.675
445.05	0.675
445.25	0.672
445.45	0.672
445.66	0.674
445.86	0.673
446.06	0.674
446.27	0.674
446.47	0.677
446.68	0.676
446.88	0.675
447.08	0.674
447.29	0.676
447.49	0.676
447.69	0.676
447.90	0.674
448.10	0.678
448.30	0.674
448.51	0.676
448.71	0.673
448.91	0.675
449.12	0.674
449.32	0.675
449.52	0.674
449.73	0.676
449.93	0.676
450.14	0.676
450.34	0.675
450.54	0.678
450.75	0.674
450.95	0.674
451.15	0.673
451.36	0.675
451.56	0.672
451.76	0.671
451.97	0.668
452.17	0.669
452.37	0.667
452.58	0.664
452.78	0.664
452.98	0.667
453.19	0.666
453.39	0.667
453.59	0.666
453.79	0.667
454.00	0.667
454.20	0.667
454.40	0.667
454.61	0.669
454.81	0.669
455.01	0.667
455.22	0.668
455.42	0.670
455.62	0.668
455.83	0.668
456.03	0.670
456.23	0.671
456.44	0.671
456.64	0.670
456.84	0.671
457.04	0.671
457.25	0.671
457.45	0.667
457.65	0.666
457.86	0.667
458.06	0.666
458.26	0.662
458.47	0.661
458.67	0.662
458.87	0.662
459.07	0.659
459.28	0.661
459.48	0.663
459.68	0.663
459.89	0.662
460.09	0.661
460.29	0.661
460.49	0.663
460.70	0.661
460.90	0.661
461.10	0.662
461.31	0.661
461.51	0.659
461.71	0.661
461.91	0.662
462.12	0.662
462.32	0.661
462.52	0.662
462.72	0.664
462.93	0.665
463.13	0.664
463.33	0.665
463.53	0.666
463.74	0.666
463.94	0.661
464.14	0.662
464.35	0.662
464.55	0.663
464.75	0.660
464.95	0.658
465.16	0.660
465.36	0.658
465.56	0.657
465.76	0.656
465.97	0.657
466.17	0.658
466.37	0.656
466.57	0.656
466.78	0.657
466.98	0.657
467.18	0.656
467.38	0.654
467.59	0.656
467.79	0.657
467.99	0.657
468.19	0.658
468.39	0.660
468.60	0.660
468.80	0.658
469.00	0.659
469.20	0.660
469.41	0.659
469.61	0.659
469.81	0.660
470.01	0.659
470.22	0.659
470.42	0.658
470.62	0.656
470.82	0.658
471.02	0.658
471.23	0.656
471.43	0.657
471.63	0.660
471.83	0.660
472.04	0.658
472.24	0.657
472.44	0.662
472.64	0.662
472.84	0.660
473.05	0.659
473.25	0.662
473.45	0.661
473.65	0.659
473.85	0.659
474.06	0.660
474.26	0.660
474.46	0.661
474.66	0.657
474.86	0.657
475.07	0.657
475.27	0.656
475.47	0.653
475.67	0.654
475.87	0.656
476.08	0.652
476.28	0.654
476.48	0.655
476.68	0.653
476.88	0.652
477.09	0.653
477.29	0.655
477.49	0.654
477.69	0.653
477.89	0.653
478.09	0.652
478.30	0.655
478.50	0.652
478.70	0.652
478.90	0.653
479.10	0.656
479.31	0.656
479.51	0.654
479.71	0.655
479.91	0.656
480.11	0.655
480.31	0.655
480.52	0.654
480.72	0.653
480.92	0.653
481.12	0.652
481.32	0.649
481.52	0.647
481.72	0.648
481.93	0.651
482.13	0.651
482.33	0.651
482.53	0.649
482.73	0.649
482.93	0.651
483.14	0.650
483.34	0.649
483.54	0.650
483.74	0.649
483.94	0.648
484.14	0.644
484.34	0.644
484.55	0.645
484.75	0.645
484.95	0.643
485.15	0.643
485.35	0.643
485.55	0.642
485.75	0.641
485.96	0.641
486.16	0.642
486.36	0.641
486.56	0.639
486.76	0.639
486.96	0.639
487.16	0.639
487.36	0.637
487.57	0.636
487.77	0.637
487.97	0.637
488.17	0.635
488.37	0.634
488.57	0.635
488.77	0.635
488.97	0.634
489.18	0.633
489.38	0.636
489.58	0.637
489.78	0.636
489.98	0.635
490.18	0.636
490.38	0.637
490.58	0.636
490.78	0.636
490.98	0.638
491.19	0.638
491.39	0.637
491.59	0.636
491.79	0.639
491.99	0.640
492.19	0.640
492.39	0.643
492.59	0.642
492.79	0.645
492.99	0.645
493.20	0.645
493.40	0.645
493.60	0.646
493.80	0.645
494.00	0.642
494.20	0.643
494.40	0.642
494.60	0.640
494.80	0.644
495.00	0.642
495.20	0.641
495.40	0.640
495.61	0.641
495.81	0.641
496.01	0.644
496.21	0.645
496.41	0.644
496.61	0.645
496.81	0.644
497.01	0.639
497.21	0.638
497.41	0.639
497.61	0.638
497.81	0.636
498.01	0.636
498.21	0.634
498.41	0.632
498.61	0.632
498.82	0.634
499.02	0.636
499.22	0.637
499.42	0.636
499.62	0.637
499.82	0.638
500.02	0.640
500.22	0.638
500.42	0.641
500.62	0.641
500.82	0.641
501.02	0.639
501.22	0.639
501.42	0.639
501.62	0.641
501.82	0.641
502.02	0.641
502.22	0.640
502.42	0.642
502.62	0.639
502.82	0.640
503.02	0.640
503.22	0.640
503.42	0.638
503.63	0.638
503.83	0.636
504.03	0.635
504.23	0.633
504.43	0.634
504.63	0.634
504.83	0.634
505.03	0.633
505.23	0.635
505.43	0.636
505.63	0.637
505.83	0.636
506.03	0.638
506.23	0.640
506.43	0.640
506.63	0.639
506.83	0.638
507.03	0.639
507.23	0.640
507.43	0.637
507.63	0.637
507.83	0.638
508.03	0.638
508.23	0.637
508.43	0.636
508.63	0.638
508.83	0.638
509.03	0.639
509.23	0.638
509.43	0.640
509.63	0.640
509.83	0.640
510.03	0.642
510.23	0.644
510.43	0.645
510.63	0.645
510.83	0.645
511.03	0.646
511.23	0.644
511.43	0.644
511.63	0.645
511.83	0.647
512.03	0.646
512.22	0.643
512.42	0.643
512.62	0.643
512.82	0.643
513.02	0.642
513.22	0.642
513.42	0.644
513.62	0.646
513.82	0.644
514.02	0.644
514.22	0.645
514.42	0.645
514.62	0.645
514.82	0.645
515.02	0.647
515.22	0.649
515.42	0.648
515.62	0.650
515.82	0.649
516.02	0.651
516.22	0.651
516.42	0.652
516.62	0.654
516.82	0.655
517.01	0.654
517.21	0.654
517.41	0.657
517.61	0.658
517.81	0.654
518.01	0.653
518.21	0.653
518.41	0.652
518.61	0.650
518.81	0.651
519.01	0.651
519.21	0.651
519.41	0.650
519.61	0.644
519.81	0.646
520.00	0.647
520.20	0.647
520.40	0.650
520.60	0.650
520.80	0.649
521.00	0.650
521.20	0.651
521.40	0.656
521.60	0.656
521.80	0.656
522.00	0.656
522.20	0.658
522.39	0.657
522.59	0.654
522.79	0.656
522.99	0.658
523.19	0.657
523.39	0.655
523.59	0.653
523.79	0.655
523.99	0.658
524.19	0.657
524.38	0.656
524.58	0.657
524.78	0.658
524.98	0.656
525.18	0.658
525.38	0.659
525.58	0.659
525.78	0.657
525.98	0.656
526.18	0.656
526.37	0.655
526.57	0.657
526.77	0.657
526.97	0.657
527.17	0.658
527.37	0.655
527.57	0.656
527.77	0.658
527.96	0.658
528.16	0.657
528.36	0.658
528.56	0.659
528.76	0.657
528.96	0.656
529.16	0.658
529.36	0.660
529.55	0.660
529.75	0.657
529.95	0.657
530.15	0.658
530.35	0.661
530.55	0.659
530.75	0.660
530.94	0.661
531.14	0.661
531.34	0.659
531.54	0.657
531.74	0.660
531.94	0.664
532.13	0.662
532.33	0.664
532.53	0.664
532.73	0.663
532.93	0.661
533.13	0.662
533.33	0.662
533.52	0.662
533.72	0.666
533.92	0.664
534.12	0.662
534.32	0.662
534.52	0.661
534.71	0.662
534.91	0.665
535.11	0.667
535.31	0.665
535.51	0.667
535.71	0.669
535.90	0.665
536.10	0.667
536.30	0.668
536.50	0.668
536.70	0.668
536.89	0.666
537.09	0.666
537.29	0.667
537.49	0.667
537.69	0.666
537.89	0.666
538.08	0.666
538.28	0.664
538.48	0.664
538.68	0.666
538.88	0.667
539.07	0.667
539.27	0.666
539.47	0.664
539.67	0.665
539.87	0.666
540.06	0.664
540.26	0.664
540.46	0.667
540.66	0.664
540.86	0.662
541.05	0.662
541.25	0.664
541.45	0.664
541.65	0.663
541.84	0.665
542.04	0.665
542.24	0.666
542.44	0.666
542.64	0.667
542.83	0.670
543.03	0.670
543.23	0.668
543.43	0.669
543.62	0.670
543.82	0.670
544.02	0.669
544.22	0.669
544.42	0.672
544.61	0.673
544.81	0.670
545.01	0.668
545.21	0.670
545.40	0.670
545.60	0.669
545.80	0.672
546.00	0.673
546.19	0.672
546.39	0.671
546.59	0.668
546.79	0.669
546.98	0.669
547.18	0.669
547.38	0.670
547.58	0.672
547.77	0.672
547.97	0.667
548.17	0.668
548.37	0.669
548.56	0.670
548.76	0.670
548.96	0.671
549.16	0.673
549.35	0.673
549.55	0.671
549.75	0.672
549.95	0.675
550.14	0.676
550.34	0.674
550.54	0.680
550.73	0.683
550.93	0.683
551.13	0.681
551.33	0.679
551.52	0.680
551.72	0.680
551.92	0.679
552.12	0.679
552.31	0.680
552.51	0.680
552.71	0.675
552.90	0.675
553.10	0.675
553.30	0.675
553.50	0.674
553.69	0.676
553.89	0.676
554.09	0.676
554.28	0.673
554.48	0.673
554.68	0.675
554.87	0.675
555.07	0.672
555.27	0.672
555.47	0.674
555.66	0.675
555.86	0.673
556.06	0.675
556.25	0.676
556.45	0.684
556.65	0.683
556.84	0.685
557.04	0.689
557.24	0.691
557.43	0.691
557.63	0.694
557.83	0.696
558.02	0.696
558.22	0.700
558.42	0.701
558.61	0.694
558.81	0.695
559.01	0.691
559.21	0.691
559.40	0.691
559.60	0.692
559.80	0.688
559.99	0.688
560.19	0.690
560.39	0.684
560.58	0.683
560.78	0.683
560.97	0.686
561.17	0.685
561.37	0.682
561.56	0.683
561.76	0.684
561.96	0.684
562.15	0.682
562.35	0.684
562.55	0.684
562.74	0.684
562.94	0.682
563.14	0.680
563.33	0.681
563.53	0.681
563.73	0.679
563.92	0.680
564.12	0.683
564.31	0.685
564.51	0.683
564.71	0.685
564.90	0.688
565.10	0.689
565.30	0.691
565.49	0.692
565.69	0.694
565.89	0.694
566.08	0.692
566.28	0.693
566.47	0.695
566.67	0.694
566.87	0.691
567.06	0.693
567.26	0.699
567.46	0.696
567.65	0.696
567.85	0.697
568.04	0.700
568.24	0.699
568.44	0.696
568.63	0.695
568.83	0.696
569.02	0.694
569.22	0.690
569.42	0.686
569.61	0.687
569.81	0.686
570.00	0.684
570.20	0.685
570.40	0.686
570.59	0.686
570.79	0.684
570.98	0.682
571.18	0.683
571.38	0.683
571.57	0.680
571.77	0.679
571.96	0.682
572.16	0.679
572.35	0.674
572.55	0.675
572.75	0.673
572.94	0.673
573.14	0.671
573.33	0.671
573.53	0.672
573.73	0.672
573.92	0.670
574.12	0.668
574.31	0.671
574.51	0.672
574.70	0.670
574.90	0.672
575.09	0.674
575.29	0.674
575.49	0.672
575.68	0.672
575.88	0.673
576.07	0.674
576.27	0.672
576.46	0.670
576.66	0.669
576.86	0.669
577.05	0.666
577.25	0.665
577.44	0.666
577.64	0.666
577.83	0.664
578.03	0.666
578.22	0.666
578.42	0.665
578.61	0.663
578.81	0.664
579.00	0.664
579.20	0.664
579.40	0.663
579.59	0.662
579.79	0.662
579.98	0.661
580.18	0.661
580.37	0.661
580.57	0.663
580.76	0.668
580.96	0.666
581.15	0.667
581.35	0.668
581.54	0.668
581.74	0.668
581.93	0.669
582.13	0.670
582.32	0.667
582.52	0.665
582.71	0.664
582.91	0.660
583.10	0.660
583.30	0.658
583.49	0.657
583.69	0.661
583.88	0.663
584.08	0.662
584.27	0.664
584.47	0.668
584.66	0.669
584.86	0.668
585.05	0.670
585.25	0.673
585.44	0.673
585.64	0.671
585.83	0.668
586.03	0.668
586.22	0.666
586.42	0.662
586.61	0.663
586.81	0.665
587.00	0.665
587.20	0.662
587.39	0.663
587.59	0.665
587.78	0.666
587.98	0.666
588.17	0.667
588.37	0.669
588.56	0.671
588.76	0.667
588.95	0.668
589.15	0.671
589.34	0.674
589.54	0.672
589.73	0.673
589.92	0.676
590.12	0.676
590.31	0.674
590.51	0.679
590.70	0.681
590.90	0.681
591.09	0.679
591.29	0.678
591.48	0.678
591.68	0.679
591.87	0.677
592.06	0.677
592.26	0.680
592.45	0.679
592.65	0.672
592.84	0.672
593.04	0.675
593.23	0.677
593.43	0.674
593.62	0.673
593.81	0.673
594.01	0.673
594.20	0.670
594.40	0.669
594.59	0.670
594.79	0.671
594.98	0.670
595.17	0.669
595.37	0.670
595.56	0.672
595.76	0.672
595.95	0.674
596.14	0.677
596.34	0.678
596.53	0.677
596.73	0.679
596.92	0.681
597.12	0.684
597.31	0.683
597.50	0.683
597.70	0.684
597.89	0.684
598.09	0.680
598.28	0.681
598.47	0.684
598.67	0.682
598.86	0.679
599.06	0.680
599.25	0.680
599.44	0.678
599.64	0.676
599.83	0.673
600.03	0.676
600.22	0.676
600.41	0.676
600.61	0.674
600.80	0.675
601.00	0.675
601.19	0.672
601.38	0.670
601.58	0.672
601.77	0.674
601.96	0.676
602.16	0.676
602.35	0.685
602.55	0.682
602.74	0.683
602.93	0.685
603.13	0.691
603.32	0.693
603.51	0.693
603.71	0.697
603.90	0.698
604.09	0.698
604.29	0.696
604.48	0.691
604.68	0.692
604.87	0.690
605.06	0.687
605.26	0.683
605.45	0.683
605.64	0.683
605.84	0.678
606.03	0.676
606.22	0.675
606.42	0.674
606.61	0.671
606.80	0.671
607.00	0.672
607.19	0.673
607.38	0.671
607.58	0.673
607.77	0.675
607.96	0.674
608.16	0.673
608.35	0.677
608.54	0.680
608.74	0.683
608.93	0.688
609.12	0.690
609.32	0.693
609.51	0.696
609.70	0.694
609.90	0.697
610.09	0.701
610.28	0.707
610.48	0.701
610.67	0.702
610.86	0.703
611.06	0.698
611.25	0.696
611.44	0.697
611.64	0.696
611.83	0.700
612.02	0.696
612.21	0.695
612.41	0.693
612.60	0.692
612.79	0.688
612.99	0.688
613.18	0.691
613.37	0.689
613.57	0.686
613.76	0.687
613.95	0.684
614.14	0.684
614.34	0.682
614.53	0.683
614.72	0.685
614.92	0.685
615.11	0.682
615.30	0.679
615.49	0.679
615.69	0.682
615.88	0.679
616.07	0.680
616.26	0.682
616.46	0.683
616.65	0.680
616.84	0.679
617.04	0.680
617.23	0.683
617.42	0.684
617.61	0.688
617.81	0.688
618.00	0.690
618.19	0.689
618.38	0.693
618.58	0.695
618.77	0.697
618.96	0.696
619.15	0.698
619.35	0.699
619.54	0.700
619.73	0.696
619.92	0.698
620.12	0.702
620.31	0.702
620.50	0.696
620.69	0.696
620.89	0.699
621.08	0.700
621.27	0.701
621.46	0.701
621.66	0.704
621.85	0.704
622.04	0.701
622.23	0.702
622.43	0.703
622.62	0.703
622.81	0.703
623.00	0.703
623.19	0.705
623.39	0.704
623.58	0.701
623.77	0.699
623.96	0.701
624.16	0.701
624.35	0.696
624.54	0.699
624.73	0.702
624.92	0.700
625.12	0.696
625.31	0.696
625.50	0.699
625.69	0.700
625.88	0.697
626.08	0.697
626.27	0.697
626.46	0.698
626.65	0.694
626.84	0.695
627.04	0.700
627.23	0.700
627.42	0.696
627.61	0.698
627.80	0.700
628.00	0.700
628.19	0.699
628.38	0.701
628.57	0.704
628.76	0.703
628.96	0.699
629.15	0.699
629.34	0.702
629.53	0.702
629.72	0.697
629.91	0.698
630.11	0.704
630.30	0.704
630.49	0.707
630.68	0.707
630.87	0.711
631.06	0.713
631.26	0.709
631.45	0.710
631.64	0.718
631.83	0.720
632.02	0.718
632.21	0.716
632.41	0.722
632.60	0.717
632.79	0.716
632.98	0.716
633.17	0.718
633.36	0.720
633.55	0.717
633.75	0.714
633.94	0.714
634.13	0.715
634.32	0.711
634.51	0.706
634.70	0.707
634.89	0.708
635.09	0.704
635.28	0.704
635.47	0.704
635.66	0.706
635.85	0.702
636.04	0.704
636.23	0.708
636.43	0.709
636.62	0.708
636.81	0.707
637.00	0.709
637.19	0.712
637.38	0.710
637.57	0.710
637.76	0.711
637.95	0.713
638.15	0.709
638.34	0.705
638.53	0.708
638.72	0.709
638.91	0.707
639.10	0.705
639.29	0.705
639.48	0.706
639.67	0.706
639.87	0.705
640.06	0.709
640.25	0.709
640.44	0.710
640.63	0.711
640.82	0.713
641.01	0.713
641.20	0.712
641.39	0.714
641.58	0.715
641.78	0.714
641.97	0.712
642.16	0.725
642.35	0.726
642.54	0.725
642.73	0.720
642.92	0.718
643.11	0.721
643.30	0.722
643.49	0.718
643.68	0.720
643.87	0.720
644.06	0.719
644.25	0.699
644.45	0.702
644.64	0.703
644.83	0.703
645.02	0.701
645.21	0.700
645.40	0.701
645.59	0.701
645.78	0.697
645.97	0.701
646.16	0.702
646.35	0.702
646.54	0.700
646.73	0.702
646.92	0.702
647.11	0.702
647.30	0.699
647.49	0.701
647.68	0.700
647.88	0.698
648.07	0.691
648.26	0.694
648.45	0.694
648.64	0.691
648.83	0.689
649.02	0.692
649.21	0.702
649.40	0.700
649.59	0.695
649.78	0.696
649.97	0.710
650.16	0.709
650.35	0.703
650.54	0.705
650.73	0.713
650.92	0.710
651.11	0.704
651.30	0.701
651.49	0.704
651.68	0.705
651.87	0.703
652.06	0.692
652.25	0.695
652.44	0.700
652.63	0.700
652.82	0.702
653.01	0.703
653.20	0.702
653.39	0.692
653.58	0.690
653.77	0.689
653.96	0.685
654.15	0.678
654.34	0.676
654.53	0.670
654.72	0.663
654.91	0.652
655.10	0.648
655.29	0.645
655.48	0.643
655.67	0.638
655.86	0.635
656.05	0.634
656.24	0.633
656.43	0.628
656.62	0.627
656.81	0.626
657.00	0.623
657.19	0.619
657.38	0.618
657.57	0.617
657.76	0.618
657.95	0.615
658.14	0.618
658.33	0.620
658.51	0.624
658.70	0.624
658.89	0.626
659.08	0.635
659.27	0.644
659.46	0.646
659.65	0.653
659.84	0.656
660.03	0.659
660.22	0.660
660.41	0.665
660.60	0.664
660.79	0.666
660.98	0.672
661.17	0.671
661.36	0.670
661.55	0.670
661.74	0.668
661.92	0.671
662.11	0.674
662.30	0.672
662.49	0.666
662.68	0.666
662.87	0.668
663.06	0.662
663.25	0.665
663.44	0.665
663.63	0.665
663.82	0.663
664.01	0.659
664.20	0.657
664.38	0.658
664.57	0.659
664.76	0.659
664.95	0.660
665.14	0.665
665.33	0.659
665.52	0.666
665.71	0.670
665.90	0.671
666.09	0.671
666.28	0.670
666.46	0.670
666.65	0.670
666.84	0.668
667.03	0.663
667.22	0.661
667.41	0.663
667.60	0.653
667.79	0.647
667.98	0.648
668.16	0.648
668.35	0.648
668.54	0.644
668.73	0.646
668.92	0.646
669.11	0.645
669.30	0.639
669.49	0.636
669.67	0.638
669.86	0.640
670.05	0.638
670.24	0.636
670.43	0.633
670.62	0.632
670.81	0.627
671.00	0.628
671.18	0.628
671.37	0.627
671.56	0.625
671.75	0.624
671.94	0.620
672.13	0.618
672.32	0.614
672.50	0.614
672.69	0.614
672.88	0.613
673.07	0.609
673.26	0.611
673.45	0.612
673.63	0.611
673.82	0.608
674.01	0.609
674.20	0.608
674.39	0.608
674.58	0.607
674.76	0.607
674.95	0.606
675.14	0.606
675.33	0.602
675.52	0.600
675.71	0.600
675.89	0.600
676.08	0.597
676.27	0.597
676.46	0.598
676.65	0.597
676.84	0.596
677.02	0.598
677.21	0.600
677.40	0.599
677.59	0.598
677.78	0.599
677.96	0.601
678.15	0.600
678.34	0.598
678.53	0.598
678.72	0.599
678.90	0.595
679.09	0.591
679.28	0.588
679.47	0.588
679.66	0.587
679.84	0.584
680.03	0.581
680.22	0.580
680.41	0.581
680.60	0.578
680.78	0.578
680.97	0.580
681.16	0.580
681.35	0.579
681.53	0.578
681.72	0.579
681.91	0.581
682.10	0.580
682.29	0.582
682.47	0.579
682.66	0.577
682.85	0.576
683.04	0.574
683.22	0.574
683.41	0.576
683.60	0.575
683.79	0.575
683.97	0.575
684.16	0.573
684.35	0.569
684.54	0.571
684.72	0.573
684.91	0.573
685.10	0.571
685.29	0.572
685.47	0.569
685.66	0.568
685.85	0.564
686.04	0.564
686.22	0.566
686.41	0.569
686.60	0.566
686.79	0.569
686.97	0.570
687.16	0.571
687.35	0.568
687.54	0.572
687.72	0.575
687.91	0.575
688.10	0.577
688.29	0.577
688.47	0.574
688.66	0.574
688.85	0.571
689.03	0.568
689.22	0.572
689.41	0.573
689.60	0.569
689.78	0.567
689.97	0.568
690.16	0.565
690.34	0.562
690.53	0.561
690.72	0.561
690.91	0.559
691.09	0.557
691.28	0.552
691.47	0.550
691.65	0.549
691.84	0.546
692.03	0.544
692.21	0.542
692.40	0.541
692.59	0.539
692.77	0.538
692.96	0.539
693.15	0.540
693.34	0.538
693.52	0.537
693.71	0.537
693.90	0.538
694.08	0.539
694.27	0.540
694.46	0.549
694.64	0.550
694.83	0.550
695.02	0.549
695.20	0.549
695.39	0.548
695.58	0.549
695.76	0.550
695.95	0.550
696.14	0.549
696.32	0.547
696.51	0.538
696.70	0.538
696.88	0.539
697.07	0.538
697.26	0.539
697.44	0.540
697.63	0.538
697.81	0.536
698.00	0.535
698.19	0.534
698.37	0.533
698.56	0.533
698.75	0.533
698.93	0.532
699.12	0.532
699.31	0.531
699.49	0.531
699.68	0.533
699.87	0.535
700.05	0.535
700.24	0.535
700.42	0.537
700.61	0.536
700.80	0.535
700.98	0.535
701.17	0.536
701.36	0.534
701.54	0.533
701.73	0.534
701.91	0.532
702.10	0.531
702.29	0.530
702.47	0.528
702.66	0.530
702.84	0.531
703.03	0.529
703.22	0.530
703.40	0.530
703.59	0.532
703.77	0.531
703.96	0.531
704.15	0.532
704.33	0.532
704.52	0.531
704.70	0.531
704.89	0.530
705.08	0.529
705.26	0.526
705.45	0.526
705.63	0.525
705.82	0.522
706.00	0.521
706.19	0.520
706.38	0.520
706.56	0.519
706.75	0.517
706.93	0.516
707.12	0.517
707.30	0.517
707.49	0.515
707.68	0.513
707.86	0.512
708.05	0.512
708.23	0.509
708.42	0.510
708.60	0.512
708.79	0.512
708.98	0.511
709.16	0.510
709.35	0.512
709.53	0.515
709.72	0.514
709.90	0.516
710.09	0.518
710.27	0.520
710.46	0.523
710.64	0.521
710.83	0.523
711.02	0.525
711.20	0.524
711.39	0.522
711.57	0.520
711.76	0.521
711.94	0.520
712.13	0.521
712.31	0.520
712.50	0.516
712.68	0.514
712.87	0.515
713.05	0.515
713.24	0.515
713.42	0.515
713.61	0.516
713.79	0.516
713.98	0.517
714.16	0.517
714.35	0.517
714.54	0.518
714.72	0.518
714.91	0.516
715.09	0.522
715.28	0.524
715.46	0.524
715.65	0.521
715.83	0.521
716.02	0.524
716.20	0.521
716.39	0.521
716.57	0.522
716.76	0.524
716.94	0.524
717.12	0.516
717.31	0.518
717.49	0.521
717.68	0.523
717.86	0.522
718.05	0.524
718.23	0.526
718.42	0.528
718.60	0.529
718.79	0.536
718.97	0.538
719.16	0.538
719.34	0.536
719.53	0.536
719.71	0.535
719.90	0.536
720.08	0.533
720.27	0.533
720.45	0.532
720.63	0.532
720.82	0.526
721.00	0.529
721.19	0.532
721.37	0.532
721.56	0.532
721.74	0.535
721.93	0.543
722.11	0.549
722.30	0.549
722.48	0.553
722.66	0.554
722.85	0.552
723.03	0.553
723.22	0.552
723.40	0.555
723.59	0.555
723.77	0.560
723.95	0.553
724.14	0.555
724.32	0.556
724.51	0.556
724.69	0.558
724.88	0.558
725.06	0.556
725.24	0.558
725.43	0.559
725.61	0.561
725.80	0.555
725.98	0.554
726.16	0.551
726.35	0.556
726.53	0.554
726.72	0.553
726.90	0.563
727.09	0.564
727.27	0.569
727.45	0.566
727.64	0.574
727.82	0.581
728.01	0.585
728.19	0.582
728.37	0.586
728.56	0.589
728.74	0.595
728.92	0.584
729.11	0.587
729.29	0.584
729.48	0.587
729.66	0.578
729.84	0.578
730.03	0.581
730.21	0.584
730.40	0.576
730.58	0.578
730.76	0.578
730.95	0.579
731.13	0.578
731.31	0.591
731.50	0.600
731.68	0.603
731.86	0.599
732.05	0.612
732.23	0.616
732.42	0.619
732.60	0.623
732.78	0.630
732.97	0.647
733.15	0.654
733.33	0.643
733.52	0.649
733.70	0.658
733.88	0.668
734.07	0.655
734.25	0.678
734.43	0.685
734.62	0.686
734.80	0.681
734.98	0.672
735.17	0.679
735.35	0.684
735.53	0.673
735.72	0.675
735.90	0.695
736.08	0.712
736.27	0.691
736.45	0.702
736.63	0.712
736.82	0.720
737.00	0.720
737.18	0.729
737.37	0.759
737.55	0.782
737.73	0.779
737.92	0.779
738.10	0.778
738.28	0.796
738.46	0.783
738.65	0.796
738.83	0.817
739.01	0.866
739.20	0.857
739.38	0.839
739.56	0.829
739.75	0.830
739.93	0.799
740.11	0.819
740.29	0.819
740.48	0.828
740.66	0.807
740.84	0.799
741.03	0.765
741.21	0.777
741.39	0.761
741.57	0.773
741.76	0.787
741.94	0.791
742.12	0.763
742.31	0.769
742.49	0.783
742.67	0.806
742.85	0.820
743.04	0.825
743.22	0.828
743.40	0.878
743.58	0.867
743.77	0.884
743.95	0.916
744.13	0.960
744.31	0.944
744.50	0.942
744.68	0.934
744.86	0.912
745.04	0.928
745.23	0.987
745.41	0.962
745.59	0.966
745.77	0.937
745.96	0.929
746.14	0.936
746.32	0.932
746.50	0.924
746.69	0.910
746.87	0.915
747.05	0.895
747.23	0.833
747.42	0.821
747.60	0.841
747.78	0.845
747.96	0.871
748.14	0.831
748.33	0.853
748.51	0.847
748.69	0.844
748.87	0.870
749.06	0.869
749.24	0.868
749.42	0.858
749.60	0.845
749.78	0.852
749.97	0.808
750.15	0.805
750.33	0.808
750.51	0.828
750.69	0.833
750.88	0.839
751.06	0.846
751.24	0.867
751.42	0.859
751.60	0.853
751.79	0.910
751.97	0.949
752.15	0.945
752.33	0.918
752.51	0.977
752.69	0.985
752.88	0.956
753.06	1.000
753.24	0.986
753.42	1.014
753.60	1.149
753.78	1.038
753.97	1.060
754.15	1.076
754.33	1.100
754.51	0.998
754.69	0.985
754.87	1.009
755.06	0.942
755.24	0.941
755.42	0.948
755.60	0.859
755.78	0.868
755.96	0.818
756.15	0.816
756.33	0.821
756.51	0.834
756.69	0.825
756.87	0.795
757.05	0.810
757.23	0.795
757.42	0.766
757.60	0.765
757.78	0.753
757.96	0.751
758.14	0.738
758.32	0.723
758.50	0.734
758.69	0.730
758.87	0.726
759.05	0.729
759.23	0.735
759.41	0.738
759.59	0.731
759.77	0.750
759.95	0.773
760.13	0.818
760.32	0.818
760.50	0.810
760.68	0.833
760.86	0.832
761.04	0.810
761.22	0.815
761.40	0.854
761.58	0.859
761.76	0.835
761.95	0.819
762.13	0.777
762.31	0.778
762.49	0.755
762.67	0.770
762.85	0.780
763.03	0.776
763.21	0.760
763.39	0.742
763.57	0.740
763.75	0.738
763.94	0.724
764.12	0.726
764.30	0.747
764.48	0.751
764.66	0.718
764.84	0.715
765.02	0.748
765.20	0.754
765.38	0.738
765.56	0.744
765.74	0.777
765.92	0.780
766.10	0.788
766.28	0.779
766.46	0.803
766.65	0.807
766.83	0.797
767.01	0.785
767.19	0.788
767.37	0.789
767.55	0.780
767.73	0.761
767.91	0.762
768.09	0.749
768.27	0.742
768.45	0.732
768.63	0.735
768.81	0.739
768.99	0.714
769.17	0.737
769.35	0.749
769.53	0.747
769.71	0.729
769.89	0.737
770.07	0.741
770.25	0.724
770.43	0.704
770.61	0.722
770.79	0.725
770.97	0.735
771.15	0.708
771.33	0.710
771.51	0.712
771.69	0.724
771.87	0.731
772.05	0.738
772.24	0.745
772.42	0.754
772.60	0.736
772.78	0.788
772.96	0.808
773.14	0.805
773.32	0.786
773.49	0.791
773.67	0.789
773.85	0.770
774.03	0.761
774.21	0.788
774.39	0.797
774.57	0.818
774.75	0.758
774.93	0.755
775.11	0.772
775.29	0.780
775.47	0.781
775.65	0.788
775.83	0.801
776.01	0.820
776.19	0.779
776.37	0.781
776.55	0.779
776.73	0.777
776.91	0.772
777.09	0.760
777.27	0.756
777.45	0.746
777.63	0.728
777.81	0.727
777.99	0.715
778.17	0.712
778.35	0.696
778.53	0.685
778.71	0.688
778.89	0.678
779.07	0.667
779.24	0.670
779.42	0.671
779.60	0.689
779.78	0.685
779.96	0.690
780.14	0.698
780.32	0.715
780.50	0.701
780.68	0.697
780.86	0.688
781.04	0.704
781.22	0.709
781.40	0.718
781.58	0.706
781.75	0.702
781.93	0.686
782.11	0.687
782.29	0.671
782.47	0.671
782.65	0.664
782.83	0.691
783.01	0.684
783.19	0.678
783.37	0.665
783.55	0.667
783.72	0.681
783.90	0.690
784.08	0.683
784.26	0.695
784.44	0.714
784.62	0.716
784.80	0.689
784.98	0.695
785.16	0.700
785.33	0.715
785.51	0.704
785.69	0.689
785.87	0.686
786.05	0.698
786.23	0.698
786.41	0.694
786.59	0.700
786.77	0.699
786.94	0.688
787.12	0.692
787.30	0.690
787.48	0.689
787.66	0.681
787.84	0.685
788.02	0.674
788.19	0.671
788.37	0.658
788.55	0.659
788.73	0.660
788.91	0.654
789.09	0.637
789.27	0.627
789.44	0.636
789.62	0.642
789.80	0.648
789.98	0.670
790.16	0.657
790.34	0.654
790.51	0.643
790.69	0.659
790.87	0.665
791.05	0.664
791.23	0.661
791.41	0.662
791.58	0.667
791.76	0.649
791.94	0.624
792.12	0.632
792.30	0.634
792.48	0.633
792.65	0.628
792.83	0.634
793.01	0.641
793.19	0.640
793.37	0.626
793.54	0.621
793.72	0.630
793.90	0.628
794.08	0.618
794.26	0.617
794.43	0.623
794.61	0.608
794.79	0.597
794.97	0.595
795.15	0.597
795.32	0.602
795.50	0.593
795.68	0.591
795.86	0.593
796.04	0.596
796.21	0.591
796.39	0.590
796.57	0.602
796.75	0.609
796.92	0.609
797.10	0.614
797.28	0.615
797.46	0.619
797.64	0.619
797.81	0.627
797.99	0.629
798.17	0.635
798.35	0.631
798.52	0.634
798.70	0.629
798.88	0.639
799.06	0.639
799.23	0.641
799.41	0.649
799.59	0.640
799.77	0.629
799.94	0.636
800.12	0.642
800.30	0.657
800.48	0.657
800.65	0.659
800.83	0.647
801.01	0.640
801.19	0.640
801.36	0.635
801.54	0.639
801.72	0.650
801.90	0.640
802.07	0.636
802.25	0.619
802.43	0.605
802.60	0.602
802.78	0.607
802.96	0.611
803.14	0.606
803.31	0.605
803.49	0.605
803.67	0.601
803.84	0.604
804.02	0.598
804.20	0.603
804.38	0.607
804.55	0.608
804.73	0.597
804.91	0.596
805.08	0.607
805.26	0.604
805.44	0.666
805.61	0.670
805.79	0.669
805.97	0.670
806.15	0.663
806.32	0.656
806.50	0.661
806.68	0.658
806.85	0.654
807.03	0.645
807.21	0.657
807.38	0.594
807.56	0.584
807.74	0.593
807.91	0.597
808.09	0.600
808.27	0.618
808.44	0.641
808.62	0.649
808.80	0.650
808.97	0.646
809.15	0.641
809.33	0.655
809.50	0.661
809.68	0.650
809.86	0.658
810.03	0.685
810.21	0.666
810.39	0.650
810.56	0.657
810.74	0.676
810.91	0.743
811.09	0.736
811.27	0.755
811.44	0.760
811.62	0.762
811.80	0.749
811.97	0.721
812.15	0.722
812.33	0.717
812.50	0.705
812.68	0.696
812.85	0.642
813.03	0.643
813.21	0.616
813.38	0.613
813.56	0.615
813.74	0.624
813.91	0.631
814.09	0.658
814.26	0.650
814.44	0.652
814.62	0.646
814.79	0.647
814.97	0.651
815.14	0.656
815.32	0.656
815.50	0.670
815.67	0.670
815.85	0.663
816.02	0.653
816.20	0.661
816.38	0.674
816.55	0.677
816.73	0.680
816.90	0.689
817.08	0.713
817.26	0.722
817.43	0.704
817.61	0.729
817.78	0.743
817.96	0.724
818.13	0.716
818.31	0.716
818.49	0.727
818.66	0.718
818.84	0.708
819.01	0.688
819.19	0.689
819.36	0.691
819.54	0.665
819.71	0.704
819.89	0.716
820.07	0.728
820.24	0.724
820.42	0.724
820.59	0.739
820.77	0.756
820.94	0.752
821.12	0.773
821.29	0.784
821.47	0.785
821.64	0.726
821.82	0.738
822.00	0.734
822.17	0.731
822.35	0.724
822.52	0.726
822.70	0.718
822.87	0.727
823.05	0.705
823.22	0.714
823.40	0.737
823.57	0.758
823.75	0.745
823.92	0.765
824.10	0.782
824.27	0.818
824.45	0.810
824.62	0.862
824.80	0.875
824.97	0.891
825.15	0.887
825.32	0.895
825.50	0.897
825.67	0.906
825.85	0.886
826.02	0.899
826.20	0.913
826.37	1.017
826.55	0.951
826.72	1.103
826.90	1.150
827.07	1.182
827.25	1.146
827.42	1.257
827.60	1.354
827.77	1.468
827.95	1.458
828.12	1.526
828.30	1.278
828.47	1.371
828.65	1.104
828.82	1.143
829.00	1.183
829.17	1.247
829.34	1.232
829.52	1.246
829.69	-0.000
829.87	-0.000
830.04	-0.000
830.22	-0.000
830.39	-0.000
830.57	-0.000
830.74	-0.000
830.92	-0.000
831.09	-0.000
831.26	-0.000
831.44	-0.000
831.61	-0.000
831.79	-0.000
831.96	-0.000
832.14	-0.000
832.31	-0.000
832.49	-0.000
832.66	-0.000
832.83	-0.000
833.01	-0.000
833.18	-0.000
833.36	-0.000
833.53	-0.000
833.70	-0.000
833.88	-0.000
834.05	-0.000
834.23	-0.000
834.40	-0.000
834.58	-0.000
834.75	-0.000
834.92	-0.000
835.10	-0.000
835.27	-0.000
835.45	-0.000
835.62	-0.000
835.79	-0.000
835.97	-0.000
836.14	-0.000
836.32	-0.000
836.49	-0.000
836.66	-0.000
836.84	-0.000
837.01	-0.000
837.18	-0.000
837.36	-0.000
837.53	-0.000
837.71	-0.000
837.88	-0.000
838.05	-0.000
838.23	-0.000
838.40	-0.000
838.58	-0.000
838.75	-0.000
838.92	-0.000
839.10	-0.000
839.27	-0.000
839.44	-0.000
839.62	-0.000
839.79	-0.000
839.96	-0.000
840.14	-0.000
840.31	-0.000
840.48	-0.000
840.66	-0.000
840.83	-0.000
841.01	-0.000
841.18	-0.000
841.35	-0.000
841.53	-0.000
841.70	-0.000
841.87	-0.000
842.05	-0.000
842.22	-0.000
842.39	-0.000
842.57	-0.000
842.74	-0.000
842.91	-0.000
843.09	-0.000
843.26	-0.000
843.43	-0.000
843.60	-0.000
843.78	-0.000
843.95	-0.000
844.12	-0.000
844.30	-0.000
844.47	-0.000
844.64	-0.000
844.82	-0.000
844.99	-0.000
845.16	-0.000
845.34	-0.000
845.51	-0.000
845.68	-0.000
845.85	-0.000
846.03	-0.000
846.20	-0.000
846.37	-0.000
846.55	-0.000
846.72	-0.000
846.89	-0.000
847.06	-0.000
847.24	-0.000
847.41	-0.000
847.58	-0.000
847.76	-0.000
847.93	-0.000
848.10	-0.000
848.27	-0.000
848.45	-0.000
848.62	-0.000
848.79	-0.000
848.97	-0.000
849.14	-0.000
849.31	-0.000
849.48	-0.000
849.66	-0.000
849.83	-0.000
850.00	-0.000
850.17	-0.000
850.35	-0.000
850.52	-0.000
850.69	-0.000
850.86	-0.000
851.04	-0.000
851.21	-0.000
851.38	-0.000
851.55	-0.000
851.72	-0.000
851.90	-0.000
852.07	-0.000
852.24	-0.000
852.41	-0.000
852.59	-0.000
852.76	-0.000
852.93	-0.000
853.10	-0.000
853.28	-0.000
853.45	-0.000
853.62	-0.000
853.79	-0.000
853.96	-0.000
854.14	-0.000
854.31	-0.000
854.48	-0.000
854.65	-0.000
854.82	-0.000
855.00	-0.000
855.17	-0.000
855.34	-0.000
855.51	-0.000
855.68	-0.000
855.86	-0.000
856.03	-0.000
856.20	-0.000
856.37	-0.000
856.54	-0.000
856.72	-0.000
856.89	-0.000
857.06	-0.000
857.23	-0.000
857.40	-0.000
857.57	-0.000
857.75	-0.000
857.92	-0.000
858.09	-0.000
858.26	-0.000
858.43	-0.000
858.60	-0.000
858.78	-0.000
858.95	-0.000
859.12	-0.000
859.29	-0.000
859.46	-0.000
859.63	-0.000
859.81	-0.000
859.98	-0.000
860.15	-0.000
860.32	-0.000
860.49	-0.000
860.66	-0.000
860.83	-0.000
861.01	-0.000
861.18	-0.000
861.35	-0.000
861.52	-0.000
861.69	-0.000
861.86	-0.000
862.03	-0.000
862.21	-0.000
862.38	-0.000
862.55	-0.000
862.72	-0.000
862.89	-0.000
863.06	-0.000
863.23	-0.000
863.40	-0.000
863.58	-0.000
863.75	-0.000
863.92	-0.000
864.09	-0.000
864.26	-0.000
864.43	-0.000
864.60	-0.000
864.77	-0.000
864.94	-0.000
865.11	-0.000
865.29	-0.000
865.46	-0.000
865.63	-0.000
865.80	-0.000
865.97	-0.000
866.14	-0.000
866.31	-0.000
866.48	-0.000
866.65	-0.000
866.82	-0.000
866.99	-0.000
867.16	-0.000
867.34	-0.000
867.51	-0.000
867.68	-0.000
867.85	-0.000
868.02	-0.000
868.19	-0.000
868.36	-0.000
868.53	-0.000
868.70	-0.000
868.87	-0.000
869.04	-0.000
869.21	-0.000
869.38	-0.000
869.55	-0.000
869.72	-0.000
869.89	-0.000
870.06	-0.000
870.24	-0.000
870.41	-0.000
870.58	-0.000
870.75	-0.000
870.92	-0.000
871.09	-0.000
871.26	-0.000
871.43	-0.000
871.60	-0.000
871.77	-0.000
871.94	-0.000
872.11	-0.000
872.28	-0.000
872.45	-0.000
872.62	-0.000
872.79	-0.000
872.96	-0.000
873.13	-0.000
873.30	-0.000
873.47	-0.000
873.64	-0.000
873.81	-0.000
873.98	-0.000
874.15	-0.000
874.32	-0.000
874.49	-0.000
874.66	-0.000
874.83	-0.000
875.00	-0.000
875.17	-0.000
875.34	-0.000
875.51	-0.000
875.68	-0.000
875.85	-0.000
876.02	-0.000
876.19	-0.000
876.36	-0.000
876.53	-0.000
876.70	-0.000
876.87	-0.000
877.04	-0.000
877.21	-0.000
877.38	-0.000
877.55	-0.000
877.72	-0.000
877.89	-0.000
878.06	-0.000
878.23	-0.000
878.39	-0.000
878.56	-0.000
878.73	-0.000
878.90	-0.000
879.07	-0.000
879.24	-0.000
879.41	-0.000
879.58	-0.000
879.75	-0.000
879.92	-0.000
880.09	-0.000
880.26	-0.000
880.43	-0.000
880.60	-0.000
880.77	-0.000
880.94	-0.000
881.11	-0.000
881.27	-0.000
881.44	-0.000
881.61	-0.000
881.78	-0.000
881.95	-0.000
882.12	-0.000
882.29	-0.000
882.46	-0.000
882.63	-0.000
882.80	-0.000
882.97	-0.000
883.14	-0.000
883.30	-0.000
883.47	-0.000
883.64	-0.000
883.81	-0.000
883.98	-0.000
884.15	-0.000
884.32	-0.000
884.49	-0.000
884.66	-0.000
884.82	-0.000
884.99	-0.000
885.16	-0.000
885.33	-0.000
885.50	-0.000
885.67	-0.000
885.84	-0.000
886.01	-0.000
886.17	-0.000
886.34	-0.000
886.51	-0.000
886.68	-0.000
886.85	-0.000
887.02	-0.000
887.19	-0.000
887.36	-0.000
887.52	-0.000
887.69	-0.000
887.86	-0.000
888.03	-0.000
888.20	-0.000
888.37	-0.000
888.54	-0.000
888.70	-0.000
888.87	-0.000
889.04	-0.000
889.21	-0.000
889.38	-0.000
889.55	-0.000
889.71	-0.000
889.88	-0.000
890.05	-0.000
890.22	-0.000
890.39	-0.000
>>>>>End Processed Spectral Data<<<<<
