SpectraSuite Data File
++++++++++++++++++++++++++++++++++++
Date: Fri Jun 19 14:39:35 CEST 2015
User: introlabs
Dark Spectrum Present: Yes
Reference Spectrum Present: Yes
Number of Sampled Component Spectra: 1
Spectrometers: USB4H08886
Integration Time (usec): 745692 (USB4H08886)
Spectra Averaged: 5 (USB4H08886)
Boxcar Smoothing: 5 (USB4H08886)
Correct for Electrical Dark: Yes (USB4H08886)
Strobe/Lamp Enabled: No (USB4H08886)
Correct for Detector Non-linearity: Yes (USB4H08886)
Correct for Stray Light: Yes (USB4H08886)
Number of Pixels in Processed Spectrum: 3648
>>>>>Begin Processed Spectral Data<<<<<
178.14	-0.000
178.36	-0.000
178.57	-0.000
178.79	-0.000
179.01	-0.000
179.22	-0.000
179.44	-0.000
179.65	-0.000
179.87	-0.000
180.08	-0.000
180.30	-0.000
180.52	-0.000
180.73	-0.000
180.95	-0.000
181.16	-0.000
181.38	-0.000
181.59	-0.000
181.81	-0.000
182.03	-0.000
182.24	-0.000
182.46	-0.000
182.67	-0.000
182.89	-0.000
183.10	-0.000
183.32	-0.000
183.54	-0.000
183.75	-0.000
183.97	-0.000
184.18	-0.000
184.40	-0.000
184.61	-0.000
184.83	-0.000
185.04	-0.000
185.26	-0.000
185.48	-0.000
185.69	-0.000
185.91	-0.000
186.12	-0.000
186.34	-0.000
186.55	-0.000
186.77	-0.000
186.98	-0.000
187.20	-0.000
187.42	-0.000
187.63	-0.000
187.85	-0.000
188.06	-0.000
188.28	-0.000
188.49	-0.000
188.71	-0.000
188.92	-0.000
189.14	-0.000
189.36	-0.000
189.57	-0.000
189.79	-0.000
190.00	-0.000
190.22	-0.000
190.43	-0.000
190.65	-0.000
190.86	-0.000
191.08	-0.000
191.29	-0.000
191.51	-0.000
191.72	-0.000
191.94	-0.000
192.16	-0.000
192.37	-0.000
192.59	-0.000
192.80	-0.000
193.02	-0.000
193.23	-0.000
193.45	-0.000
193.66	-0.000
193.88	-0.000
194.09	-0.000
194.31	-0.000
194.52	-0.000
194.74	-0.000
194.95	-0.000
195.17	-0.000
195.38	-0.000
195.60	-0.000
195.81	-0.000
196.03	-0.000
196.25	-0.000
196.46	-0.000
196.68	-0.000
196.89	-0.000
197.11	-0.000
197.32	-0.000
197.54	-0.000
197.75	-0.000
197.97	-0.000
198.18	-0.000
198.40	-0.000
198.61	-0.000
198.83	-0.000
199.04	-0.000
199.26	-0.000
199.47	-0.000
199.69	-0.000
199.90	-0.000
200.12	-0.000
200.33	-0.000
200.55	-0.000
200.76	-0.000
200.98	-0.000
201.19	-0.000
201.41	-0.000
201.62	-0.000
201.84	-0.000
202.05	-0.000
202.27	-0.000
202.48	-0.000
202.70	-0.000
202.91	-0.000
203.13	-0.000
203.34	-0.000
203.56	-0.000
203.77	-0.000
203.99	-0.000
204.20	-0.000
204.42	-0.000
204.63	-0.000
204.85	-0.000
205.06	-0.000
205.28	-0.000
205.49	-0.000
205.71	-0.000
205.92	-0.000
206.14	-0.000
206.35	-0.000
206.56	-0.000
206.78	-0.000
206.99	-0.000
207.21	-0.000
207.42	-0.000
207.64	-0.000
207.85	-0.000
208.07	-0.000
208.28	-0.000
208.50	-0.000
208.71	-0.000
208.93	-0.000
209.14	-0.000
209.36	-0.000
209.57	-0.000
209.79	-0.000
210.00	-0.000
210.22	-0.000
210.43	-0.000
210.64	-0.000
210.86	-0.000
211.07	-0.000
211.29	-0.000
211.50	-0.000
211.72	-0.000
211.93	-0.000
212.15	-0.000
212.36	-0.000
212.58	-0.000
212.79	-0.000
213.01	-0.000
213.22	-0.000
213.43	-0.000
213.65	-0.000
213.86	-0.000
214.08	-0.000
214.29	-0.000
214.51	-0.000
214.72	-0.000
214.94	-0.000
215.15	-0.000
215.36	-0.000
215.58	-0.000
215.79	-0.000
216.01	-0.000
216.22	-0.000
216.44	-0.000
216.65	-0.000
216.87	-0.000
217.08	-0.000
217.29	-0.000
217.51	-0.000
217.72	-0.000
217.94	-0.000
218.15	-0.000
218.37	-0.000
218.58	-0.000
218.80	-0.000
219.01	-0.000
219.22	-0.000
219.44	-0.000
219.65	-0.000
219.87	-0.000
220.08	-0.000
220.30	-0.000
220.51	-0.000
220.72	-0.000
220.94	-0.000
221.15	-0.000
221.37	-0.000
221.58	-0.000
221.79	-0.000
222.01	-0.000
222.22	-0.000
222.44	-0.000
222.65	-0.000
222.87	-0.000
223.08	-0.000
223.29	-0.000
223.51	-0.000
223.72	-0.000
223.94	-0.000
224.15	-0.000
224.36	-0.000
224.58	-0.000
224.79	-0.000
225.01	-0.000
225.22	-0.000
225.44	-0.000
225.65	-0.000
225.86	-0.000
226.08	-0.000
226.29	-0.000
226.51	-0.000
226.72	-0.000
226.93	-0.000
227.15	-0.000
227.36	-0.000
227.58	-0.000
227.79	-0.000
228.00	-0.000
228.22	-0.000
228.43	-0.000
228.65	-0.000
228.86	-0.000
229.07	-0.000
229.29	-0.000
229.50	-0.000
229.72	-0.000
229.93	-0.000
230.14	-0.000
230.36	-0.000
230.57	-0.000
230.78	-0.000
231.00	-0.000
231.21	-0.000
231.43	-0.000
231.64	-0.000
231.85	-0.000
232.07	-0.000
232.28	-0.000
232.50	-0.000
232.71	-0.000
232.92	-0.000
233.14	-0.000
233.35	-0.000
233.56	-0.000
233.78	-0.000
233.99	-0.000
234.21	-0.000
234.42	-0.000
234.63	-0.000
234.85	-0.000
235.06	-0.000
235.27	-0.000
235.49	-0.000
235.70	-0.000
235.91	-0.000
236.13	-0.000
236.34	-0.000
236.56	-0.000
236.77	-0.000
236.98	-0.000
237.20	-0.000
237.41	-0.000
237.62	-0.000
237.84	-0.000
238.05	-0.000
238.26	-0.000
238.48	-0.000
238.69	-0.000
238.91	-0.000
239.12	-0.000
239.33	-0.000
239.55	-0.000
239.76	-0.000
239.97	-0.000
240.19	-0.000
240.40	-0.000
240.61	-0.000
240.83	-0.000
241.04	-0.000
241.25	-0.000
241.47	-0.000
241.68	-0.000
241.89	-0.000
242.11	-0.000
242.32	-0.000
242.53	-0.000
242.75	-0.000
242.96	-0.000
243.17	-0.000
243.39	-0.000
243.60	-0.000
243.81	-0.000
244.03	-0.000
244.24	-0.000
244.45	-0.000
244.67	-0.000
244.88	-0.000
245.09	-0.000
245.31	-0.000
245.52	-0.000
245.73	-0.000
245.95	-0.000
246.16	-0.000
246.37	-0.000
246.59	-0.000
246.80	-0.000
247.01	-0.000
247.23	-0.000
247.44	-0.000
247.65	-0.000
247.87	-0.000
248.08	-0.000
248.29	-0.000
248.51	-0.000
248.72	-0.000
248.93	-0.000
249.15	-0.000
249.36	-0.000
249.57	-0.000
249.78	-0.000
250.00	-0.000
250.21	-0.000
250.42	-0.000
250.64	-0.000
250.85	-0.000
251.06	-0.000
251.28	-0.000
251.49	-0.000
251.70	-0.000
251.92	-0.000
252.13	-0.000
252.34	-0.000
252.55	-0.000
252.77	-0.000
252.98	-0.000
253.19	-0.000
253.41	-0.000
253.62	-0.000
253.83	-0.000
254.05	-0.000
254.26	-0.000
254.47	-0.000
254.68	-0.000
254.90	-0.000
255.11	-0.000
255.32	-0.000
255.54	-0.000
255.75	-0.000
255.96	-0.000
256.17	-0.000
256.39	-0.000
256.60	-0.000
256.81	-0.000
257.03	-0.000
257.24	-0.000
257.45	-0.000
257.66	-0.000
257.88	-0.000
258.09	-0.000
258.30	-0.000
258.51	-0.000
258.73	-0.000
258.94	-0.000
259.15	-0.000
259.37	-0.000
259.58	-0.000
259.79	-0.000
260.00	-0.000
260.22	-0.000
260.43	-0.000
260.64	-0.000
260.85	-0.000
261.07	-0.000
261.28	-0.000
261.49	-0.000
261.71	-0.000
261.92	-0.000
262.13	-0.000
262.34	-0.000
262.56	-0.000
262.77	-0.000
262.98	-0.000
263.19	-0.000
263.41	-0.000
263.62	-0.000
263.83	-0.000
264.04	-0.000
264.26	-0.000
264.47	-0.000
264.68	-0.000
264.89	-0.000
265.11	-0.000
265.32	-0.000
265.53	-0.000
265.74	-0.000
265.96	-0.000
266.17	-0.000
266.38	-0.000
266.59	-0.000
266.81	-0.000
267.02	-0.000
267.23	-0.000
267.44	-0.000
267.65	-0.000
267.87	-0.000
268.08	-0.000
268.29	-0.000
268.50	-0.000
268.72	-0.000
268.93	-0.000
269.14	-0.000
269.35	-0.000
269.57	-0.000
269.78	-0.000
269.99	-0.000
270.20	-0.000
270.41	-0.000
270.63	-0.000
270.84	-0.000
271.05	-0.000
271.26	-0.000
271.48	-0.000
271.69	-0.000
271.90	-0.000
272.11	-0.000
272.32	-0.000
272.54	-0.000
272.75	-0.000
272.96	-0.000
273.17	-0.000
273.39	-0.000
273.60	-0.000
273.81	-0.000
274.02	-0.000
274.23	-0.000
274.45	-0.000
274.66	-0.000
274.87	-0.000
275.08	-0.000
275.29	-0.000
275.51	-0.000
275.72	-0.000
275.93	-0.000
276.14	-0.000
276.35	-0.000
276.57	-0.000
276.78	-0.000
276.99	-0.000
277.20	-0.000
277.41	-0.000
277.63	-0.000
277.84	-0.000
278.05	-0.000
278.26	-0.000
278.47	-0.000
278.69	-0.000
278.90	-0.000
279.11	-0.000
279.32	-0.000
279.53	-0.000
279.74	-0.000
279.96	-0.000
280.17	-0.000
280.38	-0.000
280.59	-0.000
280.80	-0.000
281.02	-0.000
281.23	-0.000
281.44	-0.000
281.65	-0.000
281.86	-0.000
282.07	-0.000
282.29	-0.000
282.50	-0.000
282.71	-0.000
282.92	-0.000
283.13	-0.000
283.35	-0.000
283.56	-0.000
283.77	-0.000
283.98	-0.000
284.19	-0.000
284.40	-0.000
284.62	-0.000
284.83	-0.000
285.04	-0.000
285.25	-0.000
285.46	-0.000
285.67	-0.000
285.88	-0.000
286.10	-0.000
286.31	-0.000
286.52	-0.000
286.73	-0.000
286.94	-0.000
287.15	-0.000
287.37	-0.000
287.58	-0.000
287.79	-0.000
288.00	-0.000
288.21	-0.000
288.42	-0.000
288.63	-0.000
288.85	-0.000
289.06	-0.000
289.27	-0.000
289.48	-0.000
289.69	-0.000
289.90	-0.000
290.11	-0.000
290.33	-0.000
290.54	-0.000
290.75	-0.000
290.96	-0.000
291.17	-0.000
291.38	-0.000
291.59	-0.000
291.81	-0.000
292.02	-0.000
292.23	-0.000
292.44	-0.000
292.65	-0.000
292.86	-0.000
293.07	-0.000
293.28	-0.000
293.50	-0.000
293.71	-0.000
293.92	-0.000
294.13	-0.000
294.34	-0.000
294.55	-0.000
294.76	-0.000
294.97	-0.000
295.19	-0.000
295.40	-0.000
295.61	-0.000
295.82	-0.000
296.03	-0.000
296.24	-0.000
296.45	2.448
296.66	1.898
296.87	1.920
297.09	2.033
297.30	2.419
297.51	1.823
297.72	1.776
297.93	1.925
298.14	1.876
298.35	1.808
298.56	1.756
298.77	1.926
298.99	1.864
299.20	1.835
299.41	1.807
299.62	1.733
299.83	1.708
300.04	1.640
300.25	1.621
300.46	1.669
300.67	1.641
300.88	1.584
301.10	1.590
301.31	1.670
301.52	1.600
301.73	1.536
301.94	1.546
302.15	1.565
302.36	1.506
302.57	1.439
302.78	1.450
302.99	1.494
303.20	1.514
303.41	1.417
303.63	1.402
303.84	1.405
304.05	1.401
304.26	1.338
304.47	1.346
304.68	1.353
304.89	1.345
305.10	1.303
305.31	1.285
305.52	1.334
305.73	1.326
305.94	1.285
306.15	1.278
306.37	1.306
306.58	1.313
306.79	1.281
307.00	1.306
307.21	1.350
307.42	1.340
307.63	1.303
307.84	1.264
308.05	1.301
308.26	1.304
308.47	1.280
308.68	1.270
308.89	1.271
309.10	1.267
309.31	1.224
309.52	1.213
309.73	1.229
309.95	1.223
310.16	1.197
310.37	1.188
310.58	1.203
310.79	1.202
311.00	1.199
311.21	1.204
311.42	1.206
311.63	1.202
311.84	1.182
312.05	1.181
312.26	1.209
312.47	1.220
312.68	1.193
312.89	1.177
313.10	1.184
313.31	1.155
313.52	1.153
313.73	1.154
313.94	1.158
314.15	1.140
314.36	1.117
314.57	1.106
314.78	1.093
314.99	1.087
315.21	1.074
315.42	1.078
315.63	1.093
315.84	1.070
316.05	1.057
316.26	1.063
316.47	1.081
316.68	1.078
316.89	1.060
317.10	1.081
317.31	1.086
317.52	1.088
317.73	1.067
317.94	1.065
318.15	1.110
318.36	1.108
318.57	1.092
318.78	1.080
318.99	1.115
319.20	1.112
319.41	1.076
319.62	1.079
319.83	1.093
320.04	1.088
320.25	1.073
320.46	1.038
320.67	1.043
320.88	1.040
321.09	1.025
321.30	1.011
321.51	1.027
321.72	1.026
321.93	1.009
322.14	1.001
322.35	1.029
322.56	1.030
322.77	1.018
322.98	1.027
323.19	1.032
323.40	1.040
323.61	1.018
323.82	1.012
324.03	1.018
324.24	1.016
324.45	1.003
324.66	0.984
324.87	0.982
325.08	0.982
325.29	0.964
325.50	0.957
325.71	0.963
325.92	0.971
326.13	0.958
326.34	0.960
326.55	0.967
326.76	0.965
326.97	0.955
327.18	0.949
327.39	0.976
327.60	0.977
327.80	0.978
328.01	0.976
328.22	0.974
328.43	0.977
328.64	0.962
328.85	0.969
329.06	0.971
329.27	0.970
329.48	0.964
329.69	0.943
329.90	0.953
330.11	0.946
330.32	0.938
330.53	0.932
330.74	0.932
330.95	0.932
331.16	0.917
331.37	0.926
331.58	0.927
331.79	0.927
332.00	0.919
332.21	0.911
332.42	0.917
332.63	0.910
332.83	0.907
333.04	0.910
333.25	0.921
333.46	0.917
333.67	0.901
333.88	0.903
334.09	0.912
334.30	0.909
334.51	0.902
334.72	0.896
334.93	0.899
335.14	0.897
335.35	0.889
335.56	0.885
335.77	0.894
335.98	0.893
336.18	0.886
336.39	0.880
336.60	0.883
336.81	0.882
337.02	0.882
337.23	0.886
337.44	0.890
337.65	0.892
337.86	0.881
338.07	0.877
338.28	0.882
338.49	0.880
338.70	0.872
338.91	0.880
339.11	0.886
339.32	0.882
339.53	0.870
339.74	0.866
339.95	0.863
340.16	0.862
340.37	0.853
340.58	0.851
340.79	0.856
341.00	0.856
341.21	0.845
341.41	0.845
341.62	0.846
341.83	0.847
342.04	0.843
342.25	0.854
342.46	0.859
342.67	0.857
342.88	0.850
343.09	0.849
343.30	0.857
343.50	0.860
343.71	0.850
343.92	0.849
344.13	0.853
344.34	0.852
344.55	0.835
344.76	0.834
344.97	0.839
345.18	0.838
345.38	0.834
345.59	0.828
345.80	0.828
346.01	0.826
346.22	0.821
346.43	0.815
346.64	0.824
346.85	0.824
347.06	0.816
347.26	0.816
347.47	0.820
347.68	0.815
347.89	0.811
348.10	0.806
348.31	0.813
348.52	0.813
348.73	0.810
348.93	0.806
349.14	0.808
349.35	0.807
349.56	0.801
349.77	0.797
349.98	0.802
350.19	0.799
350.39	0.795
350.60	0.791
350.81	0.806
351.02	0.804
351.23	0.800
351.44	0.804
351.65	0.806
351.86	0.804
352.06	0.803
352.27	0.803
352.48	0.805
352.69	0.804
352.90	0.798
353.11	0.785
353.31	0.794
353.52	0.789
353.73	0.780
353.94	0.783
354.15	0.789
354.36	0.788
354.57	0.779
354.77	0.782
354.98	0.781
355.19	0.780
355.40	0.779
355.61	0.784
355.82	0.788
356.02	0.787
356.23	0.780
356.44	0.781
356.65	0.785
356.86	0.785
357.07	0.779
357.27	0.782
357.48	0.785
357.69	0.781
357.90	0.765
358.11	0.763
358.32	0.767
358.52	0.770
358.73	0.759
358.94	0.762
359.15	0.767
359.36	0.768
359.56	0.763
359.77	0.759
359.98	0.767
360.19	0.767
360.40	0.764
360.61	0.765
360.81	0.764
361.02	0.765
361.23	0.756
361.44	0.755
361.65	0.755
361.85	0.754
362.06	0.753
362.27	0.754
362.48	0.754
362.69	0.756
362.89	0.749
363.10	0.751
363.31	0.755
363.52	0.758
363.73	0.753
363.93	0.754
364.14	0.756
364.35	0.758
364.56	0.747
364.77	0.750
364.97	0.752
365.18	0.752
365.39	0.747
365.60	0.743
365.81	0.745
366.01	0.745
366.22	0.742
366.43	0.742
366.64	0.743
366.84	0.749
367.05	0.745
367.26	0.744
367.47	0.746
367.68	0.746
367.88	0.743
368.09	0.741
368.30	0.743
368.51	0.742
368.71	0.740
368.92	0.745
369.13	0.743
369.34	0.742
369.55	0.741
369.75	0.741
369.96	0.749
370.17	0.749
370.38	0.745
370.58	0.744
370.79	0.751
371.00	0.749
371.21	0.741
371.41	0.746
371.62	0.750
371.83	0.746
372.04	0.743
372.24	0.735
372.45	0.735
372.66	0.736
372.87	0.733
373.07	0.729
373.28	0.730
373.49	0.734
373.70	0.725
373.90	0.723
374.11	0.733
374.32	0.733
374.53	0.732
374.73	0.734
374.94	0.736
375.15	0.736
375.36	0.733
375.56	0.741
375.77	0.741
375.98	0.741
376.19	0.738
376.39	0.732
376.60	0.736
376.81	0.736
377.02	0.734
377.22	0.733
377.43	0.733
377.64	0.733
377.84	0.724
378.05	0.728
378.26	0.735
378.47	0.734
378.67	0.730
378.88	0.727
379.09	0.728
379.30	0.728
379.50	0.725
379.71	0.728
379.92	0.731
380.12	0.731
380.33	0.722
380.54	0.718
380.75	0.725
380.95	0.725
381.16	0.723
381.37	0.722
381.57	0.724
381.78	0.725
381.99	0.724
382.20	0.724
382.40	0.726
382.61	0.726
382.82	0.722
383.02	0.716
383.23	0.719
383.44	0.719
383.64	0.718
383.85	0.720
384.06	0.723
384.27	0.720
384.47	0.718
384.68	0.719
384.89	0.725
385.09	0.725
385.30	0.724
385.51	0.724
385.71	0.728
385.92	0.728
386.13	0.726
386.33	0.729
386.54	0.730
386.75	0.729
386.95	0.726
387.16	0.721
387.37	0.723
387.58	0.724
387.78	0.721
387.99	0.719
388.20	0.721
388.40	0.717
388.61	0.713
388.82	0.717
389.02	0.719
389.23	0.719
389.44	0.717
389.64	0.718
389.85	0.729
390.06	0.729
390.26	0.730
390.47	0.730
390.68	0.733
390.88	0.731
391.09	0.726
391.30	0.726
391.50	0.726
391.71	0.726
391.92	0.723
392.12	0.714
392.33	0.715
392.53	0.714
392.74	0.713
392.95	0.712
393.15	0.715
393.36	0.717
393.57	0.714
393.77	0.717
393.98	0.719
394.19	0.719
394.39	0.719
394.60	0.720
394.81	0.723
395.01	0.721
395.22	0.720
395.43	0.721
395.63	0.726
395.84	0.727
396.04	0.724
396.25	0.726
396.46	0.728
396.66	0.726
396.87	0.724
397.08	0.721
397.28	0.723
397.49	0.724
397.69	0.720
397.90	0.714
398.11	0.716
398.31	0.717
398.52	0.712
398.73	0.713
398.93	0.713
399.14	0.712
399.34	0.711
399.55	0.712
399.76	0.713
399.96	0.714
400.17	0.712
400.37	0.710
400.58	0.717
400.79	0.719
400.99	0.716
401.20	0.722
401.41	0.725
401.61	0.726
401.82	0.731
402.02	0.730
402.23	0.732
402.44	0.731
402.64	0.732
402.85	0.726
403.05	0.726
403.26	0.724
403.47	0.718
403.67	0.716
403.88	0.717
404.08	0.710
404.29	0.708
404.50	0.708
404.70	0.709
404.91	0.707
405.11	0.704
405.32	0.705
405.52	0.705
405.73	0.705
405.94	0.703
406.14	0.706
406.35	0.708
406.55	0.709
406.76	0.706
406.97	0.707
407.17	0.710
407.38	0.710
407.58	0.708
407.79	0.711
407.99	0.713
408.20	0.714
408.41	0.709
408.61	0.707
408.82	0.708
409.02	0.708
409.23	0.706
409.43	0.704
409.64	0.705
409.84	0.705
410.05	0.702
410.26	0.701
410.46	0.700
410.67	0.700
410.87	0.702
411.08	0.704
411.28	0.705
411.49	0.707
411.69	0.704
411.90	0.706
412.11	0.708
412.31	0.708
412.52	0.707
412.72	0.709
412.93	0.709
413.13	0.708
413.34	0.704
413.54	0.705
413.75	0.706
413.95	0.706
414.16	0.703
414.37	0.705
414.57	0.705
414.78	0.708
414.98	0.705
415.19	0.706
415.39	0.704
415.60	0.705
415.80	0.705
416.01	0.704
416.21	0.706
416.42	0.707
416.62	0.701
416.83	0.702
417.03	0.701
417.24	0.702
417.44	0.699
417.65	0.699
417.86	0.700
418.06	0.697
418.27	0.695
418.47	0.696
418.68	0.697
418.88	0.698
419.09	0.696
419.29	0.696
419.50	0.697
419.70	0.697
419.91	0.696
420.11	0.693
420.32	0.696
420.52	0.696
420.73	0.695
420.93	0.696
421.14	0.697
421.34	0.696
421.55	0.692
421.75	0.692
421.96	0.693
422.16	0.693
422.37	0.693
422.57	0.690
422.78	0.691
422.98	0.687
423.19	0.685
423.39	0.684
423.60	0.687
423.80	0.689
424.01	0.687
424.21	0.689
424.42	0.690
424.62	0.689
424.83	0.688
425.03	0.688
425.23	0.691
425.44	0.691
425.64	0.691
425.85	0.690
426.05	0.690
426.26	0.691
426.46	0.687
426.67	0.686
426.87	0.691
427.08	0.692
427.28	0.689
427.49	0.690
427.69	0.691
427.90	0.690
428.10	0.687
428.31	0.687
428.51	0.689
428.71	0.688
428.92	0.690
429.12	0.687
429.33	0.688
429.53	0.692
429.74	0.696
429.94	0.697
430.15	0.696
430.35	0.696
430.56	0.693
430.76	0.691
430.96	0.692
431.17	0.690
431.37	0.687
431.58	0.685
431.78	0.682
431.99	0.675
432.19	0.677
432.40	0.679
432.60	0.680
432.80	0.682
433.01	0.681
433.21	0.681
433.42	0.682
433.62	0.682
433.83	0.682
434.03	0.684
434.23	0.687
434.44	0.686
434.64	0.683
434.85	0.688
435.05	0.689
435.26	0.689
435.46	0.688
435.66	0.687
435.87	0.688
436.07	0.688
436.28	0.684
436.48	0.681
436.69	0.680
436.89	0.681
437.09	0.674
437.30	0.673
437.50	0.673
437.71	0.685
437.91	0.684
438.11	0.685
438.32	0.689
438.52	0.690
438.73	0.688
438.93	0.687
439.13	0.687
439.34	0.691
439.54	0.689
439.75	0.689
439.95	0.679
440.15	0.683
440.36	0.682
440.56	0.679
440.77	0.679
440.97	0.679
441.17	0.678
441.38	0.679
441.58	0.675
441.79	0.675
441.99	0.674
442.19	0.672
442.40	0.670
442.60	0.670
442.81	0.668
443.01	0.669
443.21	0.669
443.42	0.669
443.62	0.667
443.82	0.667
444.03	0.669
444.23	0.669
444.44	0.669
444.64	0.668
444.84	0.669
445.05	0.669
445.25	0.667
445.45	0.667
445.66	0.669
445.86	0.668
446.06	0.668
446.27	0.667
446.47	0.670
446.68	0.668
446.88	0.667
447.08	0.666
447.29	0.669
447.49	0.668
447.69	0.668
447.90	0.667
448.10	0.670
448.30	0.668
448.51	0.669
448.71	0.667
448.91	0.669
449.12	0.667
449.32	0.669
449.52	0.667
449.73	0.672
449.93	0.671
450.14	0.672
450.34	0.671
450.54	0.674
450.75	0.671
450.95	0.671
451.15	0.671
451.36	0.673
451.56	0.670
451.76	0.669
451.97	0.666
452.17	0.667
452.37	0.665
452.58	0.661
452.78	0.660
452.98	0.663
453.19	0.662
453.39	0.663
453.59	0.662
453.79	0.662
454.00	0.663
454.20	0.661
454.40	0.661
454.61	0.664
454.81	0.665
455.01	0.663
455.22	0.663
455.42	0.664
455.62	0.663
455.83	0.662
456.03	0.665
456.23	0.666
456.44	0.667
456.64	0.666
456.84	0.665
457.04	0.666
457.25	0.666
457.45	0.663
457.65	0.661
457.86	0.662
458.06	0.661
458.26	0.656
458.47	0.655
458.67	0.657
458.87	0.657
459.07	0.654
459.28	0.656
459.48	0.659
459.68	0.659
459.89	0.659
460.09	0.658
460.29	0.659
460.49	0.660
460.70	0.659
460.90	0.659
461.10	0.660
461.31	0.660
461.51	0.657
461.71	0.658
461.91	0.660
462.12	0.660
462.32	0.658
462.52	0.659
462.72	0.662
462.93	0.662
463.13	0.660
463.33	0.661
463.53	0.663
463.74	0.662
463.94	0.657
464.14	0.658
464.35	0.659
464.55	0.660
464.75	0.658
464.95	0.655
465.16	0.657
465.36	0.656
465.56	0.655
465.76	0.654
465.97	0.654
466.17	0.655
466.37	0.653
466.57	0.654
466.78	0.655
466.98	0.655
467.18	0.653
467.38	0.652
467.59	0.653
467.79	0.654
467.99	0.653
468.19	0.655
468.39	0.657
468.60	0.657
468.80	0.655
469.00	0.656
469.20	0.656
469.41	0.657
469.61	0.656
469.81	0.657
470.01	0.657
470.22	0.657
470.42	0.655
470.62	0.653
470.82	0.655
471.02	0.654
471.23	0.652
471.43	0.652
471.63	0.655
471.83	0.654
472.04	0.652
472.24	0.651
472.44	0.657
472.64	0.657
472.84	0.655
473.05	0.655
473.25	0.658
473.45	0.657
473.65	0.656
473.85	0.657
474.06	0.658
474.26	0.658
474.46	0.659
474.66	0.654
474.86	0.655
475.07	0.655
475.27	0.654
475.47	0.651
475.67	0.652
475.87	0.654
476.08	0.651
476.28	0.651
476.48	0.653
476.68	0.652
476.88	0.650
477.09	0.651
477.29	0.653
477.49	0.652
477.69	0.652
477.89	0.652
478.09	0.651
478.30	0.653
478.50	0.650
478.70	0.649
478.90	0.649
479.10	0.652
479.31	0.653
479.51	0.651
479.71	0.652
479.91	0.651
480.11	0.650
480.31	0.650
480.52	0.650
480.72	0.650
480.92	0.649
481.12	0.648
481.32	0.645
481.52	0.643
481.72	0.643
481.93	0.646
482.13	0.648
482.33	0.647
482.53	0.645
482.73	0.645
482.93	0.647
483.14	0.647
483.34	0.646
483.54	0.647
483.74	0.647
483.94	0.646
484.14	0.642
484.34	0.642
484.55	0.642
484.75	0.642
484.95	0.641
485.15	0.640
485.35	0.640
485.55	0.639
485.75	0.637
485.96	0.638
486.16	0.639
486.36	0.638
486.56	0.637
486.76	0.637
486.96	0.637
487.16	0.636
487.36	0.635
487.57	0.634
487.77	0.636
487.97	0.636
488.17	0.634
488.37	0.633
488.57	0.634
488.77	0.634
488.97	0.632
489.18	0.632
489.38	0.635
489.58	0.635
489.78	0.634
489.98	0.633
490.18	0.632
490.38	0.633
490.58	0.632
490.78	0.633
490.98	0.635
491.19	0.635
491.39	0.635
491.59	0.633
491.79	0.636
491.99	0.636
492.19	0.636
492.39	0.640
492.59	0.640
492.79	0.642
492.99	0.642
493.20	0.643
493.40	0.643
493.60	0.644
493.80	0.643
494.00	0.640
494.20	0.641
494.40	0.641
494.60	0.638
494.80	0.642
495.00	0.641
495.20	0.639
495.40	0.638
495.61	0.640
495.81	0.640
496.01	0.643
496.21	0.643
496.41	0.642
496.61	0.643
496.81	0.642
497.01	0.637
497.21	0.636
497.41	0.637
497.61	0.637
497.81	0.634
498.01	0.634
498.21	0.633
498.41	0.631
498.61	0.631
498.82	0.632
499.02	0.634
499.22	0.635
499.42	0.634
499.62	0.635
499.82	0.636
500.02	0.637
500.22	0.635
500.42	0.637
500.62	0.638
500.82	0.638
501.02	0.636
501.22	0.636
501.42	0.636
501.62	0.638
501.82	0.638
502.02	0.638
502.22	0.638
502.42	0.639
502.62	0.637
502.82	0.637
503.02	0.637
503.22	0.637
503.42	0.635
503.63	0.635
503.83	0.633
504.03	0.632
504.23	0.631
504.43	0.631
504.63	0.633
504.83	0.632
505.03	0.632
505.23	0.633
505.43	0.635
505.63	0.636
505.83	0.636
506.03	0.637
506.23	0.640
506.43	0.640
506.63	0.639
506.83	0.638
507.03	0.640
507.23	0.640
507.43	0.637
507.63	0.638
507.83	0.638
508.03	0.638
508.23	0.637
508.43	0.636
508.63	0.637
508.83	0.638
509.03	0.638
509.23	0.637
509.43	0.638
509.63	0.638
509.83	0.637
510.03	0.640
510.23	0.642
510.43	0.642
510.63	0.643
510.83	0.643
511.03	0.644
511.23	0.641
511.43	0.641
511.63	0.642
511.83	0.645
512.03	0.645
512.22	0.641
512.42	0.640
512.62	0.641
512.82	0.640
513.02	0.639
513.22	0.640
513.42	0.642
513.62	0.645
513.82	0.643
514.02	0.642
514.22	0.644
514.42	0.645
514.62	0.644
514.82	0.645
515.02	0.648
515.22	0.651
515.42	0.650
515.62	0.652
515.82	0.651
516.02	0.652
516.22	0.652
516.42	0.654
516.62	0.656
516.82	0.657
517.01	0.655
517.21	0.654
517.41	0.658
517.61	0.657
517.81	0.654
518.01	0.653
518.21	0.653
518.41	0.652
518.61	0.650
518.81	0.650
519.01	0.650
519.21	0.651
519.41	0.649
519.61	0.644
519.81	0.647
520.00	0.647
520.20	0.647
520.40	0.650
520.60	0.650
520.80	0.650
521.00	0.650
521.20	0.651
521.40	0.656
521.60	0.657
521.80	0.656
522.00	0.657
522.20	0.659
522.39	0.659
522.59	0.655
522.79	0.658
522.99	0.660
523.19	0.658
523.39	0.655
523.59	0.653
523.79	0.656
523.99	0.658
524.19	0.656
524.38	0.655
524.58	0.656
524.78	0.656
524.98	0.654
525.18	0.657
525.38	0.658
525.58	0.659
525.78	0.657
525.98	0.654
526.18	0.655
526.37	0.654
526.57	0.656
526.77	0.656
526.97	0.657
527.17	0.656
527.37	0.652
527.57	0.655
527.77	0.657
527.96	0.657
528.16	0.656
528.36	0.657
528.56	0.659
528.76	0.657
528.96	0.656
529.16	0.657
529.36	0.661
529.55	0.661
529.75	0.657
529.95	0.657
530.15	0.658
530.35	0.661
530.55	0.659
530.75	0.660
530.94	0.661
531.14	0.662
531.34	0.660
531.54	0.658
531.74	0.661
531.94	0.664
532.13	0.662
532.33	0.664
532.53	0.663
532.73	0.662
532.93	0.660
533.13	0.661
533.33	0.661
533.52	0.661
533.72	0.664
533.92	0.663
534.12	0.660
534.32	0.661
534.52	0.659
534.71	0.661
534.91	0.664
535.11	0.665
535.31	0.664
535.51	0.665
535.71	0.667
535.90	0.664
536.10	0.665
536.30	0.668
536.50	0.669
536.70	0.669
536.89	0.666
537.09	0.666
537.29	0.667
537.49	0.667
537.69	0.666
537.89	0.666
538.08	0.665
538.28	0.663
538.48	0.663
538.68	0.665
538.88	0.668
539.07	0.668
539.27	0.666
539.47	0.665
539.67	0.665
539.87	0.666
540.06	0.664
540.26	0.665
540.46	0.668
540.66	0.665
540.86	0.663
541.05	0.662
541.25	0.664
541.45	0.664
541.65	0.662
541.84	0.665
542.04	0.666
542.24	0.666
542.44	0.665
542.64	0.666
542.83	0.669
543.03	0.669
543.23	0.667
543.43	0.668
543.62	0.669
543.82	0.670
544.02	0.668
544.22	0.669
544.42	0.671
544.61	0.671
544.81	0.668
545.01	0.667
545.21	0.669
545.40	0.669
545.60	0.667
545.80	0.670
546.00	0.671
546.19	0.670
546.39	0.668
546.59	0.666
546.79	0.668
546.98	0.669
547.18	0.668
547.38	0.669
547.58	0.671
547.77	0.672
547.97	0.668
548.17	0.669
548.37	0.670
548.56	0.670
548.76	0.670
548.96	0.671
549.16	0.673
549.35	0.673
549.55	0.670
549.75	0.671
549.95	0.674
550.14	0.674
550.34	0.672
550.54	0.677
550.73	0.680
550.93	0.681
551.13	0.678
551.33	0.677
551.52	0.678
551.72	0.679
551.92	0.677
552.12	0.678
552.31	0.679
552.51	0.680
552.71	0.675
552.90	0.674
553.10	0.676
553.30	0.676
553.50	0.675
553.69	0.676
553.89	0.677
554.09	0.677
554.28	0.673
554.48	0.675
554.68	0.677
554.87	0.677
555.07	0.674
555.27	0.674
555.47	0.675
555.66	0.676
555.86	0.674
556.06	0.677
556.25	0.678
556.45	0.686
556.65	0.684
556.84	0.687
557.04	0.689
557.24	0.691
557.43	0.691
557.63	0.694
557.83	0.695
558.02	0.696
558.22	0.699
558.42	0.699
558.61	0.693
558.81	0.693
559.01	0.689
559.21	0.688
559.40	0.689
559.60	0.689
559.80	0.686
559.99	0.687
560.19	0.689
560.39	0.684
560.58	0.681
560.78	0.681
560.97	0.685
561.17	0.684
561.37	0.682
561.56	0.683
561.76	0.684
561.96	0.684
562.15	0.681
562.35	0.683
562.55	0.684
562.74	0.685
562.94	0.683
563.14	0.681
563.33	0.682
563.53	0.682
563.73	0.679
563.92	0.682
564.12	0.684
564.31	0.686
564.51	0.684
564.71	0.685
564.90	0.689
565.10	0.689
565.30	0.691
565.49	0.692
565.69	0.695
565.89	0.695
566.08	0.692
566.28	0.694
566.47	0.695
566.67	0.695
566.87	0.692
567.06	0.693
567.26	0.700
567.46	0.696
567.65	0.695
567.85	0.697
568.04	0.700
568.24	0.699
568.44	0.695
568.63	0.694
568.83	0.695
569.02	0.694
569.22	0.689
569.42	0.685
569.61	0.688
569.81	0.687
570.00	0.684
570.20	0.685
570.40	0.687
570.59	0.686
570.79	0.685
570.98	0.683
571.18	0.684
571.38	0.684
571.57	0.681
571.77	0.679
571.96	0.682
572.16	0.679
572.35	0.674
572.55	0.675
572.75	0.673
572.94	0.673
573.14	0.671
573.33	0.672
573.53	0.672
573.73	0.672
573.92	0.670
574.12	0.668
574.31	0.671
574.51	0.672
574.70	0.669
574.90	0.671
575.09	0.673
575.29	0.673
575.49	0.670
575.68	0.671
575.88	0.672
576.07	0.673
576.27	0.671
576.46	0.670
576.66	0.669
576.86	0.668
577.05	0.666
577.25	0.664
577.44	0.666
577.64	0.665
577.83	0.663
578.03	0.664
578.22	0.664
578.42	0.663
578.61	0.661
578.81	0.662
579.00	0.663
579.20	0.662
579.40	0.661
579.59	0.660
579.79	0.661
579.98	0.661
580.18	0.660
580.37	0.660
580.57	0.662
580.76	0.666
580.96	0.665
581.15	0.665
581.35	0.668
581.54	0.667
581.74	0.666
581.93	0.668
582.13	0.669
582.32	0.666
582.52	0.664
582.71	0.664
582.91	0.660
583.10	0.660
583.30	0.658
583.49	0.657
583.69	0.661
583.88	0.662
584.08	0.661
584.27	0.663
584.47	0.666
584.66	0.667
584.86	0.666
585.05	0.669
585.25	0.671
585.44	0.671
585.64	0.670
585.83	0.667
586.03	0.667
586.22	0.666
586.42	0.662
586.61	0.664
586.81	0.666
587.00	0.666
587.20	0.663
587.39	0.664
587.59	0.666
587.78	0.667
587.98	0.668
588.17	0.669
588.37	0.671
588.56	0.673
588.76	0.669
588.95	0.669
589.15	0.673
589.34	0.675
589.54	0.673
589.73	0.674
589.92	0.677
590.12	0.677
590.31	0.674
590.51	0.679
590.70	0.681
590.90	0.681
591.09	0.679
591.29	0.677
591.48	0.678
591.68	0.679
591.87	0.677
592.06	0.676
592.26	0.679
592.45	0.678
592.65	0.672
592.84	0.671
593.04	0.674
593.23	0.676
593.43	0.674
593.62	0.673
593.81	0.674
594.01	0.674
594.20	0.671
594.40	0.670
594.59	0.672
594.79	0.674
594.98	0.672
595.17	0.672
595.37	0.672
595.56	0.674
595.76	0.672
595.95	0.674
596.14	0.677
596.34	0.678
596.53	0.677
596.73	0.678
596.92	0.679
597.12	0.682
597.31	0.681
597.50	0.681
597.70	0.683
597.89	0.682
598.09	0.679
598.28	0.680
598.47	0.683
598.67	0.681
598.86	0.678
599.06	0.679
599.25	0.680
599.44	0.678
599.64	0.676
599.83	0.674
600.03	0.677
600.22	0.678
600.41	0.678
600.61	0.675
600.80	0.677
601.00	0.678
601.19	0.673
601.38	0.671
601.58	0.674
601.77	0.674
601.96	0.676
602.16	0.676
602.35	0.684
602.55	0.682
602.74	0.682
602.93	0.683
603.13	0.689
603.32	0.691
603.51	0.690
603.71	0.694
603.90	0.696
604.09	0.697
604.29	0.695
604.48	0.689
604.68	0.691
604.87	0.689
605.06	0.686
605.26	0.683
605.45	0.684
605.64	0.683
605.84	0.678
606.03	0.677
606.22	0.675
606.42	0.675
606.61	0.671
606.80	0.671
607.00	0.673
607.19	0.673
607.38	0.672
607.58	0.673
607.77	0.676
607.96	0.675
608.16	0.674
608.35	0.679
608.54	0.682
608.74	0.685
608.93	0.690
609.12	0.693
609.32	0.696
609.51	0.699
609.70	0.698
609.90	0.700
610.09	0.705
610.28	0.710
610.48	0.704
610.67	0.704
610.86	0.705
611.06	0.699
611.25	0.697
611.44	0.698
611.64	0.697
611.83	0.700
612.02	0.696
612.21	0.695
612.41	0.693
612.60	0.692
612.79	0.689
612.99	0.689
613.18	0.691
613.37	0.688
613.57	0.686
613.76	0.687
613.95	0.685
614.14	0.685
614.34	0.681
614.53	0.683
614.72	0.686
614.92	0.686
615.11	0.682
615.30	0.679
615.49	0.681
615.69	0.683
615.88	0.680
616.07	0.682
616.26	0.685
616.46	0.686
616.65	0.682
616.84	0.680
617.04	0.682
617.23	0.686
617.42	0.687
617.61	0.690
617.81	0.691
618.00	0.692
618.19	0.690
618.38	0.693
618.58	0.696
618.77	0.698
618.96	0.698
619.15	0.699
619.35	0.701
619.54	0.702
619.73	0.697
619.92	0.700
620.12	0.705
620.31	0.706
620.50	0.700
620.69	0.701
620.89	0.704
621.08	0.705
621.27	0.705
621.46	0.704
621.66	0.708
621.85	0.708
622.04	0.704
622.23	0.705
622.43	0.705
622.62	0.704
622.81	0.703
623.00	0.702
623.19	0.705
623.39	0.704
623.58	0.701
623.77	0.699
623.96	0.702
624.16	0.702
624.35	0.697
624.54	0.700
624.73	0.704
624.92	0.702
625.12	0.700
625.31	0.700
625.50	0.704
625.69	0.704
625.88	0.700
626.08	0.699
626.27	0.702
626.46	0.703
626.65	0.699
626.84	0.699
627.04	0.704
627.23	0.703
627.42	0.699
627.61	0.701
627.80	0.704
628.00	0.705
628.19	0.704
628.38	0.706
628.57	0.709
628.76	0.709
628.96	0.705
629.15	0.705
629.34	0.708
629.53	0.708
629.72	0.701
629.91	0.702
630.11	0.707
630.30	0.708
630.49	0.710
630.68	0.710
630.87	0.714
631.06	0.716
631.26	0.711
631.45	0.713
631.64	0.722
631.83	0.725
632.02	0.722
632.21	0.719
632.41	0.727
632.60	0.721
632.79	0.719
632.98	0.719
633.17	0.721
633.36	0.724
633.55	0.720
633.75	0.716
633.94	0.718
634.13	0.718
634.32	0.714
634.51	0.707
634.70	0.710
634.89	0.709
635.09	0.706
635.28	0.706
635.47	0.707
635.66	0.709
635.85	0.705
636.04	0.707
636.23	0.712
636.43	0.714
636.62	0.713
636.81	0.713
637.00	0.716
637.19	0.719
637.38	0.716
637.57	0.715
637.76	0.718
637.95	0.719
638.15	0.715
638.34	0.711
638.53	0.713
638.72	0.715
638.91	0.712
639.10	0.708
639.29	0.707
639.48	0.708
639.67	0.708
639.87	0.706
640.06	0.711
640.25	0.711
640.44	0.712
640.63	0.712
640.82	0.715
641.01	0.715
641.20	0.715
641.39	0.717
641.58	0.720
641.78	0.719
641.97	0.716
642.16	0.730
642.35	0.731
642.54	0.729
642.73	0.723
642.92	0.722
643.11	0.726
643.30	0.726
643.49	0.721
643.68	0.723
643.87	0.724
644.06	0.725
644.25	0.705
644.45	0.707
644.64	0.710
644.83	0.711
645.02	0.707
645.21	0.706
645.40	0.708
645.59	0.708
645.78	0.701
645.97	0.704
646.16	0.705
646.35	0.704
646.54	0.702
646.73	0.702
646.92	0.704
647.11	0.704
647.30	0.700
647.49	0.701
647.68	0.702
647.88	0.701
648.07	0.694
648.26	0.697
648.45	0.698
648.64	0.695
648.83	0.693
649.02	0.696
649.21	0.706
649.40	0.705
649.59	0.699
649.78	0.699
649.97	0.714
650.16	0.713
650.35	0.707
650.54	0.710
650.73	0.719
650.92	0.716
651.11	0.708
651.30	0.705
651.49	0.710
651.68	0.712
651.87	0.709
652.06	0.698
652.25	0.702
652.44	0.704
652.63	0.701
652.82	0.701
653.01	0.701
653.20	0.699
653.39	0.688
653.58	0.685
653.77	0.685
653.96	0.679
654.15	0.671
654.34	0.669
654.53	0.664
654.72	0.659
654.91	0.650
655.10	0.646
655.29	0.644
655.48	0.642
655.67	0.637
655.86	0.634
656.05	0.633
656.24	0.633
656.43	0.628
656.62	0.627
656.81	0.627
657.00	0.624
657.19	0.621
657.38	0.621
657.57	0.621
657.76	0.623
657.95	0.622
658.14	0.625
658.33	0.628
658.51	0.633
658.70	0.633
658.89	0.635
659.08	0.644
659.27	0.652
659.46	0.652
659.65	0.658
659.84	0.661
660.03	0.663
660.22	0.664
660.41	0.668
660.60	0.667
660.79	0.669
660.98	0.674
661.17	0.672
661.36	0.672
661.55	0.673
661.74	0.670
661.92	0.674
662.11	0.676
662.30	0.674
662.49	0.667
662.68	0.666
662.87	0.669
663.06	0.663
663.25	0.665
663.44	0.665
663.63	0.666
663.82	0.665
664.01	0.658
664.20	0.657
664.38	0.658
664.57	0.659
664.76	0.659
664.95	0.660
665.14	0.664
665.33	0.660
665.52	0.667
665.71	0.671
665.90	0.672
666.09	0.674
666.28	0.671
666.46	0.671
666.65	0.672
666.84	0.670
667.03	0.664
667.22	0.662
667.41	0.664
667.60	0.654
667.79	0.647
667.98	0.648
668.16	0.650
668.35	0.649
668.54	0.645
668.73	0.645
668.92	0.646
669.11	0.645
669.30	0.640
669.49	0.636
669.67	0.638
669.86	0.641
670.05	0.638
670.24	0.635
670.43	0.633
670.62	0.631
670.81	0.626
671.00	0.627
671.18	0.627
671.37	0.627
671.56	0.624
671.75	0.623
671.94	0.621
672.13	0.619
672.32	0.615
672.50	0.614
672.69	0.615
672.88	0.616
673.07	0.612
673.26	0.614
673.45	0.615
673.63	0.615
673.82	0.611
674.01	0.612
674.20	0.612
674.39	0.611
674.58	0.611
674.76	0.611
674.95	0.610
675.14	0.609
675.33	0.604
675.52	0.602
675.71	0.603
675.89	0.602
676.08	0.598
676.27	0.598
676.46	0.598
676.65	0.597
676.84	0.597
677.02	0.599
677.21	0.601
677.40	0.600
677.59	0.598
677.78	0.598
677.96	0.600
678.15	0.600
678.34	0.598
678.53	0.599
678.72	0.599
678.90	0.596
679.09	0.591
679.28	0.588
679.47	0.588
679.66	0.588
679.84	0.584
680.03	0.582
680.22	0.581
680.41	0.582
680.60	0.579
680.78	0.578
680.97	0.581
681.16	0.581
681.35	0.580
681.53	0.579
681.72	0.580
681.91	0.583
682.10	0.581
682.29	0.583
682.47	0.581
682.66	0.580
682.85	0.578
683.04	0.576
683.22	0.576
683.41	0.578
683.60	0.577
683.79	0.577
683.97	0.577
684.16	0.576
684.35	0.572
684.54	0.574
684.72	0.574
684.91	0.575
685.10	0.573
685.29	0.574
685.47	0.571
685.66	0.571
685.85	0.568
686.04	0.567
686.22	0.569
686.41	0.572
686.60	0.568
686.79	0.571
686.97	0.573
687.16	0.574
687.35	0.571
687.54	0.575
687.72	0.579
687.91	0.579
688.10	0.580
688.29	0.579
688.47	0.577
688.66	0.577
688.85	0.573
689.03	0.570
689.22	0.574
689.41	0.575
689.60	0.571
689.78	0.568
689.97	0.569
690.16	0.567
690.34	0.563
690.53	0.563
690.72	0.563
690.91	0.561
691.09	0.559
691.28	0.554
691.47	0.551
691.65	0.550
691.84	0.547
692.03	0.546
692.21	0.544
692.40	0.544
692.59	0.541
692.77	0.541
692.96	0.542
693.15	0.542
693.34	0.541
693.52	0.540
693.71	0.541
693.90	0.542
694.08	0.542
694.27	0.543
694.46	0.552
694.64	0.553
694.83	0.551
695.02	0.551
695.20	0.550
695.39	0.549
695.58	0.550
695.76	0.551
695.95	0.551
696.14	0.550
696.32	0.548
696.51	0.539
696.70	0.539
696.88	0.540
697.07	0.539
697.26	0.540
697.44	0.541
697.63	0.541
697.81	0.538
698.00	0.537
698.19	0.537
698.37	0.537
698.56	0.536
698.75	0.536
698.93	0.536
699.12	0.535
699.31	0.535
699.49	0.534
699.68	0.534
699.87	0.537
700.05	0.537
700.24	0.536
700.42	0.537
700.61	0.536
700.80	0.535
700.98	0.535
701.17	0.537
701.36	0.535
701.54	0.534
701.73	0.536
701.91	0.533
702.10	0.532
702.29	0.530
702.47	0.529
702.66	0.531
702.84	0.532
703.03	0.530
703.22	0.531
703.40	0.531
703.59	0.533
703.77	0.532
703.96	0.532
704.15	0.533
704.33	0.533
704.52	0.532
704.70	0.531
704.89	0.532
705.08	0.530
705.26	0.526
705.45	0.526
705.63	0.526
705.82	0.523
706.00	0.521
706.19	0.521
706.38	0.521
706.56	0.520
706.75	0.518
706.93	0.517
707.12	0.518
707.30	0.519
707.49	0.516
707.68	0.514
707.86	0.514
708.05	0.514
708.23	0.511
708.42	0.512
708.60	0.515
708.79	0.515
708.98	0.514
709.16	0.513
709.35	0.515
709.53	0.519
709.72	0.517
709.90	0.519
710.09	0.521
710.27	0.523
710.46	0.526
710.64	0.525
710.83	0.527
711.02	0.528
711.20	0.527
711.39	0.525
711.57	0.524
711.76	0.525
711.94	0.524
712.13	0.524
712.31	0.524
712.50	0.519
712.68	0.516
712.87	0.516
713.05	0.517
713.24	0.517
713.42	0.517
713.61	0.516
713.79	0.517
713.98	0.516
714.16	0.517
714.35	0.517
714.54	0.518
714.72	0.519
714.91	0.516
715.09	0.522
715.28	0.526
715.46	0.525
715.65	0.524
715.83	0.523
716.02	0.525
716.20	0.521
716.39	0.520
716.57	0.521
716.76	0.524
716.94	0.524
717.12	0.517
717.31	0.518
717.49	0.521
717.68	0.523
717.86	0.523
718.05	0.526
718.23	0.528
718.42	0.531
718.60	0.532
718.79	0.539
718.97	0.541
719.16	0.542
719.34	0.539
719.53	0.539
719.71	0.539
719.90	0.540
720.08	0.537
720.27	0.537
720.45	0.536
720.63	0.535
720.82	0.529
721.00	0.533
721.19	0.536
721.37	0.536
721.56	0.535
721.74	0.538
721.93	0.546
722.11	0.554
722.30	0.554
722.48	0.558
722.66	0.560
722.85	0.560
723.03	0.560
723.22	0.559
723.40	0.562
723.59	0.561
723.77	0.565
723.95	0.558
724.14	0.559
724.32	0.561
724.51	0.560
724.69	0.561
724.88	0.560
725.06	0.559
725.24	0.559
725.43	0.560
725.61	0.562
725.80	0.556
725.98	0.554
726.16	0.550
726.35	0.556
726.53	0.555
726.72	0.554
726.90	0.563
727.09	0.564
727.27	0.569
727.45	0.566
727.64	0.575
727.82	0.585
728.01	0.588
728.19	0.587
728.37	0.591
728.56	0.595
728.74	0.602
728.92	0.590
729.11	0.592
729.29	0.591
729.48	0.593
729.66	0.583
729.84	0.583
730.03	0.587
730.21	0.588
730.40	0.579
730.58	0.581
730.76	0.580
730.95	0.583
731.13	0.583
731.31	0.596
731.50	0.606
731.68	0.609
731.86	0.605
732.05	0.618
732.23	0.622
732.42	0.625
732.60	0.628
732.78	0.634
732.97	0.651
733.15	0.657
733.33	0.645
733.52	0.651
733.70	0.660
733.88	0.668
734.07	0.654
734.25	0.678
734.43	0.687
734.62	0.692
734.80	0.686
734.98	0.677
735.17	0.684
735.35	0.690
735.53	0.678
735.72	0.684
735.90	0.706
736.08	0.725
736.27	0.701
736.45	0.710
736.63	0.720
736.82	0.732
737.00	0.731
737.18	0.743
737.37	0.771
737.55	0.793
737.73	0.787
737.92	0.788
738.10	0.786
738.28	0.807
738.46	0.793
738.65	0.808
738.83	0.825
739.01	0.881
739.20	0.867
739.38	0.852
739.56	0.844
739.75	0.846
739.93	0.812
740.11	0.835
740.29	0.832
740.48	0.838
740.66	0.814
740.84	0.809
741.03	0.777
741.21	0.788
741.39	0.769
741.57	0.782
741.76	0.800
741.94	0.806
742.12	0.771
742.31	0.778
742.49	0.796
742.67	0.818
742.85	0.830
743.04	0.832
743.22	0.840
743.40	0.890
743.58	0.870
743.77	0.887
743.95	0.918
744.13	0.968
744.31	0.949
744.50	0.944
744.68	0.945
744.86	0.920
745.04	0.932
745.23	0.996
745.41	0.982
745.59	0.990
745.77	0.954
745.96	0.946
746.14	0.955
746.32	0.955
746.50	0.943
746.69	0.927
746.87	0.944
747.05	0.925
747.23	0.852
747.42	0.839
747.60	0.863
747.78	0.867
747.96	0.891
748.14	0.846
748.33	0.872
748.51	0.870
748.69	0.859
748.87	0.884
749.06	0.885
749.24	0.885
749.42	0.871
749.60	0.855
749.78	0.863
749.97	0.821
750.15	0.814
750.33	0.815
750.51	0.836
750.69	0.846
750.88	0.847
751.06	0.858
751.24	0.885
751.42	0.878
751.60	0.867
751.79	0.935
751.97	0.982
752.15	0.986
752.33	0.955
752.51	1.022
752.69	1.032
752.88	0.996
753.06	1.035
753.24	1.013
753.42	1.043
753.60	1.203
753.78	1.063
753.97	1.079
754.15	1.097
754.33	1.127
754.51	1.004
754.69	0.990
754.87	1.024
755.06	0.959
755.24	0.955
755.42	0.966
755.60	0.872
755.78	0.881
755.96	0.829
756.15	0.830
756.33	0.833
756.51	0.849
756.69	0.836
756.87	0.802
757.05	0.818
757.23	0.804
757.42	0.770
757.60	0.771
757.78	0.761
757.96	0.759
758.14	0.741
758.32	0.730
758.50	0.745
758.69	0.745
758.87	0.738
759.05	0.741
759.23	0.753
759.41	0.753
759.59	0.745
759.77	0.770
759.95	0.797
760.13	0.845
760.32	0.841
760.50	0.832
760.68	0.856
760.86	0.858
761.04	0.833
761.22	0.835
761.40	0.882
761.58	0.883
761.76	0.853
761.95	0.834
762.13	0.793
762.31	0.792
762.49	0.763
762.67	0.778
762.85	0.789
763.03	0.782
763.21	0.764
763.39	0.747
763.57	0.750
763.75	0.745
763.94	0.733
764.12	0.733
764.30	0.758
764.48	0.763
764.66	0.727
764.84	0.726
765.02	0.763
765.20	0.773
765.38	0.755
765.56	0.761
765.74	0.802
765.92	0.801
766.10	0.812
766.28	0.804
766.46	0.829
766.65	0.834
766.83	0.820
767.01	0.804
767.19	0.808
767.37	0.806
767.55	0.789
767.73	0.766
767.91	0.769
768.09	0.753
768.27	0.743
768.45	0.734
768.63	0.737
768.81	0.740
768.99	0.719
769.17	0.741
769.35	0.756
769.53	0.757
769.71	0.740
769.89	0.746
770.07	0.753
770.25	0.738
770.43	0.719
770.61	0.742
770.79	0.747
770.97	0.754
771.15	0.725
771.33	0.726
771.51	0.728
771.69	0.738
771.87	0.748
772.05	0.756
772.24	0.766
772.42	0.772
772.60	0.749
772.78	0.808
772.96	0.837
773.14	0.830
773.32	0.811
773.49	0.819
773.67	0.818
773.85	0.797
774.03	0.782
774.21	0.809
774.39	0.823
774.57	0.848
774.75	0.776
774.93	0.772
775.11	0.796
775.29	0.801
775.47	0.801
775.65	0.810
775.83	0.829
776.01	0.851
776.19	0.807
776.37	0.807
776.55	0.807
776.73	0.804
776.91	0.796
777.09	0.778
777.27	0.775
777.45	0.763
777.63	0.741
777.81	0.735
777.99	0.724
778.17	0.722
778.35	0.701
778.53	0.691
778.71	0.695
778.89	0.683
779.07	0.672
779.24	0.679
779.42	0.683
779.60	0.699
779.78	0.696
779.96	0.700
780.14	0.709
780.32	0.725
780.50	0.708
780.68	0.706
780.86	0.701
781.04	0.720
781.22	0.722
781.40	0.731
781.58	0.725
781.75	0.715
781.93	0.700
782.11	0.699
782.29	0.688
782.47	0.688
782.65	0.677
782.83	0.703
783.01	0.698
783.19	0.694
783.37	0.681
783.55	0.682
783.72	0.702
783.90	0.713
784.08	0.704
784.26	0.714
784.44	0.732
784.62	0.734
784.80	0.703
784.98	0.707
785.16	0.711
785.33	0.723
785.51	0.712
785.69	0.701
785.87	0.699
786.05	0.711
786.23	0.707
786.41	0.706
786.59	0.713
786.77	0.712
786.94	0.701
787.12	0.703
787.30	0.705
787.48	0.701
787.66	0.689
787.84	0.690
788.02	0.681
788.19	0.678
788.37	0.665
788.55	0.666
788.73	0.668
788.91	0.661
789.09	0.646
789.27	0.635
789.44	0.646
789.62	0.651
789.80	0.659
789.98	0.682
790.16	0.671
790.34	0.668
790.51	0.658
790.69	0.676
790.87	0.683
791.05	0.680
791.23	0.674
791.41	0.673
791.58	0.681
791.76	0.662
791.94	0.633
792.12	0.641
792.30	0.643
792.48	0.639
792.65	0.632
792.83	0.639
793.01	0.647
793.19	0.646
793.37	0.633
793.54	0.629
793.72	0.639
793.90	0.638
794.08	0.628
794.26	0.629
794.43	0.638
794.61	0.622
794.79	0.611
794.97	0.610
795.15	0.616
795.32	0.620
795.50	0.608
795.68	0.603
795.86	0.607
796.04	0.608
796.21	0.602
796.39	0.601
796.57	0.615
796.75	0.624
796.92	0.625
797.10	0.629
797.28	0.631
797.46	0.637
797.64	0.639
797.81	0.647
797.99	0.652
798.17	0.657
798.35	0.650
798.52	0.651
798.70	0.645
798.88	0.654
799.06	0.653
799.23	0.655
799.41	0.663
799.59	0.656
799.77	0.644
799.94	0.651
800.12	0.659
800.30	0.677
800.48	0.677
800.65	0.678
800.83	0.666
801.01	0.659
801.19	0.659
801.36	0.655
801.54	0.658
801.72	0.667
801.90	0.654
802.07	0.648
802.25	0.634
802.43	0.617
802.60	0.613
802.78	0.620
802.96	0.623
803.14	0.617
803.31	0.616
803.49	0.617
803.67	0.613
803.84	0.617
804.02	0.609
804.20	0.612
804.38	0.619
804.55	0.619
804.73	0.606
804.91	0.607
805.08	0.619
805.26	0.614
805.44	0.676
805.61	0.680
805.79	0.680
805.97	0.681
806.15	0.673
806.32	0.668
806.50	0.675
806.68	0.675
806.85	0.667
807.03	0.657
807.21	0.675
807.38	0.609
807.56	0.599
807.74	0.608
807.91	0.613
808.09	0.614
808.27	0.632
808.44	0.657
808.62	0.666
808.80	0.665
808.97	0.662
809.15	0.655
809.33	0.671
809.50	0.677
809.68	0.664
809.86	0.671
810.03	0.705
810.21	0.684
810.39	0.666
810.56	0.672
810.74	0.697
810.91	0.765
811.09	0.753
811.27	0.774
811.44	0.780
811.62	0.781
811.80	0.765
811.97	0.733
812.15	0.734
812.33	0.731
812.50	0.715
812.68	0.702
812.85	0.651
813.03	0.653
813.21	0.622
813.38	0.615
813.56	0.619
813.74	0.629
813.91	0.636
814.09	0.665
814.26	0.658
814.44	0.662
814.62	0.654
814.79	0.657
814.97	0.661
815.14	0.667
815.32	0.670
815.50	0.684
815.67	0.685
815.85	0.676
816.02	0.665
816.20	0.672
816.38	0.686
816.55	0.689
816.73	0.688
816.90	0.700
817.08	0.727
817.26	0.735
817.43	0.717
817.61	0.742
817.78	0.759
817.96	0.739
818.13	0.728
818.31	0.727
818.49	0.740
818.66	0.733
818.84	0.718
819.01	0.698
819.19	0.703
819.36	0.704
819.54	0.674
819.71	0.716
819.89	0.731
820.07	0.741
820.24	0.737
820.42	0.739
820.59	0.756
820.77	0.779
820.94	0.772
821.12	0.790
821.29	0.805
821.47	0.807
821.64	0.745
821.82	0.756
822.00	0.754
822.17	0.749
822.35	0.741
822.52	0.742
822.70	0.731
822.87	0.739
823.05	0.718
823.22	0.729
823.40	0.755
823.57	0.774
823.75	0.756
823.92	0.780
824.10	0.798
824.27	0.832
824.45	0.821
824.62	0.878
824.80	0.894
824.97	0.906
825.15	0.896
825.32	0.912
825.50	0.912
825.67	0.924
825.85	0.901
826.02	0.918
826.20	0.937
826.37	1.051
826.55	0.980
826.72	1.144
826.90	1.210
827.07	1.257
827.25	1.192
827.42	1.352
827.60	1.481
827.77	1.665
827.95	1.654
828.12	1.784
828.30	1.437
828.47	1.567
828.65	1.228
828.82	1.295
829.00	1.381
829.17	1.504
829.34	1.507
829.52	1.592
829.69	-0.000
829.87	-0.000
830.04	-0.000
830.22	-0.000
830.39	-0.000
830.57	-0.000
830.74	-0.000
830.92	-0.000
831.09	-0.000
831.26	-0.000
831.44	-0.000
831.61	-0.000
831.79	-0.000
831.96	-0.000
832.14	-0.000
832.31	-0.000
832.49	-0.000
832.66	-0.000
832.83	-0.000
833.01	-0.000
833.18	-0.000
833.36	-0.000
833.53	-0.000
833.70	-0.000
833.88	-0.000
834.05	-0.000
834.23	-0.000
834.40	-0.000
834.58	-0.000
834.75	-0.000
834.92	-0.000
835.10	-0.000
835.27	-0.000
835.45	-0.000
835.62	-0.000
835.79	-0.000
835.97	-0.000
836.14	-0.000
836.32	-0.000
836.49	-0.000
836.66	-0.000
836.84	-0.000
837.01	-0.000
837.18	-0.000
837.36	-0.000
837.53	-0.000
837.71	-0.000
837.88	-0.000
838.05	-0.000
838.23	-0.000
838.40	-0.000
838.58	-0.000
838.75	-0.000
838.92	-0.000
839.10	-0.000
839.27	-0.000
839.44	-0.000
839.62	-0.000
839.79	-0.000
839.96	-0.000
840.14	-0.000
840.31	-0.000
840.48	-0.000
840.66	-0.000
840.83	-0.000
841.01	-0.000
841.18	-0.000
841.35	-0.000
841.53	-0.000
841.70	-0.000
841.87	-0.000
842.05	-0.000
842.22	-0.000
842.39	-0.000
842.57	-0.000
842.74	-0.000
842.91	-0.000
843.09	-0.000
843.26	-0.000
843.43	-0.000
843.60	-0.000
843.78	-0.000
843.95	-0.000
844.12	-0.000
844.30	-0.000
844.47	-0.000
844.64	-0.000
844.82	-0.000
844.99	-0.000
845.16	-0.000
845.34	-0.000
845.51	-0.000
845.68	-0.000
845.85	-0.000
846.03	-0.000
846.20	-0.000
846.37	-0.000
846.55	-0.000
846.72	-0.000
846.89	-0.000
847.06	-0.000
847.24	-0.000
847.41	-0.000
847.58	-0.000
847.76	-0.000
847.93	-0.000
848.10	-0.000
848.27	-0.000
848.45	-0.000
848.62	-0.000
848.79	-0.000
848.97	-0.000
849.14	-0.000
849.31	-0.000
849.48	-0.000
849.66	-0.000
849.83	-0.000
850.00	-0.000
850.17	-0.000
850.35	-0.000
850.52	-0.000
850.69	-0.000
850.86	-0.000
851.04	-0.000
851.21	-0.000
851.38	-0.000
851.55	-0.000
851.72	-0.000
851.90	-0.000
852.07	-0.000
852.24	-0.000
852.41	-0.000
852.59	-0.000
852.76	-0.000
852.93	-0.000
853.10	-0.000
853.28	-0.000
853.45	-0.000
853.62	-0.000
853.79	-0.000
853.96	-0.000
854.14	-0.000
854.31	-0.000
854.48	-0.000
854.65	-0.000
854.82	-0.000
855.00	-0.000
855.17	-0.000
855.34	-0.000
855.51	-0.000
855.68	-0.000
855.86	-0.000
856.03	-0.000
856.20	-0.000
856.37	-0.000
856.54	-0.000
856.72	-0.000
856.89	-0.000
857.06	-0.000
857.23	-0.000
857.40	-0.000
857.57	-0.000
857.75	-0.000
857.92	-0.000
858.09	-0.000
858.26	-0.000
858.43	-0.000
858.60	-0.000
858.78	-0.000
858.95	-0.000
859.12	-0.000
859.29	-0.000
859.46	-0.000
859.63	-0.000
859.81	-0.000
859.98	-0.000
860.15	-0.000
860.32	-0.000
860.49	-0.000
860.66	-0.000
860.83	-0.000
861.01	-0.000
861.18	-0.000
861.35	-0.000
861.52	-0.000
861.69	-0.000
861.86	-0.000
862.03	-0.000
862.21	-0.000
862.38	-0.000
862.55	-0.000
862.72	-0.000
862.89	-0.000
863.06	-0.000
863.23	-0.000
863.40	-0.000
863.58	-0.000
863.75	-0.000
863.92	-0.000
864.09	-0.000
864.26	-0.000
864.43	-0.000
864.60	-0.000
864.77	-0.000
864.94	-0.000
865.11	-0.000
865.29	-0.000
865.46	-0.000
865.63	-0.000
865.80	-0.000
865.97	-0.000
866.14	-0.000
866.31	-0.000
866.48	-0.000
866.65	-0.000
866.82	-0.000
866.99	-0.000
867.16	-0.000
867.34	-0.000
867.51	-0.000
867.68	-0.000
867.85	-0.000
868.02	-0.000
868.19	-0.000
868.36	-0.000
868.53	-0.000
868.70	-0.000
868.87	-0.000
869.04	-0.000
869.21	-0.000
869.38	-0.000
869.55	-0.000
869.72	-0.000
869.89	-0.000
870.06	-0.000
870.24	-0.000
870.41	-0.000
870.58	-0.000
870.75	-0.000
870.92	-0.000
871.09	-0.000
871.26	-0.000
871.43	-0.000
871.60	-0.000
871.77	-0.000
871.94	-0.000
872.11	-0.000
872.28	-0.000
872.45	-0.000
872.62	-0.000
872.79	-0.000
872.96	-0.000
873.13	-0.000
873.30	-0.000
873.47	-0.000
873.64	-0.000
873.81	-0.000
873.98	-0.000
874.15	-0.000
874.32	-0.000
874.49	-0.000
874.66	-0.000
874.83	-0.000
875.00	-0.000
875.17	-0.000
875.34	-0.000
875.51	-0.000
875.68	-0.000
875.85	-0.000
876.02	-0.000
876.19	-0.000
876.36	-0.000
876.53	-0.000
876.70	-0.000
876.87	-0.000
877.04	-0.000
877.21	-0.000
877.38	-0.000
877.55	-0.000
877.72	-0.000
877.89	-0.000
878.06	-0.000
878.23	-0.000
878.39	-0.000
878.56	-0.000
878.73	-0.000
878.90	-0.000
879.07	-0.000
879.24	-0.000
879.41	-0.000
879.58	-0.000
879.75	-0.000
879.92	-0.000
880.09	-0.000
880.26	-0.000
880.43	-0.000
880.60	-0.000
880.77	-0.000
880.94	-0.000
881.11	-0.000
881.27	-0.000
881.44	-0.000
881.61	-0.000
881.78	-0.000
881.95	-0.000
882.12	-0.000
882.29	-0.000
882.46	-0.000
882.63	-0.000
882.80	-0.000
882.97	-0.000
883.14	-0.000
883.30	-0.000
883.47	-0.000
883.64	-0.000
883.81	-0.000
883.98	-0.000
884.15	-0.000
884.32	-0.000
884.49	-0.000
884.66	-0.000
884.82	-0.000
884.99	-0.000
885.16	-0.000
885.33	-0.000
885.50	-0.000
885.67	-0.000
885.84	-0.000
886.01	-0.000
886.17	-0.000
886.34	-0.000
886.51	-0.000
886.68	-0.000
886.85	-0.000
887.02	-0.000
887.19	-0.000
887.36	-0.000
887.52	-0.000
887.69	-0.000
887.86	-0.000
888.03	-0.000
888.20	-0.000
888.37	-0.000
888.54	-0.000
888.70	-0.000
888.87	-0.000
889.04	-0.000
889.21	-0.000
889.38	-0.000
889.55	-0.000
889.71	-0.000
889.88	-0.000
890.05	-0.000
890.22	-0.000
890.39	-0.000
>>>>>End Processed Spectral Data<<<<<
