SpectraSuite Data File
++++++++++++++++++++++++++++++++++++
Date: Fri Jun 19 15:31:13 CEST 2015
User: introlabs
Dark Spectrum Present: Yes
Reference Spectrum Present: Yes
Number of Sampled Component Spectra: 1
Spectrometers: USB4H08886
Integration Time (usec): 745692 (USB4H08886)
Spectra Averaged: 5 (USB4H08886)
Boxcar Smoothing: 5 (USB4H08886)
Correct for Electrical Dark: Yes (USB4H08886)
Strobe/Lamp Enabled: No (USB4H08886)
Correct for Detector Non-linearity: Yes (USB4H08886)
Correct for Stray Light: Yes (USB4H08886)
Number of Pixels in Processed Spectrum: 3648
>>>>>Begin Processed Spectral Data<<<<<
178.14	-0.000
178.36	-0.000
178.57	-0.000
178.79	-0.000
179.01	-0.000
179.22	-0.000
179.44	-0.000
179.65	-0.000
179.87	-0.000
180.08	-0.000
180.30	-0.000
180.52	-0.000
180.73	-0.000
180.95	-0.000
181.16	-0.000
181.38	-0.000
181.59	-0.000
181.81	-0.000
182.03	-0.000
182.24	-0.000
182.46	-0.000
182.67	-0.000
182.89	-0.000
183.10	-0.000
183.32	-0.000
183.54	-0.000
183.75	-0.000
183.97	-0.000
184.18	-0.000
184.40	-0.000
184.61	-0.000
184.83	-0.000
185.04	-0.000
185.26	-0.000
185.48	-0.000
185.69	-0.000
185.91	-0.000
186.12	-0.000
186.34	-0.000
186.55	-0.000
186.77	-0.000
186.98	-0.000
187.20	-0.000
187.42	-0.000
187.63	-0.000
187.85	-0.000
188.06	-0.000
188.28	-0.000
188.49	-0.000
188.71	-0.000
188.92	-0.000
189.14	-0.000
189.36	-0.000
189.57	-0.000
189.79	-0.000
190.00	-0.000
190.22	-0.000
190.43	-0.000
190.65	-0.000
190.86	-0.000
191.08	-0.000
191.29	-0.000
191.51	-0.000
191.72	-0.000
191.94	-0.000
192.16	-0.000
192.37	-0.000
192.59	-0.000
192.80	-0.000
193.02	-0.000
193.23	-0.000
193.45	-0.000
193.66	-0.000
193.88	-0.000
194.09	-0.000
194.31	-0.000
194.52	-0.000
194.74	-0.000
194.95	-0.000
195.17	-0.000
195.38	-0.000
195.60	-0.000
195.81	-0.000
196.03	-0.000
196.25	-0.000
196.46	-0.000
196.68	-0.000
196.89	-0.000
197.11	-0.000
197.32	-0.000
197.54	-0.000
197.75	-0.000
197.97	-0.000
198.18	-0.000
198.40	-0.000
198.61	-0.000
198.83	-0.000
199.04	-0.000
199.26	-0.000
199.47	-0.000
199.69	-0.000
199.90	-0.000
200.12	-0.000
200.33	-0.000
200.55	-0.000
200.76	-0.000
200.98	-0.000
201.19	-0.000
201.41	-0.000
201.62	-0.000
201.84	-0.000
202.05	-0.000
202.27	-0.000
202.48	-0.000
202.70	-0.000
202.91	-0.000
203.13	-0.000
203.34	-0.000
203.56	-0.000
203.77	-0.000
203.99	-0.000
204.20	-0.000
204.42	-0.000
204.63	-0.000
204.85	-0.000
205.06	-0.000
205.28	-0.000
205.49	-0.000
205.71	-0.000
205.92	-0.000
206.14	-0.000
206.35	-0.000
206.56	-0.000
206.78	-0.000
206.99	-0.000
207.21	-0.000
207.42	-0.000
207.64	-0.000
207.85	-0.000
208.07	-0.000
208.28	-0.000
208.50	-0.000
208.71	-0.000
208.93	-0.000
209.14	-0.000
209.36	-0.000
209.57	-0.000
209.79	-0.000
210.00	-0.000
210.22	-0.000
210.43	-0.000
210.64	-0.000
210.86	-0.000
211.07	-0.000
211.29	-0.000
211.50	-0.000
211.72	-0.000
211.93	-0.000
212.15	-0.000
212.36	-0.000
212.58	-0.000
212.79	-0.000
213.01	-0.000
213.22	-0.000
213.43	-0.000
213.65	-0.000
213.86	-0.000
214.08	-0.000
214.29	-0.000
214.51	-0.000
214.72	-0.000
214.94	-0.000
215.15	-0.000
215.36	-0.000
215.58	-0.000
215.79	-0.000
216.01	-0.000
216.22	-0.000
216.44	-0.000
216.65	-0.000
216.87	-0.000
217.08	-0.000
217.29	-0.000
217.51	-0.000
217.72	-0.000
217.94	-0.000
218.15	-0.000
218.37	-0.000
218.58	-0.000
218.80	-0.000
219.01	-0.000
219.22	-0.000
219.44	-0.000
219.65	-0.000
219.87	-0.000
220.08	-0.000
220.30	-0.000
220.51	-0.000
220.72	-0.000
220.94	-0.000
221.15	-0.000
221.37	-0.000
221.58	-0.000
221.79	-0.000
222.01	-0.000
222.22	-0.000
222.44	-0.000
222.65	-0.000
222.87	-0.000
223.08	-0.000
223.29	-0.000
223.51	-0.000
223.72	-0.000
223.94	-0.000
224.15	-0.000
224.36	-0.000
224.58	-0.000
224.79	-0.000
225.01	-0.000
225.22	-0.000
225.44	-0.000
225.65	-0.000
225.86	-0.000
226.08	-0.000
226.29	-0.000
226.51	-0.000
226.72	-0.000
226.93	-0.000
227.15	-0.000
227.36	-0.000
227.58	-0.000
227.79	-0.000
228.00	-0.000
228.22	-0.000
228.43	-0.000
228.65	-0.000
228.86	-0.000
229.07	-0.000
229.29	-0.000
229.50	-0.000
229.72	-0.000
229.93	-0.000
230.14	-0.000
230.36	-0.000
230.57	-0.000
230.78	-0.000
231.00	-0.000
231.21	-0.000
231.43	-0.000
231.64	-0.000
231.85	-0.000
232.07	-0.000
232.28	-0.000
232.50	-0.000
232.71	-0.000
232.92	-0.000
233.14	-0.000
233.35	-0.000
233.56	-0.000
233.78	-0.000
233.99	-0.000
234.21	-0.000
234.42	-0.000
234.63	-0.000
234.85	-0.000
235.06	-0.000
235.27	-0.000
235.49	-0.000
235.70	-0.000
235.91	-0.000
236.13	-0.000
236.34	-0.000
236.56	-0.000
236.77	-0.000
236.98	-0.000
237.20	-0.000
237.41	-0.000
237.62	-0.000
237.84	-0.000
238.05	-0.000
238.26	-0.000
238.48	-0.000
238.69	-0.000
238.91	-0.000
239.12	-0.000
239.33	-0.000
239.55	-0.000
239.76	-0.000
239.97	-0.000
240.19	-0.000
240.40	-0.000
240.61	-0.000
240.83	-0.000
241.04	-0.000
241.25	-0.000
241.47	-0.000
241.68	-0.000
241.89	-0.000
242.11	-0.000
242.32	-0.000
242.53	-0.000
242.75	-0.000
242.96	-0.000
243.17	-0.000
243.39	-0.000
243.60	-0.000
243.81	-0.000
244.03	-0.000
244.24	-0.000
244.45	-0.000
244.67	-0.000
244.88	-0.000
245.09	-0.000
245.31	-0.000
245.52	-0.000
245.73	-0.000
245.95	-0.000
246.16	-0.000
246.37	-0.000
246.59	-0.000
246.80	-0.000
247.01	-0.000
247.23	-0.000
247.44	-0.000
247.65	-0.000
247.87	-0.000
248.08	-0.000
248.29	-0.000
248.51	-0.000
248.72	-0.000
248.93	-0.000
249.15	-0.000
249.36	-0.000
249.57	-0.000
249.78	-0.000
250.00	-0.000
250.21	-0.000
250.42	-0.000
250.64	-0.000
250.85	-0.000
251.06	-0.000
251.28	-0.000
251.49	-0.000
251.70	-0.000
251.92	-0.000
252.13	-0.000
252.34	-0.000
252.55	-0.000
252.77	-0.000
252.98	-0.000
253.19	-0.000
253.41	-0.000
253.62	-0.000
253.83	-0.000
254.05	-0.000
254.26	-0.000
254.47	-0.000
254.68	-0.000
254.90	-0.000
255.11	-0.000
255.32	-0.000
255.54	-0.000
255.75	-0.000
255.96	-0.000
256.17	-0.000
256.39	-0.000
256.60	-0.000
256.81	-0.000
257.03	-0.000
257.24	-0.000
257.45	-0.000
257.66	-0.000
257.88	-0.000
258.09	-0.000
258.30	-0.000
258.51	-0.000
258.73	-0.000
258.94	-0.000
259.15	-0.000
259.37	-0.000
259.58	-0.000
259.79	-0.000
260.00	-0.000
260.22	-0.000
260.43	-0.000
260.64	-0.000
260.85	-0.000
261.07	-0.000
261.28	-0.000
261.49	-0.000
261.71	-0.000
261.92	-0.000
262.13	-0.000
262.34	-0.000
262.56	-0.000
262.77	-0.000
262.98	-0.000
263.19	-0.000
263.41	-0.000
263.62	-0.000
263.83	-0.000
264.04	-0.000
264.26	-0.000
264.47	-0.000
264.68	-0.000
264.89	-0.000
265.11	-0.000
265.32	-0.000
265.53	-0.000
265.74	-0.000
265.96	-0.000
266.17	-0.000
266.38	-0.000
266.59	-0.000
266.81	-0.000
267.02	-0.000
267.23	-0.000
267.44	-0.000
267.65	-0.000
267.87	-0.000
268.08	-0.000
268.29	-0.000
268.50	-0.000
268.72	-0.000
268.93	-0.000
269.14	-0.000
269.35	-0.000
269.57	-0.000
269.78	-0.000
269.99	-0.000
270.20	-0.000
270.41	-0.000
270.63	-0.000
270.84	-0.000
271.05	-0.000
271.26	-0.000
271.48	-0.000
271.69	-0.000
271.90	-0.000
272.11	-0.000
272.32	-0.000
272.54	-0.000
272.75	-0.000
272.96	-0.000
273.17	-0.000
273.39	-0.000
273.60	-0.000
273.81	-0.000
274.02	-0.000
274.23	-0.000
274.45	-0.000
274.66	-0.000
274.87	-0.000
275.08	-0.000
275.29	-0.000
275.51	-0.000
275.72	-0.000
275.93	-0.000
276.14	-0.000
276.35	-0.000
276.57	-0.000
276.78	-0.000
276.99	-0.000
277.20	-0.000
277.41	-0.000
277.63	-0.000
277.84	-0.000
278.05	-0.000
278.26	-0.000
278.47	-0.000
278.69	-0.000
278.90	-0.000
279.11	-0.000
279.32	-0.000
279.53	-0.000
279.74	-0.000
279.96	-0.000
280.17	-0.000
280.38	-0.000
280.59	-0.000
280.80	-0.000
281.02	-0.000
281.23	-0.000
281.44	-0.000
281.65	-0.000
281.86	-0.000
282.07	-0.000
282.29	-0.000
282.50	-0.000
282.71	-0.000
282.92	-0.000
283.13	-0.000
283.35	-0.000
283.56	-0.000
283.77	-0.000
283.98	-0.000
284.19	-0.000
284.40	-0.000
284.62	-0.000
284.83	-0.000
285.04	-0.000
285.25	-0.000
285.46	-0.000
285.67	-0.000
285.88	-0.000
286.10	-0.000
286.31	-0.000
286.52	-0.000
286.73	-0.000
286.94	-0.000
287.15	-0.000
287.37	-0.000
287.58	-0.000
287.79	-0.000
288.00	-0.000
288.21	-0.000
288.42	-0.000
288.63	-0.000
288.85	-0.000
289.06	-0.000
289.27	-0.000
289.48	-0.000
289.69	-0.000
289.90	-0.000
290.11	-0.000
290.33	-0.000
290.54	-0.000
290.75	-0.000
290.96	-0.000
291.17	-0.000
291.38	-0.000
291.59	-0.000
291.81	-0.000
292.02	-0.000
292.23	-0.000
292.44	-0.000
292.65	-0.000
292.86	-0.000
293.07	-0.000
293.28	-0.000
293.50	-0.000
293.71	-0.000
293.92	-0.000
294.13	-0.000
294.34	-0.000
294.55	-0.000
294.76	-0.000
294.97	-0.000
295.19	-0.000
295.40	-0.000
295.61	-0.000
295.82	-0.000
296.03	-0.000
296.24	-0.000
296.45	2.239
296.66	1.834
296.87	1.845
297.09	1.905
297.30	2.140
297.51	1.748
297.72	1.715
297.93	1.799
298.14	1.757
298.35	1.717
298.56	1.686
298.77	1.794
298.99	1.759
299.20	1.742
299.41	1.715
299.62	1.661
299.83	1.648
300.04	1.601
300.25	1.600
300.46	1.634
300.67	1.600
300.88	1.558
301.10	1.566
301.31	1.630
301.52	1.564
301.73	1.510
301.94	1.512
302.15	1.524
302.36	1.477
302.57	1.416
302.78	1.421
302.99	1.462
303.20	1.481
303.41	1.398
303.63	1.386
303.84	1.393
304.05	1.392
304.26	1.338
304.47	1.343
304.68	1.339
304.89	1.328
305.10	1.296
305.31	1.281
305.52	1.320
305.73	1.313
305.94	1.274
306.15	1.265
306.37	1.284
306.58	1.291
306.79	1.264
307.00	1.289
307.21	1.328
307.42	1.320
307.63	1.288
307.84	1.256
308.05	1.289
308.26	1.293
308.47	1.277
308.68	1.272
308.89	1.268
309.10	1.263
309.31	1.224
309.52	1.215
309.73	1.227
309.95	1.224
310.16	1.196
310.37	1.186
310.58	1.198
310.79	1.194
311.00	1.193
311.21	1.196
311.42	1.197
311.63	1.191
311.84	1.174
312.05	1.171
312.26	1.193
312.47	1.207
312.68	1.183
312.89	1.168
313.10	1.173
313.31	1.145
313.52	1.149
313.73	1.152
313.94	1.154
314.15	1.138
314.36	1.118
314.57	1.109
314.78	1.094
314.99	1.089
315.21	1.080
315.42	1.086
315.63	1.097
315.84	1.074
316.05	1.060
316.26	1.068
316.47	1.082
316.68	1.079
316.89	1.060
317.10	1.080
317.31	1.083
317.52	1.082
317.73	1.062
317.94	1.062
318.15	1.104
318.36	1.104
318.57	1.087
318.78	1.077
318.99	1.111
319.20	1.111
319.41	1.077
319.62	1.081
319.83	1.097
320.04	1.091
320.25	1.078
320.46	1.044
320.67	1.045
320.88	1.043
321.09	1.030
321.30	1.016
321.51	1.028
321.72	1.029
321.93	1.014
322.14	1.005
322.35	1.031
322.56	1.036
322.77	1.024
322.98	1.035
323.19	1.042
323.40	1.049
323.61	1.029
323.82	1.023
324.03	1.027
324.24	1.023
324.45	1.010
324.66	0.991
324.87	0.986
325.08	0.986
325.29	0.968
325.50	0.960
325.71	0.964
325.92	0.971
326.13	0.958
326.34	0.959
326.55	0.966
326.76	0.966
326.97	0.956
327.18	0.950
327.39	0.975
327.60	0.976
327.80	0.977
328.01	0.975
328.22	0.975
328.43	0.979
328.64	0.968
328.85	0.972
329.06	0.973
329.27	0.972
329.48	0.969
329.69	0.949
329.90	0.958
330.11	0.951
330.32	0.945
330.53	0.939
330.74	0.937
330.95	0.935
331.16	0.923
331.37	0.931
331.58	0.931
331.79	0.930
332.00	0.923
332.21	0.916
332.42	0.919
332.63	0.910
332.83	0.906
333.04	0.908
333.25	0.918
333.46	0.916
333.67	0.903
333.88	0.905
334.09	0.915
334.30	0.912
334.51	0.903
334.72	0.900
334.93	0.903
335.14	0.902
335.35	0.897
335.56	0.892
335.77	0.900
335.98	0.899
336.18	0.893
336.39	0.885
336.60	0.888
336.81	0.888
337.02	0.887
337.23	0.891
337.44	0.893
337.65	0.894
337.86	0.885
338.07	0.880
338.28	0.883
338.49	0.881
338.70	0.875
338.91	0.882
339.11	0.887
339.32	0.884
339.53	0.874
339.74	0.870
339.95	0.867
340.16	0.866
340.37	0.860
340.58	0.858
340.79	0.861
341.00	0.861
341.21	0.850
341.41	0.850
341.62	0.850
341.83	0.851
342.04	0.849
342.25	0.858
342.46	0.861
342.67	0.859
342.88	0.853
343.09	0.852
343.30	0.858
343.50	0.862
343.71	0.851
343.92	0.851
344.13	0.855
344.34	0.853
344.55	0.838
344.76	0.838
344.97	0.843
345.18	0.842
345.38	0.840
345.59	0.834
345.80	0.834
346.01	0.834
346.22	0.830
346.43	0.824
346.64	0.831
346.85	0.830
347.06	0.823
347.26	0.822
347.47	0.824
347.68	0.820
347.89	0.817
348.10	0.811
348.31	0.816
348.52	0.815
348.73	0.813
348.93	0.811
349.14	0.813
349.35	0.813
349.56	0.808
349.77	0.804
349.98	0.809
350.19	0.806
350.39	0.803
350.60	0.798
350.81	0.813
351.02	0.812
351.23	0.807
351.44	0.810
351.65	0.812
351.86	0.809
352.06	0.807
352.27	0.808
352.48	0.809
352.69	0.807
352.90	0.803
353.11	0.789
353.31	0.797
353.52	0.793
353.73	0.785
353.94	0.787
354.15	0.793
354.36	0.793
354.57	0.784
354.77	0.786
354.98	0.785
355.19	0.785
355.40	0.785
355.61	0.790
355.82	0.793
356.02	0.793
356.23	0.786
356.44	0.788
356.65	0.791
356.86	0.792
357.07	0.786
357.27	0.789
357.48	0.790
357.69	0.787
357.90	0.772
358.11	0.770
358.32	0.772
358.52	0.775
358.73	0.766
358.94	0.768
359.15	0.772
359.36	0.772
359.56	0.767
359.77	0.764
359.98	0.770
360.19	0.769
360.40	0.766
360.61	0.768
360.81	0.766
361.02	0.766
361.23	0.759
361.44	0.757
361.65	0.758
361.85	0.758
362.06	0.756
362.27	0.758
362.48	0.757
362.69	0.760
362.89	0.753
363.10	0.755
363.31	0.759
363.52	0.763
363.73	0.758
363.93	0.758
364.14	0.758
364.35	0.760
364.56	0.750
364.77	0.753
364.97	0.754
365.18	0.755
365.39	0.749
365.60	0.746
365.81	0.746
366.01	0.745
366.22	0.743
366.43	0.742
366.64	0.744
366.84	0.750
367.05	0.747
367.26	0.747
367.47	0.748
367.68	0.749
367.88	0.746
368.09	0.744
368.30	0.746
368.51	0.746
368.71	0.746
368.92	0.749
369.13	0.747
369.34	0.747
369.55	0.746
369.75	0.746
369.96	0.751
370.17	0.752
370.38	0.749
370.58	0.748
370.79	0.753
371.00	0.751
371.21	0.743
371.41	0.748
371.62	0.750
371.83	0.747
372.04	0.745
372.24	0.739
372.45	0.739
372.66	0.739
372.87	0.736
373.07	0.733
373.28	0.734
373.49	0.738
373.70	0.729
373.90	0.729
374.11	0.738
374.32	0.737
374.53	0.737
374.73	0.737
374.94	0.739
375.15	0.739
375.36	0.737
375.56	0.746
375.77	0.745
375.98	0.745
376.19	0.743
376.39	0.737
376.60	0.741
376.81	0.741
377.02	0.739
377.22	0.738
377.43	0.737
377.64	0.737
377.84	0.728
378.05	0.733
378.26	0.738
378.47	0.737
378.67	0.733
378.88	0.731
379.09	0.731
379.30	0.732
379.50	0.730
379.71	0.732
379.92	0.735
380.12	0.734
380.33	0.727
380.54	0.724
380.75	0.731
380.95	0.731
381.16	0.729
381.37	0.730
381.57	0.731
381.78	0.731
381.99	0.731
382.20	0.730
382.40	0.734
382.61	0.734
382.82	0.731
383.02	0.724
383.23	0.727
383.44	0.727
383.64	0.726
383.85	0.728
384.06	0.731
384.27	0.729
384.47	0.727
384.68	0.727
384.89	0.732
385.09	0.732
385.30	0.733
385.51	0.732
385.71	0.734
385.92	0.735
386.13	0.734
386.33	0.737
386.54	0.737
386.75	0.737
386.95	0.734
387.16	0.730
387.37	0.731
387.58	0.730
387.78	0.728
387.99	0.726
388.20	0.728
388.40	0.725
388.61	0.720
388.82	0.724
389.02	0.725
389.23	0.725
389.44	0.724
389.64	0.725
389.85	0.736
390.06	0.736
390.26	0.737
390.47	0.737
390.68	0.739
390.88	0.738
391.09	0.734
391.30	0.734
391.50	0.733
391.71	0.733
391.92	0.731
392.12	0.723
392.33	0.723
392.53	0.722
392.74	0.721
392.95	0.721
393.15	0.723
393.36	0.724
393.57	0.722
393.77	0.726
393.98	0.728
394.19	0.728
394.39	0.728
394.60	0.729
394.81	0.731
395.01	0.730
395.22	0.729
395.43	0.730
395.63	0.735
395.84	0.737
396.04	0.733
396.25	0.735
396.46	0.736
396.66	0.734
396.87	0.732
397.08	0.729
397.28	0.731
397.49	0.733
397.69	0.729
397.90	0.724
398.11	0.725
398.31	0.725
398.52	0.721
398.73	0.723
398.93	0.722
399.14	0.721
399.34	0.720
399.55	0.721
399.76	0.722
399.96	0.723
400.17	0.722
400.37	0.720
400.58	0.727
400.79	0.729
400.99	0.726
401.20	0.732
401.41	0.735
401.61	0.736
401.82	0.741
402.02	0.740
402.23	0.741
402.44	0.741
402.64	0.741
402.85	0.735
403.05	0.734
403.26	0.732
403.47	0.727
403.67	0.726
403.88	0.726
404.08	0.720
404.29	0.719
404.50	0.719
404.70	0.719
404.91	0.717
405.11	0.715
405.32	0.716
405.52	0.716
405.73	0.715
405.94	0.714
406.14	0.716
406.35	0.719
406.55	0.718
406.76	0.716
406.97	0.718
407.17	0.721
407.38	0.721
407.58	0.719
407.79	0.722
407.99	0.725
408.20	0.725
408.41	0.721
408.61	0.718
408.82	0.719
409.02	0.719
409.23	0.717
409.43	0.716
409.64	0.717
409.84	0.717
410.05	0.713
410.26	0.711
410.46	0.711
410.67	0.710
410.87	0.712
411.08	0.715
411.28	0.715
411.49	0.716
411.69	0.714
411.90	0.716
412.11	0.716
412.31	0.717
412.52	0.716
412.72	0.717
412.93	0.717
413.13	0.716
413.34	0.712
413.54	0.714
413.75	0.716
413.95	0.716
414.16	0.713
414.37	0.715
414.57	0.716
414.78	0.718
414.98	0.717
415.19	0.718
415.39	0.715
415.60	0.717
415.80	0.716
416.01	0.715
416.21	0.716
416.42	0.717
416.62	0.712
416.83	0.712
417.03	0.711
417.24	0.712
417.44	0.710
417.65	0.709
417.86	0.709
418.06	0.707
418.27	0.705
418.47	0.707
418.68	0.708
418.88	0.708
419.09	0.707
419.29	0.707
419.50	0.707
419.70	0.707
419.91	0.706
420.11	0.704
420.32	0.706
420.52	0.706
420.73	0.704
420.93	0.705
421.14	0.706
421.34	0.705
421.55	0.702
421.75	0.702
421.96	0.703
422.16	0.703
422.37	0.702
422.57	0.700
422.78	0.701
422.98	0.698
423.19	0.696
423.39	0.695
423.60	0.698
423.80	0.699
424.01	0.698
424.21	0.701
424.42	0.701
424.62	0.701
424.83	0.700
425.03	0.700
425.23	0.701
425.44	0.701
425.64	0.701
425.85	0.699
426.05	0.699
426.26	0.700
426.46	0.696
426.67	0.696
426.87	0.701
427.08	0.701
427.28	0.700
427.49	0.701
427.69	0.702
427.90	0.701
428.10	0.698
428.31	0.699
428.51	0.700
428.71	0.699
428.92	0.700
429.12	0.697
429.33	0.697
429.53	0.701
429.74	0.705
429.94	0.705
430.15	0.705
430.35	0.704
430.56	0.701
430.76	0.700
430.96	0.701
431.17	0.697
431.37	0.694
431.58	0.693
431.78	0.689
431.99	0.682
432.19	0.684
432.40	0.686
432.60	0.686
432.80	0.688
433.01	0.687
433.21	0.687
433.42	0.689
433.62	0.690
433.83	0.690
434.03	0.692
434.23	0.695
434.44	0.694
434.64	0.692
434.85	0.696
435.05	0.698
435.26	0.697
435.46	0.696
435.66	0.696
435.87	0.696
436.07	0.696
436.28	0.692
436.48	0.689
436.69	0.688
436.89	0.688
437.09	0.683
437.30	0.681
437.50	0.681
437.71	0.693
437.91	0.692
438.11	0.693
438.32	0.697
438.52	0.697
438.73	0.697
438.93	0.695
439.13	0.695
439.34	0.698
439.54	0.697
439.75	0.697
439.95	0.686
440.15	0.691
440.36	0.690
440.56	0.687
440.77	0.688
440.97	0.688
441.17	0.687
441.38	0.688
441.58	0.685
441.79	0.684
441.99	0.683
442.19	0.682
442.40	0.679
442.60	0.679
442.81	0.677
443.01	0.677
443.21	0.677
443.42	0.676
443.62	0.674
443.82	0.674
444.03	0.675
444.23	0.675
444.44	0.675
444.64	0.673
444.84	0.674
445.05	0.674
445.25	0.672
445.45	0.673
445.66	0.676
445.86	0.675
446.06	0.676
446.27	0.675
446.47	0.678
446.68	0.676
446.88	0.675
447.08	0.674
447.29	0.675
447.49	0.675
447.69	0.675
447.90	0.673
448.10	0.677
448.30	0.675
448.51	0.676
448.71	0.674
448.91	0.676
449.12	0.675
449.32	0.677
449.52	0.676
449.73	0.679
449.93	0.679
450.14	0.680
450.34	0.679
450.54	0.681
450.75	0.678
450.95	0.678
451.15	0.677
451.36	0.679
451.56	0.676
451.76	0.675
451.97	0.672
452.17	0.672
452.37	0.670
452.58	0.667
452.78	0.666
452.98	0.668
453.19	0.668
453.39	0.668
453.59	0.667
453.79	0.668
454.00	0.668
454.20	0.667
454.40	0.667
454.61	0.669
454.81	0.669
455.01	0.668
455.22	0.669
455.42	0.670
455.62	0.668
455.83	0.668
456.03	0.671
456.23	0.672
456.44	0.673
456.64	0.672
456.84	0.672
457.04	0.672
457.25	0.672
457.45	0.668
457.65	0.668
457.86	0.668
458.06	0.667
458.26	0.663
458.47	0.662
458.67	0.663
458.87	0.663
459.07	0.661
459.28	0.663
459.48	0.665
459.68	0.664
459.89	0.663
460.09	0.662
460.29	0.662
460.49	0.663
460.70	0.662
460.90	0.662
461.10	0.663
461.31	0.662
461.51	0.660
461.71	0.661
461.91	0.662
462.12	0.662
462.32	0.661
462.52	0.663
462.72	0.665
462.93	0.665
463.13	0.664
463.33	0.665
463.53	0.668
463.74	0.667
463.94	0.663
464.14	0.664
464.35	0.665
464.55	0.665
464.75	0.663
464.95	0.661
465.16	0.663
465.36	0.662
465.56	0.661
465.76	0.660
465.97	0.661
466.17	0.662
466.37	0.659
466.57	0.660
466.78	0.660
466.98	0.660
467.18	0.658
467.38	0.656
467.59	0.657
467.79	0.658
467.99	0.658
468.19	0.658
468.39	0.660
468.60	0.660
468.80	0.658
469.00	0.660
469.20	0.660
469.41	0.660
469.61	0.660
469.81	0.661
470.01	0.660
470.22	0.660
470.42	0.659
470.62	0.657
470.82	0.658
471.02	0.658
471.23	0.657
471.43	0.658
471.63	0.660
471.83	0.660
472.04	0.658
472.24	0.656
472.44	0.662
472.64	0.662
472.84	0.660
473.05	0.659
473.25	0.661
473.45	0.660
473.65	0.659
473.85	0.659
474.06	0.660
474.26	0.661
474.46	0.662
474.66	0.658
474.86	0.659
475.07	0.659
475.27	0.657
475.47	0.655
475.67	0.656
475.87	0.657
476.08	0.654
476.28	0.654
476.48	0.655
476.68	0.654
476.88	0.652
477.09	0.653
477.29	0.655
477.49	0.655
477.69	0.654
477.89	0.654
478.09	0.653
478.30	0.656
478.50	0.654
478.70	0.653
478.90	0.653
479.10	0.656
479.31	0.657
479.51	0.655
479.71	0.655
479.91	0.656
480.11	0.655
480.31	0.655
480.52	0.654
480.72	0.654
480.92	0.653
481.12	0.652
481.32	0.650
481.52	0.648
481.72	0.648
481.93	0.652
482.13	0.653
482.33	0.652
482.53	0.650
482.73	0.651
482.93	0.652
483.14	0.652
483.34	0.651
483.54	0.652
483.74	0.651
483.94	0.649
484.14	0.645
484.34	0.645
484.55	0.646
484.75	0.646
484.95	0.644
485.15	0.643
485.35	0.643
485.55	0.643
485.75	0.641
485.96	0.641
486.16	0.643
486.36	0.642
486.56	0.640
486.76	0.640
486.96	0.641
487.16	0.640
487.36	0.638
487.57	0.638
487.77	0.639
487.97	0.639
488.17	0.637
488.37	0.636
488.57	0.636
488.77	0.636
488.97	0.635
489.18	0.634
489.38	0.637
489.58	0.637
489.78	0.637
489.98	0.636
490.18	0.636
490.38	0.638
490.58	0.637
490.78	0.638
490.98	0.639
491.19	0.639
491.39	0.638
491.59	0.637
491.79	0.640
491.99	0.640
492.19	0.639
492.39	0.642
492.59	0.642
492.79	0.644
492.99	0.644
493.20	0.644
493.40	0.644
493.60	0.646
493.80	0.644
494.00	0.642
494.20	0.642
494.40	0.643
494.60	0.641
494.80	0.644
495.00	0.644
495.20	0.643
495.40	0.642
495.61	0.643
495.81	0.642
496.01	0.646
496.21	0.647
496.41	0.646
496.61	0.646
496.81	0.645
497.01	0.640
497.21	0.639
497.41	0.639
497.61	0.639
497.81	0.637
498.01	0.637
498.21	0.635
498.41	0.633
498.61	0.633
498.82	0.634
499.02	0.636
499.22	0.637
499.42	0.637
499.62	0.638
499.82	0.640
500.02	0.641
500.22	0.639
500.42	0.641
500.62	0.641
500.82	0.641
501.02	0.639
501.22	0.639
501.42	0.639
501.62	0.641
501.82	0.640
502.02	0.640
502.22	0.640
502.42	0.642
502.62	0.639
502.82	0.640
503.02	0.640
503.22	0.641
503.42	0.639
503.63	0.639
503.83	0.637
504.03	0.636
504.23	0.634
504.43	0.635
504.63	0.635
504.83	0.635
505.03	0.634
505.23	0.636
505.43	0.638
505.63	0.638
505.83	0.638
506.03	0.639
506.23	0.641
506.43	0.641
506.63	0.640
506.83	0.639
507.03	0.640
507.23	0.641
507.43	0.638
507.63	0.639
507.83	0.639
508.03	0.639
508.23	0.639
508.43	0.637
508.63	0.640
508.83	0.640
509.03	0.642
509.23	0.640
509.43	0.642
509.63	0.641
509.83	0.640
510.03	0.643
510.23	0.644
510.43	0.644
510.63	0.645
510.83	0.644
511.03	0.646
511.23	0.644
511.43	0.644
511.63	0.645
511.83	0.647
512.03	0.647
512.22	0.645
512.42	0.644
512.62	0.645
512.82	0.645
513.02	0.644
513.22	0.644
513.42	0.645
513.62	0.647
513.82	0.645
514.02	0.645
514.22	0.646
514.42	0.646
514.62	0.646
514.82	0.646
515.02	0.648
515.22	0.652
515.42	0.650
515.62	0.653
515.82	0.652
516.02	0.654
516.22	0.654
516.42	0.655
516.62	0.656
516.82	0.657
517.01	0.655
517.21	0.654
517.41	0.657
517.61	0.657
517.81	0.654
518.01	0.653
518.21	0.653
518.41	0.651
518.61	0.651
518.81	0.651
519.01	0.652
519.21	0.652
519.41	0.651
519.61	0.645
519.81	0.648
520.00	0.648
520.20	0.649
520.40	0.651
520.60	0.653
520.80	0.651
521.00	0.652
521.20	0.653
521.40	0.658
521.60	0.658
521.80	0.657
522.00	0.657
522.20	0.660
522.39	0.659
522.59	0.656
522.79	0.658
522.99	0.660
523.19	0.659
523.39	0.657
523.59	0.655
523.79	0.658
523.99	0.661
524.19	0.660
524.38	0.658
524.58	0.659
524.78	0.659
524.98	0.657
525.18	0.659
525.38	0.659
525.58	0.660
525.78	0.658
525.98	0.656
526.18	0.656
526.37	0.655
526.57	0.658
526.77	0.657
526.97	0.658
527.17	0.658
527.37	0.655
527.57	0.658
527.77	0.659
527.96	0.659
528.16	0.658
528.36	0.659
528.56	0.661
528.76	0.658
528.96	0.658
529.16	0.659
529.36	0.661
529.55	0.661
529.75	0.657
529.95	0.658
530.15	0.659
530.35	0.661
530.55	0.659
530.75	0.659
530.94	0.660
531.14	0.660
531.34	0.660
531.54	0.658
531.74	0.661
531.94	0.664
532.13	0.662
532.33	0.664
532.53	0.663
532.73	0.662
532.93	0.660
533.13	0.662
533.33	0.662
533.52	0.663
533.72	0.666
533.92	0.664
534.12	0.662
534.32	0.662
534.52	0.660
534.71	0.662
534.91	0.665
535.11	0.666
535.31	0.665
535.51	0.667
535.71	0.668
535.90	0.665
536.10	0.667
536.30	0.669
536.50	0.669
536.70	0.670
536.89	0.667
537.09	0.667
537.29	0.669
537.49	0.670
537.69	0.668
537.89	0.669
538.08	0.669
538.28	0.667
538.48	0.668
538.68	0.669
538.88	0.670
539.07	0.671
539.27	0.669
539.47	0.668
539.67	0.667
539.87	0.669
540.06	0.666
540.26	0.667
540.46	0.669
540.66	0.666
540.86	0.664
541.05	0.663
541.25	0.664
541.45	0.664
541.65	0.663
541.84	0.665
542.04	0.665
542.24	0.665
542.44	0.665
542.64	0.666
542.83	0.669
543.03	0.669
543.23	0.667
543.43	0.669
543.62	0.670
543.82	0.671
544.02	0.669
544.22	0.669
544.42	0.673
544.61	0.673
544.81	0.670
545.01	0.669
545.21	0.671
545.40	0.672
545.60	0.669
545.80	0.673
546.00	0.672
546.19	0.671
546.39	0.671
546.59	0.668
546.79	0.669
546.98	0.670
547.18	0.669
547.38	0.669
547.58	0.671
547.77	0.671
547.97	0.668
548.17	0.669
548.37	0.670
548.56	0.670
548.76	0.670
548.96	0.672
549.16	0.674
549.35	0.674
549.55	0.671
549.75	0.673
549.95	0.676
550.14	0.676
550.34	0.675
550.54	0.680
550.73	0.682
550.93	0.684
551.13	0.681
551.33	0.680
551.52	0.681
551.72	0.681
551.92	0.680
552.12	0.680
552.31	0.681
552.51	0.681
552.71	0.677
552.90	0.677
553.10	0.678
553.30	0.678
553.50	0.677
553.69	0.678
553.89	0.678
554.09	0.678
554.28	0.674
554.48	0.676
554.68	0.677
554.87	0.677
555.07	0.674
555.27	0.674
555.47	0.676
555.66	0.677
555.86	0.675
556.06	0.678
556.25	0.679
556.45	0.687
556.65	0.685
556.84	0.688
557.04	0.691
557.24	0.692
557.43	0.692
557.63	0.695
557.83	0.696
558.02	0.697
558.22	0.700
558.42	0.701
558.61	0.693
558.81	0.694
559.01	0.690
559.21	0.689
559.40	0.691
559.60	0.691
559.80	0.687
559.99	0.689
560.19	0.691
560.39	0.685
560.58	0.683
560.78	0.684
560.97	0.687
561.17	0.686
561.37	0.684
561.56	0.684
561.76	0.685
561.96	0.685
562.15	0.682
562.35	0.684
562.55	0.685
562.74	0.685
562.94	0.683
563.14	0.681
563.33	0.682
563.53	0.682
563.73	0.679
563.92	0.681
564.12	0.683
564.31	0.685
564.51	0.683
564.71	0.685
564.90	0.687
565.10	0.689
565.30	0.692
565.49	0.693
565.69	0.695
565.89	0.696
566.08	0.694
566.28	0.696
566.47	0.699
566.67	0.697
566.87	0.695
567.06	0.697
567.26	0.704
567.46	0.699
567.65	0.698
567.85	0.700
568.04	0.702
568.24	0.701
568.44	0.698
568.63	0.696
568.83	0.697
569.02	0.695
569.22	0.691
569.42	0.687
569.61	0.690
569.81	0.689
570.00	0.687
570.20	0.688
570.40	0.689
570.59	0.689
570.79	0.687
570.98	0.685
571.18	0.687
571.38	0.687
571.57	0.684
571.77	0.682
571.96	0.685
572.16	0.682
572.35	0.677
572.55	0.678
572.75	0.676
572.94	0.675
573.14	0.673
573.33	0.673
573.53	0.673
573.73	0.673
573.92	0.671
574.12	0.669
574.31	0.672
574.51	0.673
574.70	0.670
574.90	0.672
575.09	0.674
575.29	0.674
575.49	0.672
575.68	0.673
575.88	0.674
576.07	0.675
576.27	0.673
576.46	0.672
576.66	0.671
576.86	0.670
577.05	0.668
577.25	0.666
577.44	0.667
577.64	0.667
577.83	0.666
578.03	0.667
578.22	0.666
578.42	0.666
578.61	0.664
578.81	0.665
579.00	0.665
579.20	0.664
579.40	0.664
579.59	0.662
579.79	0.662
579.98	0.661
580.18	0.661
580.37	0.660
580.57	0.663
580.76	0.667
580.96	0.665
581.15	0.666
581.35	0.668
581.54	0.668
581.74	0.668
581.93	0.669
582.13	0.670
582.32	0.668
582.52	0.666
582.71	0.665
582.91	0.661
583.10	0.660
583.30	0.659
583.49	0.658
583.69	0.662
583.88	0.663
584.08	0.662
584.27	0.664
584.47	0.667
584.66	0.668
584.86	0.668
585.05	0.670
585.25	0.673
585.44	0.673
585.64	0.671
585.83	0.668
586.03	0.668
586.22	0.667
586.42	0.663
586.61	0.664
586.81	0.666
587.00	0.665
587.20	0.662
587.39	0.663
587.59	0.664
587.78	0.665
587.98	0.666
588.17	0.667
588.37	0.669
588.56	0.671
588.76	0.667
588.95	0.667
589.15	0.672
589.34	0.674
589.54	0.673
589.73	0.674
589.92	0.677
590.12	0.677
590.31	0.675
590.51	0.681
590.70	0.682
590.90	0.683
591.09	0.682
591.29	0.680
591.48	0.680
591.68	0.681
591.87	0.679
592.06	0.679
592.26	0.681
592.45	0.680
592.65	0.674
592.84	0.673
593.04	0.675
593.23	0.677
593.43	0.674
593.62	0.674
593.81	0.673
594.01	0.672
594.20	0.670
594.40	0.669
594.59	0.671
594.79	0.671
594.98	0.670
595.17	0.669
595.37	0.669
595.56	0.672
595.76	0.672
595.95	0.674
596.14	0.677
596.34	0.678
596.53	0.677
596.73	0.679
596.92	0.681
597.12	0.684
597.31	0.684
597.50	0.683
597.70	0.685
597.89	0.684
598.09	0.681
598.28	0.681
598.47	0.684
598.67	0.683
598.86	0.679
599.06	0.680
599.25	0.680
599.44	0.678
599.64	0.675
599.83	0.672
600.03	0.675
600.22	0.676
600.41	0.675
600.61	0.673
600.80	0.675
601.00	0.676
601.19	0.671
601.38	0.670
601.58	0.672
601.77	0.673
601.96	0.676
602.16	0.676
602.35	0.685
602.55	0.683
602.74	0.684
602.93	0.686
603.13	0.691
603.32	0.693
603.51	0.693
603.71	0.697
603.90	0.699
604.09	0.699
604.29	0.697
604.48	0.692
604.68	0.693
604.87	0.691
605.06	0.687
605.26	0.684
605.45	0.684
605.64	0.683
605.84	0.679
606.03	0.678
606.22	0.676
606.42	0.675
606.61	0.672
606.80	0.671
607.00	0.672
607.19	0.673
607.38	0.671
607.58	0.673
607.77	0.675
607.96	0.675
608.16	0.673
608.35	0.677
608.54	0.680
608.74	0.683
608.93	0.688
609.12	0.691
609.32	0.693
609.51	0.696
609.70	0.696
609.90	0.698
610.09	0.702
610.28	0.708
610.48	0.702
610.67	0.703
610.86	0.703
611.06	0.698
611.25	0.696
611.44	0.697
611.64	0.696
611.83	0.699
612.02	0.696
612.21	0.694
612.41	0.692
612.60	0.691
612.79	0.688
612.99	0.688
613.18	0.691
613.37	0.688
613.57	0.685
613.76	0.687
613.95	0.684
614.14	0.684
614.34	0.682
614.53	0.682
614.72	0.685
614.92	0.685
615.11	0.682
615.30	0.679
615.49	0.679
615.69	0.682
615.88	0.678
616.07	0.679
616.26	0.681
616.46	0.682
616.65	0.679
616.84	0.678
617.04	0.679
617.23	0.682
617.42	0.683
617.61	0.687
617.81	0.687
618.00	0.689
618.19	0.688
618.38	0.693
618.58	0.695
618.77	0.697
618.96	0.696
619.15	0.698
619.35	0.700
619.54	0.701
619.73	0.697
619.92	0.699
620.12	0.703
620.31	0.704
620.50	0.699
620.69	0.700
620.89	0.702
621.08	0.703
621.27	0.703
621.46	0.702
621.66	0.706
621.85	0.706
622.04	0.702
622.23	0.703
622.43	0.702
622.62	0.701
622.81	0.701
623.00	0.700
623.19	0.704
623.39	0.702
623.58	0.699
623.77	0.698
623.96	0.701
624.16	0.700
624.35	0.696
624.54	0.700
624.73	0.703
624.92	0.700
625.12	0.698
625.31	0.698
625.50	0.701
625.69	0.701
625.88	0.697
626.08	0.697
626.27	0.698
626.46	0.698
626.65	0.695
626.84	0.695
627.04	0.700
627.23	0.700
627.42	0.697
627.61	0.699
627.80	0.701
628.00	0.701
628.19	0.700
628.38	0.703
628.57	0.705
628.76	0.705
628.96	0.702
629.15	0.702
629.34	0.705
629.53	0.705
629.72	0.700
629.91	0.701
630.11	0.704
630.30	0.705
630.49	0.708
630.68	0.709
630.87	0.711
631.06	0.714
631.26	0.710
631.45	0.710
631.64	0.718
631.83	0.720
632.02	0.719
632.21	0.718
632.41	0.724
632.60	0.718
632.79	0.717
632.98	0.719
633.17	0.720
633.36	0.721
633.55	0.719
633.75	0.715
633.94	0.716
634.13	0.716
634.32	0.715
634.51	0.709
634.70	0.710
634.89	0.710
635.09	0.706
635.28	0.706
635.47	0.706
635.66	0.708
635.85	0.704
636.04	0.706
636.23	0.711
636.43	0.711
636.62	0.710
636.81	0.709
637.00	0.711
637.19	0.714
637.38	0.711
637.57	0.710
637.76	0.712
637.95	0.713
638.15	0.710
638.34	0.706
638.53	0.709
638.72	0.710
638.91	0.708
639.10	0.707
639.29	0.708
639.48	0.708
639.67	0.708
639.87	0.707
640.06	0.712
640.25	0.711
640.44	0.712
640.63	0.714
640.82	0.716
641.01	0.716
641.20	0.715
641.39	0.716
641.58	0.718
641.78	0.718
641.97	0.715
642.16	0.728
642.35	0.728
642.54	0.727
642.73	0.721
642.92	0.718
643.11	0.722
643.30	0.722
643.49	0.718
643.68	0.721
643.87	0.722
644.06	0.722
644.25	0.703
644.45	0.706
644.64	0.705
644.83	0.706
645.02	0.704
645.21	0.702
645.40	0.704
645.59	0.703
645.78	0.698
645.97	0.700
646.16	0.702
646.35	0.702
646.54	0.701
646.73	0.702
646.92	0.704
647.11	0.703
647.30	0.700
647.49	0.701
647.68	0.700
647.88	0.699
648.07	0.692
648.26	0.694
648.45	0.696
648.64	0.692
648.83	0.690
649.02	0.692
649.21	0.702
649.40	0.701
649.59	0.696
649.78	0.697
649.97	0.711
650.16	0.711
650.35	0.705
650.54	0.707
650.73	0.715
650.92	0.712
651.11	0.706
651.30	0.703
651.49	0.707
651.68	0.708
651.87	0.705
652.06	0.694
652.25	0.698
652.44	0.701
652.63	0.702
652.82	0.703
653.01	0.705
653.20	0.703
653.39	0.692
653.58	0.690
653.77	0.689
653.96	0.685
654.15	0.677
654.34	0.675
654.53	0.670
654.72	0.663
654.91	0.653
655.10	0.649
655.29	0.647
655.48	0.644
655.67	0.638
655.86	0.635
656.05	0.634
656.24	0.633
656.43	0.628
656.62	0.627
656.81	0.626
657.00	0.623
657.19	0.619
657.38	0.618
657.57	0.616
657.76	0.619
657.95	0.617
658.14	0.619
658.33	0.621
658.51	0.625
658.70	0.625
658.89	0.627
659.08	0.637
659.27	0.645
659.46	0.647
659.65	0.653
659.84	0.657
660.03	0.661
660.22	0.662
660.41	0.667
660.60	0.666
660.79	0.667
660.98	0.673
661.17	0.672
661.36	0.672
661.55	0.672
661.74	0.671
661.92	0.672
662.11	0.674
662.30	0.673
662.49	0.666
662.68	0.666
662.87	0.669
663.06	0.663
663.25	0.665
663.44	0.665
663.63	0.666
663.82	0.665
664.01	0.660
664.20	0.659
664.38	0.660
664.57	0.662
664.76	0.660
664.95	0.661
665.14	0.665
665.33	0.660
665.52	0.666
665.71	0.670
665.90	0.669
666.09	0.671
666.28	0.669
666.46	0.667
666.65	0.668
666.84	0.666
667.03	0.661
667.22	0.659
667.41	0.662
667.60	0.652
667.79	0.646
667.98	0.647
668.16	0.649
668.35	0.648
668.54	0.645
668.73	0.646
668.92	0.646
669.11	0.645
669.30	0.640
669.49	0.636
669.67	0.637
669.86	0.640
670.05	0.638
670.24	0.635
670.43	0.633
670.62	0.632
670.81	0.627
671.00	0.628
671.18	0.628
671.37	0.627
671.56	0.626
671.75	0.625
671.94	0.621
672.13	0.619
672.32	0.615
672.50	0.614
672.69	0.614
672.88	0.614
673.07	0.609
673.26	0.611
673.45	0.612
673.63	0.611
673.82	0.608
674.01	0.609
674.20	0.608
674.39	0.607
674.58	0.607
674.76	0.608
674.95	0.606
675.14	0.607
675.33	0.603
675.52	0.602
675.71	0.602
675.89	0.602
676.08	0.598
676.27	0.599
676.46	0.599
676.65	0.598
676.84	0.598
677.02	0.600
677.21	0.601
677.40	0.600
677.59	0.598
677.78	0.598
677.96	0.600
678.15	0.600
678.34	0.598
678.53	0.599
678.72	0.598
678.90	0.595
679.09	0.591
679.28	0.589
679.47	0.589
679.66	0.588
679.84	0.585
680.03	0.582
680.22	0.581
680.41	0.582
680.60	0.578
680.78	0.578
680.97	0.580
681.16	0.581
681.35	0.580
681.53	0.579
681.72	0.580
681.91	0.582
682.10	0.580
682.29	0.583
682.47	0.580
682.66	0.578
682.85	0.576
683.04	0.574
683.22	0.574
683.41	0.576
683.60	0.575
683.79	0.575
683.97	0.574
684.16	0.573
684.35	0.569
684.54	0.571
684.72	0.573
684.91	0.575
685.10	0.573
685.29	0.574
685.47	0.570
685.66	0.569
685.85	0.566
686.04	0.566
686.22	0.568
686.41	0.571
686.60	0.567
686.79	0.570
686.97	0.571
687.16	0.572
687.35	0.570
687.54	0.573
687.72	0.577
687.91	0.577
688.10	0.579
688.29	0.578
688.47	0.577
688.66	0.577
688.85	0.573
689.03	0.571
689.22	0.576
689.41	0.576
689.60	0.572
689.78	0.569
689.97	0.569
690.16	0.566
690.34	0.563
690.53	0.562
690.72	0.562
690.91	0.560
691.09	0.558
691.28	0.552
691.47	0.550
691.65	0.549
691.84	0.546
692.03	0.545
692.21	0.543
692.40	0.542
692.59	0.540
692.77	0.538
692.96	0.539
693.15	0.540
693.34	0.537
693.52	0.537
693.71	0.538
693.90	0.539
694.08	0.539
694.27	0.540
694.46	0.549
694.64	0.550
694.83	0.550
695.02	0.549
695.20	0.549
695.39	0.549
695.58	0.549
695.76	0.550
695.95	0.549
696.14	0.548
696.32	0.545
696.51	0.537
696.70	0.537
696.88	0.538
697.07	0.537
697.26	0.538
697.44	0.539
697.63	0.538
697.81	0.536
698.00	0.536
698.19	0.535
698.37	0.535
698.56	0.534
698.75	0.534
698.93	0.533
699.12	0.533
699.31	0.532
699.49	0.531
699.68	0.532
699.87	0.534
700.05	0.535
700.24	0.534
700.42	0.536
700.61	0.535
700.80	0.534
700.98	0.535
701.17	0.536
701.36	0.535
701.54	0.535
701.73	0.536
701.91	0.533
702.10	0.532
702.29	0.531
702.47	0.530
702.66	0.531
702.84	0.532
703.03	0.530
703.22	0.531
703.40	0.531
703.59	0.532
703.77	0.532
703.96	0.532
704.15	0.532
704.33	0.532
704.52	0.531
704.70	0.530
704.89	0.530
705.08	0.529
705.26	0.525
705.45	0.525
705.63	0.525
705.82	0.521
706.00	0.520
706.19	0.520
706.38	0.520
706.56	0.519
706.75	0.517
706.93	0.517
707.12	0.517
707.30	0.518
707.49	0.516
707.68	0.514
707.86	0.513
708.05	0.513
708.23	0.510
708.42	0.511
708.60	0.513
708.79	0.513
708.98	0.512
709.16	0.511
709.35	0.512
709.53	0.516
709.72	0.515
709.90	0.517
710.09	0.518
710.27	0.520
710.46	0.524
710.64	0.523
710.83	0.525
711.02	0.526
711.20	0.525
711.39	0.524
711.57	0.521
711.76	0.522
711.94	0.520
712.13	0.521
712.31	0.521
712.50	0.517
712.68	0.515
712.87	0.516
713.05	0.516
713.24	0.517
713.42	0.516
713.61	0.516
713.79	0.517
713.98	0.517
714.16	0.519
714.35	0.518
714.54	0.518
714.72	0.518
714.91	0.516
715.09	0.522
715.28	0.524
715.46	0.524
715.65	0.523
715.83	0.522
716.02	0.525
716.20	0.522
716.39	0.521
716.57	0.523
716.76	0.525
716.94	0.525
717.12	0.517
717.31	0.519
717.49	0.522
717.68	0.524
717.86	0.524
718.05	0.525
718.23	0.527
718.42	0.530
718.60	0.530
718.79	0.537
718.97	0.539
719.16	0.539
719.34	0.537
719.53	0.537
719.71	0.536
719.90	0.537
720.08	0.534
720.27	0.534
720.45	0.534
720.63	0.533
720.82	0.528
721.00	0.530
721.19	0.533
721.37	0.533
721.56	0.533
721.74	0.536
721.93	0.544
722.11	0.550
722.30	0.549
722.48	0.553
722.66	0.554
722.85	0.553
723.03	0.553
723.22	0.553
723.40	0.556
723.59	0.555
723.77	0.559
723.95	0.552
724.14	0.555
724.32	0.557
724.51	0.558
724.69	0.559
724.88	0.559
725.06	0.559
725.24	0.560
725.43	0.562
725.61	0.564
725.80	0.559
725.98	0.557
726.16	0.552
726.35	0.558
726.53	0.556
726.72	0.555
726.90	0.565
727.09	0.565
727.27	0.570
727.45	0.566
727.64	0.575
727.82	0.583
728.01	0.587
728.19	0.586
728.37	0.590
728.56	0.594
728.74	0.600
728.92	0.589
729.11	0.592
729.29	0.589
729.48	0.592
729.66	0.583
729.84	0.581
730.03	0.584
730.21	0.586
730.40	0.578
730.58	0.578
730.76	0.577
730.95	0.579
731.13	0.579
731.31	0.593
731.50	0.600
731.68	0.603
731.86	0.601
732.05	0.614
732.23	0.616
732.42	0.621
732.60	0.626
732.78	0.631
732.97	0.649
733.15	0.656
733.33	0.646
733.52	0.652
733.70	0.660
733.88	0.668
734.07	0.655
734.25	0.680
734.43	0.687
734.62	0.690
734.80	0.685
734.98	0.674
735.17	0.680
735.35	0.686
735.53	0.679
735.72	0.683
735.90	0.704
736.08	0.722
736.27	0.700
736.45	0.708
736.63	0.719
736.82	0.730
737.00	0.732
737.18	0.741
737.37	0.770
737.55	0.791
737.73	0.787
737.92	0.787
738.10	0.781
738.28	0.802
738.46	0.789
738.65	0.798
738.83	0.818
739.01	0.869
739.20	0.861
739.38	0.843
739.56	0.831
739.75	0.836
739.93	0.808
740.11	0.834
740.29	0.835
740.48	0.844
740.66	0.826
740.84	0.820
741.03	0.781
741.21	0.791
741.39	0.777
741.57	0.792
741.76	0.803
741.94	0.809
742.12	0.778
742.31	0.779
742.49	0.795
742.67	0.821
742.85	0.833
743.04	0.840
743.22	0.847
743.40	0.897
743.58	0.877
743.77	0.896
743.95	0.921
744.13	0.964
744.31	0.952
744.50	0.944
744.68	0.937
744.86	0.914
745.04	0.929
745.23	0.987
745.41	0.964
745.59	0.972
745.77	0.939
745.96	0.935
746.14	0.939
746.32	0.933
746.50	0.928
746.69	0.915
746.87	0.920
747.05	0.903
747.23	0.837
747.42	0.827
747.60	0.846
747.78	0.852
747.96	0.873
748.14	0.840
748.33	0.866
748.51	0.861
748.69	0.851
748.87	0.878
749.06	0.872
749.24	0.871
749.42	0.857
749.60	0.840
749.78	0.848
749.97	0.808
750.15	0.799
750.33	0.802
750.51	0.820
750.69	0.827
750.88	0.833
751.06	0.844
751.24	0.867
751.42	0.862
751.60	0.858
751.79	0.921
751.97	0.960
752.15	0.960
752.33	0.929
752.51	0.992
752.69	1.001
752.88	0.972
753.06	1.012
753.24	0.992
753.42	1.018
753.60	1.160
753.78	1.043
753.97	1.064
754.15	1.079
754.33	1.107
754.51	1.002
754.69	0.982
754.87	1.007
755.06	0.946
755.24	0.949
755.42	0.957
755.60	0.863
755.78	0.870
755.96	0.819
756.15	0.820
756.33	0.821
756.51	0.836
756.69	0.831
756.87	0.799
757.05	0.814
757.23	0.798
757.42	0.769
757.60	0.771
757.78	0.761
757.96	0.759
758.14	0.745
758.32	0.735
758.50	0.742
758.69	0.739
758.87	0.734
759.05	0.737
759.23	0.745
759.41	0.748
759.59	0.741
759.77	0.758
759.95	0.782
760.13	0.827
760.32	0.822
760.50	0.819
760.68	0.839
760.86	0.838
761.04	0.816
761.22	0.817
761.40	0.853
761.58	0.853
761.76	0.832
761.95	0.817
762.13	0.777
762.31	0.779
762.49	0.754
762.67	0.770
762.85	0.782
763.03	0.777
763.21	0.761
763.39	0.744
763.57	0.746
763.75	0.742
763.94	0.729
764.12	0.729
764.30	0.747
764.48	0.750
764.66	0.718
764.84	0.714
765.02	0.746
765.20	0.752
765.38	0.738
765.56	0.743
765.74	0.778
765.92	0.780
766.10	0.787
766.28	0.780
766.46	0.805
766.65	0.804
766.83	0.798
767.01	0.785
767.19	0.791
767.37	0.791
767.55	0.779
767.73	0.759
767.91	0.759
768.09	0.749
768.27	0.743
768.45	0.733
768.63	0.738
768.81	0.741
768.99	0.715
769.17	0.737
769.35	0.749
769.53	0.746
769.71	0.732
769.89	0.740
770.07	0.742
770.25	0.726
770.43	0.707
770.61	0.729
770.79	0.732
770.97	0.742
771.15	0.716
771.33	0.717
771.51	0.718
771.69	0.725
771.87	0.732
772.05	0.738
772.24	0.743
772.42	0.751
772.60	0.733
772.78	0.784
772.96	0.808
773.14	0.807
773.32	0.789
773.49	0.797
773.67	0.794
773.85	0.775
774.03	0.766
774.21	0.797
774.39	0.806
774.57	0.825
774.75	0.763
774.93	0.757
775.11	0.772
775.29	0.780
775.47	0.781
775.65	0.791
775.83	0.806
776.01	0.827
776.19	0.787
776.37	0.788
776.55	0.784
776.73	0.782
776.91	0.781
777.09	0.766
777.27	0.760
777.45	0.751
777.63	0.733
777.81	0.729
777.99	0.713
778.17	0.711
778.35	0.695
778.53	0.684
778.71	0.687
778.89	0.676
779.07	0.668
779.24	0.673
779.42	0.674
779.60	0.692
779.78	0.688
779.96	0.693
780.14	0.699
780.32	0.715
780.50	0.700
780.68	0.698
780.86	0.690
781.04	0.705
781.22	0.710
781.40	0.718
781.58	0.707
781.75	0.703
781.93	0.688
782.11	0.687
782.29	0.675
782.47	0.675
782.65	0.667
782.83	0.691
783.01	0.685
783.19	0.678
783.37	0.668
783.55	0.669
783.72	0.682
783.90	0.694
784.08	0.688
784.26	0.698
784.44	0.716
784.62	0.720
784.80	0.691
784.98	0.696
785.16	0.702
785.33	0.714
785.51	0.706
785.69	0.694
785.87	0.692
786.05	0.703
786.23	0.700
786.41	0.698
786.59	0.701
786.77	0.701
786.94	0.690
787.12	0.693
787.30	0.692
787.48	0.689
787.66	0.681
787.84	0.681
788.02	0.669
788.19	0.670
788.37	0.659
788.55	0.662
788.73	0.660
788.91	0.654
789.09	0.641
789.27	0.632
789.44	0.641
789.62	0.645
789.80	0.655
789.98	0.676
790.16	0.664
790.34	0.658
790.51	0.646
790.69	0.664
790.87	0.669
791.05	0.666
791.23	0.661
791.41	0.663
791.58	0.668
791.76	0.648
791.94	0.621
792.12	0.628
792.30	0.631
792.48	0.628
792.65	0.624
792.83	0.629
793.01	0.636
793.19	0.633
793.37	0.619
793.54	0.615
793.72	0.626
793.90	0.625
794.08	0.617
794.26	0.619
794.43	0.628
794.61	0.612
794.79	0.604
794.97	0.601
795.15	0.606
795.32	0.610
795.50	0.602
795.68	0.595
795.86	0.597
796.04	0.598
796.21	0.592
796.39	0.589
796.57	0.600
796.75	0.607
796.92	0.609
797.10	0.612
797.28	0.612
797.46	0.614
797.64	0.616
797.81	0.623
797.99	0.627
798.17	0.631
798.35	0.627
798.52	0.630
798.70	0.627
798.88	0.635
799.06	0.635
799.23	0.638
799.41	0.645
799.59	0.639
799.77	0.632
799.94	0.639
800.12	0.648
800.30	0.664
800.48	0.663
800.65	0.662
800.83	0.652
801.01	0.646
801.19	0.648
801.36	0.645
801.54	0.645
801.72	0.656
801.90	0.643
802.07	0.640
802.25	0.625
802.43	0.611
802.60	0.608
802.78	0.614
802.96	0.617
803.14	0.611
803.31	0.610
803.49	0.612
803.67	0.607
803.84	0.611
804.02	0.602
804.20	0.605
804.38	0.609
804.55	0.608
804.73	0.597
804.91	0.598
805.08	0.609
805.26	0.605
805.44	0.666
805.61	0.670
805.79	0.671
805.97	0.670
806.15	0.664
806.32	0.659
806.50	0.663
806.68	0.662
806.85	0.655
807.03	0.646
807.21	0.659
807.38	0.596
807.56	0.586
807.74	0.595
807.91	0.602
808.09	0.604
808.27	0.622
808.44	0.647
808.62	0.656
808.80	0.655
808.97	0.652
809.15	0.648
809.33	0.662
809.50	0.669
809.68	0.658
809.86	0.663
810.03	0.691
810.21	0.674
810.39	0.657
810.56	0.663
810.74	0.685
810.91	0.750
811.09	0.738
811.27	0.758
811.44	0.762
811.62	0.761
811.80	0.750
811.97	0.722
812.15	0.720
812.33	0.718
812.50	0.707
812.68	0.696
812.85	0.643
813.03	0.647
813.21	0.620
813.38	0.616
813.56	0.620
813.74	0.627
813.91	0.634
814.09	0.661
814.26	0.653
814.44	0.655
814.62	0.647
814.79	0.650
814.97	0.653
815.14	0.656
815.32	0.664
815.50	0.676
815.67	0.680
815.85	0.669
816.02	0.661
816.20	0.667
816.38	0.678
816.55	0.682
816.73	0.681
816.90	0.691
817.08	0.717
817.26	0.714
817.43	0.699
817.61	0.719
817.78	0.735
817.96	0.713
818.13	0.708
818.31	0.712
818.49	0.725
818.66	0.718
818.84	0.707
819.01	0.688
819.19	0.692
819.36	0.695
819.54	0.671
819.71	0.708
819.89	0.722
820.07	0.731
820.24	0.725
820.42	0.723
820.59	0.739
820.77	0.760
820.94	0.756
821.12	0.774
821.29	0.785
821.47	0.783
821.64	0.730
821.82	0.741
822.00	0.739
822.17	0.736
822.35	0.731
822.52	0.733
822.70	0.719
822.87	0.725
823.05	0.709
823.22	0.718
823.40	0.738
823.57	0.758
823.75	0.745
823.92	0.769
824.10	0.787
824.27	0.825
824.45	0.817
824.62	0.875
824.80	0.889
824.97	0.897
825.15	0.893
825.32	0.909
825.50	0.909
825.67	0.919
825.85	0.895
826.02	0.909
826.20	0.921
826.37	1.028
826.55	0.962
826.72	1.119
826.90	1.173
827.07	1.213
827.25	1.165
827.42	1.273
827.60	1.374
827.77	1.495
827.95	1.497
828.12	1.582
828.30	1.326
828.47	1.413
828.65	1.139
828.82	1.181
829.00	1.227
829.17	1.337
829.34	1.369
829.52	1.412
829.69	-0.000
829.87	-0.000
830.04	-0.000
830.22	-0.000
830.39	-0.000
830.57	-0.000
830.74	-0.000
830.92	-0.000
831.09	-0.000
831.26	-0.000
831.44	-0.000
831.61	-0.000
831.79	-0.000
831.96	-0.000
832.14	-0.000
832.31	-0.000
832.49	-0.000
832.66	-0.000
832.83	-0.000
833.01	-0.000
833.18	-0.000
833.36	-0.000
833.53	-0.000
833.70	-0.000
833.88	-0.000
834.05	-0.000
834.23	-0.000
834.40	-0.000
834.58	-0.000
834.75	-0.000
834.92	-0.000
835.10	-0.000
835.27	-0.000
835.45	-0.000
835.62	-0.000
835.79	-0.000
835.97	-0.000
836.14	-0.000
836.32	-0.000
836.49	-0.000
836.66	-0.000
836.84	-0.000
837.01	-0.000
837.18	-0.000
837.36	-0.000
837.53	-0.000
837.71	-0.000
837.88	-0.000
838.05	-0.000
838.23	-0.000
838.40	-0.000
838.58	-0.000
838.75	-0.000
838.92	-0.000
839.10	-0.000
839.27	-0.000
839.44	-0.000
839.62	-0.000
839.79	-0.000
839.96	-0.000
840.14	-0.000
840.31	-0.000
840.48	-0.000
840.66	-0.000
840.83	-0.000
841.01	-0.000
841.18	-0.000
841.35	-0.000
841.53	-0.000
841.70	-0.000
841.87	-0.000
842.05	-0.000
842.22	-0.000
842.39	-0.000
842.57	-0.000
842.74	-0.000
842.91	-0.000
843.09	-0.000
843.26	-0.000
843.43	-0.000
843.60	-0.000
843.78	-0.000
843.95	-0.000
844.12	-0.000
844.30	-0.000
844.47	-0.000
844.64	-0.000
844.82	-0.000
844.99	-0.000
845.16	-0.000
845.34	-0.000
845.51	-0.000
845.68	-0.000
845.85	-0.000
846.03	-0.000
846.20	-0.000
846.37	-0.000
846.55	-0.000
846.72	-0.000
846.89	-0.000
847.06	-0.000
847.24	-0.000
847.41	-0.000
847.58	-0.000
847.76	-0.000
847.93	-0.000
848.10	-0.000
848.27	-0.000
848.45	-0.000
848.62	-0.000
848.79	-0.000
848.97	-0.000
849.14	-0.000
849.31	-0.000
849.48	-0.000
849.66	-0.000
849.83	-0.000
850.00	-0.000
850.17	-0.000
850.35	-0.000
850.52	-0.000
850.69	-0.000
850.86	-0.000
851.04	-0.000
851.21	-0.000
851.38	-0.000
851.55	-0.000
851.72	-0.000
851.90	-0.000
852.07	-0.000
852.24	-0.000
852.41	-0.000
852.59	-0.000
852.76	-0.000
852.93	-0.000
853.10	-0.000
853.28	-0.000
853.45	-0.000
853.62	-0.000
853.79	-0.000
853.96	-0.000
854.14	-0.000
854.31	-0.000
854.48	-0.000
854.65	-0.000
854.82	-0.000
855.00	-0.000
855.17	-0.000
855.34	-0.000
855.51	-0.000
855.68	-0.000
855.86	-0.000
856.03	-0.000
856.20	-0.000
856.37	-0.000
856.54	-0.000
856.72	-0.000
856.89	-0.000
857.06	-0.000
857.23	-0.000
857.40	-0.000
857.57	-0.000
857.75	-0.000
857.92	-0.000
858.09	-0.000
858.26	-0.000
858.43	-0.000
858.60	-0.000
858.78	-0.000
858.95	-0.000
859.12	-0.000
859.29	-0.000
859.46	-0.000
859.63	-0.000
859.81	-0.000
859.98	-0.000
860.15	-0.000
860.32	-0.000
860.49	-0.000
860.66	-0.000
860.83	-0.000
861.01	-0.000
861.18	-0.000
861.35	-0.000
861.52	-0.000
861.69	-0.000
861.86	-0.000
862.03	-0.000
862.21	-0.000
862.38	-0.000
862.55	-0.000
862.72	-0.000
862.89	-0.000
863.06	-0.000
863.23	-0.000
863.40	-0.000
863.58	-0.000
863.75	-0.000
863.92	-0.000
864.09	-0.000
864.26	-0.000
864.43	-0.000
864.60	-0.000
864.77	-0.000
864.94	-0.000
865.11	-0.000
865.29	-0.000
865.46	-0.000
865.63	-0.000
865.80	-0.000
865.97	-0.000
866.14	-0.000
866.31	-0.000
866.48	-0.000
866.65	-0.000
866.82	-0.000
866.99	-0.000
867.16	-0.000
867.34	-0.000
867.51	-0.000
867.68	-0.000
867.85	-0.000
868.02	-0.000
868.19	-0.000
868.36	-0.000
868.53	-0.000
868.70	-0.000
868.87	-0.000
869.04	-0.000
869.21	-0.000
869.38	-0.000
869.55	-0.000
869.72	-0.000
869.89	-0.000
870.06	-0.000
870.24	-0.000
870.41	-0.000
870.58	-0.000
870.75	-0.000
870.92	-0.000
871.09	-0.000
871.26	-0.000
871.43	-0.000
871.60	-0.000
871.77	-0.000
871.94	-0.000
872.11	-0.000
872.28	-0.000
872.45	-0.000
872.62	-0.000
872.79	-0.000
872.96	-0.000
873.13	-0.000
873.30	-0.000
873.47	-0.000
873.64	-0.000
873.81	-0.000
873.98	-0.000
874.15	-0.000
874.32	-0.000
874.49	-0.000
874.66	-0.000
874.83	-0.000
875.00	-0.000
875.17	-0.000
875.34	-0.000
875.51	-0.000
875.68	-0.000
875.85	-0.000
876.02	-0.000
876.19	-0.000
876.36	-0.000
876.53	-0.000
876.70	-0.000
876.87	-0.000
877.04	-0.000
877.21	-0.000
877.38	-0.000
877.55	-0.000
877.72	-0.000
877.89	-0.000
878.06	-0.000
878.23	-0.000
878.39	-0.000
878.56	-0.000
878.73	-0.000
878.90	-0.000
879.07	-0.000
879.24	-0.000
879.41	-0.000
879.58	-0.000
879.75	-0.000
879.92	-0.000
880.09	-0.000
880.26	-0.000
880.43	-0.000
880.60	-0.000
880.77	-0.000
880.94	-0.000
881.11	-0.000
881.27	-0.000
881.44	-0.000
881.61	-0.000
881.78	-0.000
881.95	-0.000
882.12	-0.000
882.29	-0.000
882.46	-0.000
882.63	-0.000
882.80	-0.000
882.97	-0.000
883.14	-0.000
883.30	-0.000
883.47	-0.000
883.64	-0.000
883.81	-0.000
883.98	-0.000
884.15	-0.000
884.32	-0.000
884.49	-0.000
884.66	-0.000
884.82	-0.000
884.99	-0.000
885.16	-0.000
885.33	-0.000
885.50	-0.000
885.67	-0.000
885.84	-0.000
886.01	-0.000
886.17	-0.000
886.34	-0.000
886.51	-0.000
886.68	-0.000
886.85	-0.000
887.02	-0.000
887.19	-0.000
887.36	-0.000
887.52	-0.000
887.69	-0.000
887.86	-0.000
888.03	-0.000
888.20	-0.000
888.37	-0.000
888.54	-0.000
888.70	-0.000
888.87	-0.000
889.04	-0.000
889.21	-0.000
889.38	-0.000
889.55	-0.000
889.71	-0.000
889.88	-0.000
890.05	-0.000
890.22	-0.000
890.39	-0.000
>>>>>End Processed Spectral Data<<<<<
