SpectraSuite Data File
++++++++++++++++++++++++++++++++++++
Date: Fri Jun 19 11:44:20 CEST 2015
User: introlabs
Dark Spectrum Present: Yes
Reference Spectrum Present: Yes
Number of Sampled Component Spectra: 1
Spectrometers: USB4H08886
Integration Time (usec): 5245692 (USB4H08886)
Spectra Averaged: 5 (USB4H08886)
Boxcar Smoothing: 5 (USB4H08886)
Correct for Electrical Dark: Yes (USB4H08886)
Strobe/Lamp Enabled: No (USB4H08886)
Correct for Detector Non-linearity: Yes (USB4H08886)
Correct for Stray Light: Yes (USB4H08886)
Number of Pixels in Processed Spectrum: 3648
>>>>>Begin Processed Spectral Data<<<<<
178.14	-0.000
178.36	-0.000
178.57	-0.000
178.79	-0.000
179.01	-0.000
179.22	-0.000
179.44	-0.000
179.65	-0.000
179.87	-0.000
180.08	-0.000
180.30	-0.000
180.52	-0.000
180.73	-0.000
180.95	-0.000
181.16	-0.000
181.38	-0.000
181.59	-0.000
181.81	-0.000
182.03	-0.000
182.24	-0.000
182.46	-0.000
182.67	-0.000
182.89	-0.000
183.10	-0.000
183.32	-0.000
183.54	-0.000
183.75	-0.000
183.97	-0.000
184.18	-0.000
184.40	-0.000
184.61	-0.000
184.83	-0.000
185.04	-0.000
185.26	-0.000
185.48	-0.000
185.69	-0.000
185.91	-0.000
186.12	-0.000
186.34	-0.000
186.55	-0.000
186.77	-0.000
186.98	-0.000
187.20	-0.000
187.42	-0.000
187.63	-0.000
187.85	-0.000
188.06	-0.000
188.28	-0.000
188.49	-0.000
188.71	-0.000
188.92	-0.000
189.14	-0.000
189.36	-0.000
189.57	-0.000
189.79	-0.000
190.00	-0.000
190.22	-0.000
190.43	-0.000
190.65	-0.000
190.86	-0.000
191.08	-0.000
191.29	-0.000
191.51	-0.000
191.72	-0.000
191.94	-0.000
192.16	-0.000
192.37	-0.000
192.59	-0.000
192.80	-0.000
193.02	-0.000
193.23	-0.000
193.45	-0.000
193.66	-0.000
193.88	-0.000
194.09	-0.000
194.31	-0.000
194.52	-0.000
194.74	-0.000
194.95	-0.000
195.17	-0.000
195.38	-0.000
195.60	-0.000
195.81	-0.000
196.03	-0.000
196.25	-0.000
196.46	-0.000
196.68	-0.000
196.89	-0.000
197.11	-0.000
197.32	-0.000
197.54	-0.000
197.75	-0.000
197.97	-0.000
198.18	-0.000
198.40	-0.000
198.61	-0.000
198.83	-0.000
199.04	-0.000
199.26	-0.000
199.47	-0.000
199.69	-0.000
199.90	-0.000
200.12	-0.000
200.33	-0.000
200.55	-0.000
200.76	-0.000
200.98	-0.000
201.19	-0.000
201.41	-0.000
201.62	-0.000
201.84	-0.000
202.05	-0.000
202.27	-0.000
202.48	-0.000
202.70	-0.000
202.91	-0.000
203.13	-0.000
203.34	-0.000
203.56	-0.000
203.77	-0.000
203.99	-0.000
204.20	-0.000
204.42	-0.000
204.63	-0.000
204.85	-0.000
205.06	-0.000
205.28	-0.000
205.49	-0.000
205.71	-0.000
205.92	-0.000
206.14	-0.000
206.35	-0.000
206.56	-0.000
206.78	-0.000
206.99	-0.000
207.21	-0.000
207.42	-0.000
207.64	-0.000
207.85	-0.000
208.07	-0.000
208.28	-0.000
208.50	-0.000
208.71	-0.000
208.93	-0.000
209.14	-0.000
209.36	-0.000
209.57	-0.000
209.79	-0.000
210.00	-0.000
210.22	-0.000
210.43	-0.000
210.64	-0.000
210.86	-0.000
211.07	-0.000
211.29	-0.000
211.50	-0.000
211.72	-0.000
211.93	-0.000
212.15	-0.000
212.36	-0.000
212.58	-0.000
212.79	-0.000
213.01	-0.000
213.22	-0.000
213.43	-0.000
213.65	-0.000
213.86	-0.000
214.08	-0.000
214.29	-0.000
214.51	-0.000
214.72	-0.000
214.94	-0.000
215.15	-0.000
215.36	-0.000
215.58	-0.000
215.79	-0.000
216.01	-0.000
216.22	-0.000
216.44	-0.000
216.65	-0.000
216.87	-0.000
217.08	-0.000
217.29	-0.000
217.51	-0.000
217.72	-0.000
217.94	-0.000
218.15	-0.000
218.37	-0.000
218.58	-0.000
218.80	-0.000
219.01	-0.000
219.22	-0.000
219.44	-0.000
219.65	-0.000
219.87	-0.000
220.08	-0.000
220.30	-0.000
220.51	-0.000
220.72	-0.000
220.94	-0.000
221.15	-0.000
221.37	-0.000
221.58	-0.000
221.79	-0.000
222.01	-0.000
222.22	-0.000
222.44	-0.000
222.65	-0.000
222.87	-0.000
223.08	-0.000
223.29	-0.000
223.51	-0.000
223.72	-0.000
223.94	-0.000
224.15	-0.000
224.36	-0.000
224.58	-0.000
224.79	-0.000
225.01	-0.000
225.22	-0.000
225.44	-0.000
225.65	-0.000
225.86	-0.000
226.08	-0.000
226.29	-0.000
226.51	-0.000
226.72	-0.000
226.93	-0.000
227.15	-0.000
227.36	-0.000
227.58	-0.000
227.79	-0.000
228.00	-0.000
228.22	-0.000
228.43	-0.000
228.65	-0.000
228.86	-0.000
229.07	-0.000
229.29	-0.000
229.50	-0.000
229.72	-0.000
229.93	-0.000
230.14	-0.000
230.36	-0.000
230.57	-0.000
230.78	-0.000
231.00	-0.000
231.21	-0.000
231.43	-0.000
231.64	-0.000
231.85	-0.000
232.07	-0.000
232.28	-0.000
232.50	-0.000
232.71	-0.000
232.92	-0.000
233.14	-0.000
233.35	-0.000
233.56	-0.000
233.78	-0.000
233.99	-0.000
234.21	-0.000
234.42	-0.000
234.63	-0.000
234.85	-0.000
235.06	-0.000
235.27	-0.000
235.49	-0.000
235.70	-0.000
235.91	-0.000
236.13	-0.000
236.34	-0.000
236.56	-0.000
236.77	-0.000
236.98	-0.000
237.20	-0.000
237.41	-0.000
237.62	-0.000
237.84	-0.000
238.05	-0.000
238.26	-0.000
238.48	-0.000
238.69	-0.000
238.91	-0.000
239.12	-0.000
239.33	-0.000
239.55	-0.000
239.76	-0.000
239.97	-0.000
240.19	-0.000
240.40	-0.000
240.61	-0.000
240.83	-0.000
241.04	-0.000
241.25	-0.000
241.47	-0.000
241.68	-0.000
241.89	-0.000
242.11	-0.000
242.32	-0.000
242.53	-0.000
242.75	-0.000
242.96	-0.000
243.17	-0.000
243.39	-0.000
243.60	-0.000
243.81	-0.000
244.03	-0.000
244.24	-0.000
244.45	-0.000
244.67	-0.000
244.88	-0.000
245.09	-0.000
245.31	-0.000
245.52	-0.000
245.73	-0.000
245.95	-0.000
246.16	-0.000
246.37	-0.000
246.59	-0.000
246.80	-0.000
247.01	-0.000
247.23	-0.000
247.44	-0.000
247.65	-0.000
247.87	-0.000
248.08	-0.000
248.29	-0.000
248.51	-0.000
248.72	-0.000
248.93	-0.000
249.15	-0.000
249.36	-0.000
249.57	-0.000
249.78	-0.000
250.00	-0.000
250.21	-0.000
250.42	-0.000
250.64	-0.000
250.85	-0.000
251.06	-0.000
251.28	-0.000
251.49	-0.000
251.70	-0.000
251.92	-0.000
252.13	-0.000
252.34	-0.000
252.55	-0.000
252.77	-0.000
252.98	-0.000
253.19	-0.000
253.41	-0.000
253.62	-0.000
253.83	-0.000
254.05	-0.000
254.26	-0.000
254.47	-0.000
254.68	-0.000
254.90	-0.000
255.11	-0.000
255.32	-0.000
255.54	-0.000
255.75	-0.000
255.96	-0.000
256.17	-0.000
256.39	-0.000
256.60	-0.000
256.81	-0.000
257.03	-0.000
257.24	-0.000
257.45	-0.000
257.66	-0.000
257.88	-0.000
258.09	-0.000
258.30	-0.000
258.51	-0.000
258.73	-0.000
258.94	-0.000
259.15	-0.000
259.37	-0.000
259.58	-0.000
259.79	-0.000
260.00	-0.000
260.22	-0.000
260.43	-0.000
260.64	-0.000
260.85	-0.000
261.07	-0.000
261.28	-0.000
261.49	-0.000
261.71	-0.000
261.92	-0.000
262.13	-0.000
262.34	-0.000
262.56	-0.000
262.77	-0.000
262.98	-0.000
263.19	-0.000
263.41	-0.000
263.62	-0.000
263.83	-0.000
264.04	-0.000
264.26	-0.000
264.47	-0.000
264.68	-0.000
264.89	-0.000
265.11	-0.000
265.32	-0.000
265.53	-0.000
265.74	-0.000
265.96	-0.000
266.17	-0.000
266.38	-0.000
266.59	-0.000
266.81	-0.000
267.02	-0.000
267.23	-0.000
267.44	-0.000
267.65	-0.000
267.87	-0.000
268.08	-0.000
268.29	-0.000
268.50	-0.000
268.72	-0.000
268.93	1.885
269.14	1.605
269.35	2.186
269.57	1.762
269.78	1.343
269.99	1.333
270.20	1.212
270.41	1.162
270.63	1.239
270.84	1.225
271.05	1.173
271.26	1.197
271.48	1.283
271.69	1.386
271.90	1.427
272.11	1.479
272.32	2.128
272.54	1.775
272.75	1.661
272.96	1.762
273.17	1.432
273.39	1.638
273.60	1.600
273.81	2.042
274.02	1.899
274.23	2.692
274.45	-0.000
274.66	1.867
274.87	2.138
275.08	1.791
275.29	-0.000
275.51	-0.000
275.72	3.063
275.93	2.314
276.14	1.353
276.35	1.384
276.57	1.310
276.78	1.391
276.99	1.439
277.20	1.591
277.41	1.580
277.63	1.218
277.84	1.164
278.05	1.250
278.26	1.223
278.47	1.353
278.69	1.134
278.90	1.109
279.11	0.985
279.32	0.958
279.53	0.877
279.74	0.943
279.96	0.959
280.17	0.934
280.38	0.959
280.59	0.983
280.80	1.003
281.02	1.068
281.23	1.068
281.44	1.097
281.65	1.103
281.86	1.222
282.07	1.122
282.29	1.176
282.50	1.261
282.71	1.140
282.92	1.085
283.13	1.023
283.35	0.996
283.56	0.968
283.77	1.000
283.98	0.997
284.19	0.931
284.40	0.943
284.62	0.893
284.83	0.864
285.04	0.848
285.25	0.839
285.46	0.821
285.67	0.799
285.88	0.813
286.10	0.800
286.31	0.823
286.52	0.849
286.73	0.847
286.94	0.847
287.15	0.835
287.37	0.864
287.58	0.869
287.79	0.868
288.00	0.896
288.21	0.884
288.42	0.850
288.63	0.825
288.85	0.792
289.06	0.766
289.27	0.772
289.48	0.770
289.69	0.747
289.90	0.738
290.11	0.741
290.33	0.719
290.54	0.712
290.75	0.727
290.96	0.717
291.17	0.723
291.38	0.727
291.59	0.714
291.81	0.722
292.02	0.720
292.23	0.725
292.44	0.722
292.65	0.727
292.86	0.718
293.07	0.707
293.28	0.711
293.50	0.702
293.71	0.701
293.92	0.706
294.13	0.696
294.34	0.697
294.55	0.690
294.76	0.692
294.97	0.693
295.19	0.695
295.40	0.689
295.61	0.688
295.82	0.699
296.03	0.703
296.24	0.697
296.45	0.703
296.66	0.713
296.87	0.716
297.09	0.718
297.30	0.710
297.51	0.712
297.72	0.713
297.93	0.707
298.14	0.700
298.35	0.694
298.56	0.704
298.77	0.697
298.99	0.694
299.20	0.691
299.41	0.688
299.62	0.689
299.83	0.686
300.04	0.684
300.25	0.690
300.46	0.689
300.67	0.691
300.88	0.682
301.10	0.683
301.31	0.672
301.52	0.672
301.73	0.670
301.94	0.671
302.15	0.672
302.36	0.678
302.57	0.675
302.78	0.670
302.99	0.673
303.20	0.672
303.41	0.672
303.63	0.681
303.84	0.686
304.05	0.684
304.26	0.685
304.47	0.680
304.68	0.676
304.89	0.676
305.10	0.682
305.31	0.676
305.52	0.673
305.73	0.677
305.94	0.671
306.15	0.667
306.37	0.665
306.58	0.661
306.79	0.662
307.00	0.664
307.21	0.663
307.42	0.659
307.63	0.660
307.84	0.668
308.05	0.663
308.26	0.661
308.47	0.664
308.68	0.663
308.89	0.664
309.10	0.663
309.31	0.664
309.52	0.661
309.73	0.659
309.95	0.662
310.16	0.655
310.37	0.655
310.58	0.654
310.79	0.649
311.00	0.648
311.21	0.649
311.42	0.654
311.63	0.650
311.84	0.647
312.05	0.644
312.26	0.638
312.47	0.638
312.68	0.638
312.89	0.643
313.10	0.646
313.31	0.648
313.52	0.644
313.73	0.639
313.94	0.642
314.15	0.647
314.36	0.647
314.57	0.651
314.78	0.655
314.99	0.654
315.21	0.648
315.42	0.643
315.63	0.640
315.84	0.643
316.05	0.643
316.26	0.639
316.47	0.635
316.68	0.639
316.89	0.638
317.10	0.634
317.31	0.635
317.52	0.636
317.73	0.639
317.94	0.641
318.15	0.637
318.36	0.639
318.57	0.643
318.78	0.645
318.99	0.639
319.20	0.642
319.41	0.643
319.62	0.643
319.83	0.645
320.04	0.643
320.25	0.642
320.46	0.643
320.67	0.640
320.88	0.639
321.09	0.638
321.30	0.641
321.51	0.637
321.72	0.638
321.93	0.637
322.14	0.634
322.35	0.631
322.56	0.632
322.77	0.631
322.98	0.630
323.19	0.626
323.40	0.624
323.61	0.622
323.82	0.621
324.03	0.622
324.24	0.624
324.45	0.624
324.66	0.627
324.87	0.627
325.08	0.627
325.29	0.630
325.50	0.631
325.71	0.633
325.92	0.632
326.13	0.632
326.34	0.633
326.55	0.633
326.76	0.634
326.97	0.634
327.18	0.635
327.39	0.634
327.60	0.630
327.80	0.628
328.01	0.626
328.22	0.628
328.43	0.627
328.64	0.624
328.85	0.620
329.06	0.618
329.27	0.618
329.48	0.616
329.69	0.618
329.90	0.617
330.11	0.622
330.32	0.620
330.53	0.618
330.74	0.616
330.95	0.616
331.16	0.615
331.37	0.617
331.58	0.614
331.79	0.615
332.00	0.612
332.21	0.613
332.42	0.612
332.63	0.614
332.83	0.617
333.04	0.622
333.25	0.621
333.46	0.623
333.67	0.622
333.88	0.624
334.09	0.620
334.30	0.624
334.51	0.624
334.72	0.624
334.93	0.622
335.14	0.618
335.35	0.613
335.56	0.614
335.77	0.609
335.98	0.611
336.18	0.608
336.39	0.609
336.60	0.607
336.81	0.608
337.02	0.605
337.23	0.604
337.44	0.604
337.65	0.605
337.86	0.605
338.07	0.606
338.28	0.603
338.49	0.606
338.70	0.605
338.91	0.604
339.11	0.603
339.32	0.603
339.53	0.607
339.74	0.610
339.95	0.610
340.16	0.613
340.37	0.613
340.58	0.617
340.79	0.613
341.00	0.612
341.21	0.611
341.41	0.609
341.62	0.609
341.83	0.605
342.04	0.603
342.25	0.602
342.46	0.599
342.67	0.599
342.88	0.597
343.09	0.598
343.30	0.596
343.50	0.597
343.71	0.597
343.92	0.597
344.13	0.597
344.34	0.596
344.55	0.596
344.76	0.598
344.97	0.595
345.18	0.596
345.38	0.595
345.59	0.599
345.80	0.599
346.01	0.602
346.22	0.604
346.43	0.605
346.64	0.603
346.85	0.603
347.06	0.603
347.26	0.603
347.47	0.600
347.68	0.603
347.89	0.600
348.10	0.603
348.31	0.598
348.52	0.597
348.73	0.596
348.93	0.598
349.14	0.598
349.35	0.599
349.56	0.599
349.77	0.600
349.98	0.600
350.19	0.601
350.39	0.600
350.60	0.604
350.81	0.600
351.02	0.601
351.23	0.599
351.44	0.598
351.65	0.598
351.86	0.600
352.06	0.598
352.27	0.595
352.48	0.595
352.69	0.595
352.90	0.592
353.11	0.592
353.31	0.592
353.52	0.596
353.73	0.597
353.94	0.595
354.15	0.593
354.36	0.593
354.57	0.595
354.77	0.593
354.98	0.592
355.19	0.593
355.40	0.594
355.61	0.594
355.82	0.590
356.02	0.591
356.23	0.590
356.44	0.590
356.65	0.590
356.86	0.589
357.07	0.590
357.27	0.589
357.48	0.587
357.69	0.588
357.90	0.589
358.11	0.590
358.32	0.588
358.52	0.588
358.73	0.587
358.94	0.587
359.15	0.587
359.36	0.586
359.56	0.587
359.77	0.587
359.98	0.585
360.19	0.586
360.40	0.587
360.61	0.589
360.81	0.589
361.02	0.588
361.23	0.588
361.44	0.589
361.65	0.591
361.85	0.590
362.06	0.592
362.27	0.591
362.48	0.590
362.69	0.588
362.89	0.588
363.10	0.591
363.31	0.591
363.52	0.591
363.73	0.588
363.93	0.589
364.14	0.589
364.35	0.586
364.56	0.589
364.77	0.589
364.97	0.590
365.18	0.588
365.39	0.588
365.60	0.587
365.81	0.587
366.01	0.588
366.22	0.586
366.43	0.585
366.64	0.586
366.84	0.583
367.05	0.582
367.26	0.581
367.47	0.582
367.68	0.581
367.88	0.582
368.09	0.583
368.30	0.581
368.51	0.583
368.71	0.581
368.92	0.580
369.13	0.582
369.34	0.583
369.55	0.583
369.75	0.582
369.96	0.581
370.17	0.581
370.38	0.583
370.58	0.584
370.79	0.582
371.00	0.583
371.21	0.585
371.41	0.582
371.62	0.581
371.83	0.584
372.04	0.581
372.24	0.584
372.45	0.581
372.66	0.579
372.87	0.581
373.07	0.581
373.28	0.582
373.49	0.581
373.70	0.582
373.90	0.582
374.11	0.580
374.32	0.581
374.53	0.581
374.73	0.583
374.94	0.582
375.15	0.581
375.36	0.581
375.56	0.579
375.77	0.579
375.98	0.577
376.19	0.577
376.39	0.580
376.60	0.579
376.81	0.577
377.02	0.576
377.22	0.578
377.43	0.578
377.64	0.579
377.84	0.579
378.05	0.579
378.26	0.578
378.47	0.580
378.67	0.578
378.88	0.579
379.09	0.579
379.30	0.577
379.50	0.576
379.71	0.575
379.92	0.573
380.12	0.573
380.33	0.575
380.54	0.575
380.75	0.573
380.95	0.573
381.16	0.575
381.37	0.575
381.57	0.576
381.78	0.576
381.99	0.576
382.20	0.577
382.40	0.579
382.61	0.577
382.82	0.578
383.02	0.580
383.23	0.579
383.44	0.579
383.64	0.579
383.85	0.577
384.06	0.576
384.27	0.577
384.47	0.578
384.68	0.577
384.89	0.575
385.09	0.576
385.30	0.576
385.51	0.577
385.71	0.575
385.92	0.574
386.13	0.574
386.33	0.575
386.54	0.575
386.75	0.573
386.95	0.573
387.16	0.575
387.37	0.575
387.58	0.574
387.78	0.572
387.99	0.573
388.20	0.573
388.40	0.575
388.61	0.572
388.82	0.574
389.02	0.573
389.23	0.572
389.44	0.573
389.64	0.574
389.85	0.572
390.06	0.571
390.26	0.570
390.47	0.571
390.68	0.571
390.88	0.573
391.09	0.570
391.30	0.571
391.50	0.571
391.71	0.571
391.92	0.569
392.12	0.570
392.33	0.571
392.53	0.570
392.74	0.570
392.95	0.568
393.15	0.567
393.36	0.568
393.57	0.568
393.77	0.568
393.98	0.568
394.19	0.569
394.39	0.568
394.60	0.566
394.81	0.567
395.01	0.569
395.22	0.568
395.43	0.567
395.63	0.567
395.84	0.564
396.04	0.565
396.25	0.563
396.46	0.562
396.66	0.563
396.87	0.562
397.08	0.563
397.28	0.562
397.49	0.562
397.69	0.563
397.90	0.564
398.11	0.564
398.31	0.562
398.52	0.563
398.73	0.563
398.93	0.563
399.14	0.564
399.34	0.564
399.55	0.563
399.76	0.564
399.96	0.562
400.17	0.563
400.37	0.563
400.58	0.563
400.79	0.563
400.99	0.561
401.20	0.560
401.41	0.560
401.61	0.559
401.82	0.558
402.02	0.558
402.23	0.560
402.44	0.559
402.64	0.558
402.85	0.558
403.05	0.558
403.26	0.559
403.47	0.560
403.67	0.559
403.88	0.560
404.08	0.559
404.29	0.559
404.50	0.559
404.70	0.558
404.91	0.559
405.11	0.559
405.32	0.559
405.52	0.559
405.73	0.559
405.94	0.560
406.14	0.559
406.35	0.560
406.55	0.559
406.76	0.558
406.97	0.559
407.17	0.559
407.38	0.560
407.58	0.559
407.79	0.558
407.99	0.556
408.20	0.556
408.41	0.556
408.61	0.556
408.82	0.555
409.02	0.556
409.23	0.557
409.43	0.555
409.64	0.553
409.84	0.555
410.05	0.555
410.26	0.556
410.46	0.556
410.67	0.557
410.87	0.556
411.08	0.555
411.28	0.554
411.49	0.553
411.69	0.553
411.90	0.555
412.11	0.554
412.31	0.554
412.52	0.553
412.72	0.553
412.93	0.553
413.13	0.553
413.34	0.555
413.54	0.555
413.75	0.556
413.95	0.557
414.16	0.556
414.37	0.555
414.57	0.556
414.78	0.555
414.98	0.556
415.19	0.555
415.39	0.555
415.60	0.554
415.80	0.553
416.01	0.552
416.21	0.551
416.42	0.551
416.62	0.552
416.83	0.551
417.03	0.552
417.24	0.551
417.44	0.551
417.65	0.551
417.86	0.552
418.06	0.554
418.27	0.553
418.47	0.553
418.68	0.552
418.88	0.552
419.09	0.551
419.29	0.552
419.50	0.552
419.70	0.553
419.91	0.553
420.11	0.552
420.32	0.551
420.52	0.552
420.73	0.551
420.93	0.552
421.14	0.553
421.34	0.553
421.55	0.554
421.75	0.553
421.96	0.553
422.16	0.552
422.37	0.551
422.57	0.552
422.78	0.552
422.98	0.553
423.19	0.555
423.39	0.554
423.60	0.554
423.80	0.552
424.01	0.553
424.21	0.552
424.42	0.552
424.62	0.553
424.83	0.553
425.03	0.552
425.23	0.551
425.44	0.548
425.64	0.548
425.85	0.547
426.05	0.547
426.26	0.547
426.46	0.547
426.67	0.546
426.87	0.545
427.08	0.545
427.28	0.545
427.49	0.545
427.69	0.546
427.90	0.546
428.10	0.548
428.31	0.548
428.51	0.549
428.71	0.551
428.92	0.550
429.12	0.552
429.33	0.552
429.53	0.552
429.74	0.551
429.94	0.552
430.15	0.552
430.35	0.551
430.56	0.551
430.76	0.550
430.96	0.551
431.17	0.551
431.37	0.551
431.58	0.552
431.78	0.552
431.99	0.553
432.19	0.551
432.40	0.552
432.60	0.553
432.80	0.553
433.01	0.553
433.21	0.552
433.42	0.551
433.62	0.551
433.83	0.551
434.03	0.551
434.23	0.551
434.44	0.551
434.64	0.550
434.85	0.549
435.05	0.551
435.26	0.551
435.46	0.552
435.66	0.552
435.87	0.552
436.07	0.551
436.28	0.553
436.48	0.554
436.69	0.556
436.89	0.556
437.09	0.556
437.30	0.556
437.50	0.555
437.71	0.553
437.91	0.553
438.11	0.553
438.32	0.552
438.52	0.551
438.73	0.551
438.93	0.551
439.13	0.551
439.34	0.551
439.54	0.550
439.75	0.551
439.95	0.553
440.15	0.553
440.36	0.552
440.56	0.553
440.77	0.553
440.97	0.554
441.17	0.552
441.38	0.553
441.58	0.555
441.79	0.555
441.99	0.555
442.19	0.554
442.40	0.554
442.60	0.553
442.81	0.554
443.01	0.554
443.21	0.554
443.42	0.554
443.62	0.553
443.82	0.552
444.03	0.553
444.23	0.554
444.44	0.552
444.64	0.554
444.84	0.555
445.05	0.556
445.25	0.556
445.45	0.555
445.66	0.554
445.86	0.556
446.06	0.555
446.27	0.554
446.47	0.552
446.68	0.553
446.88	0.552
447.08	0.551
447.29	0.550
447.49	0.551
447.69	0.550
447.90	0.551
448.10	0.549
448.30	0.549
448.51	0.548
448.71	0.550
448.91	0.549
449.12	0.551
449.32	0.550
449.52	0.550
449.73	0.548
449.93	0.549
450.14	0.549
450.34	0.550
450.54	0.549
450.75	0.550
450.95	0.550
451.15	0.550
451.36	0.549
451.56	0.551
451.76	0.551
451.97	0.553
452.17	0.553
452.37	0.553
452.58	0.554
452.78	0.555
452.98	0.556
453.19	0.557
453.39	0.557
453.59	0.556
453.79	0.555
454.00	0.555
454.20	0.554
454.40	0.555
454.61	0.556
454.81	0.555
455.01	0.554
455.22	0.554
455.42	0.553
455.62	0.553
455.83	0.552
456.03	0.552
456.23	0.552
456.44	0.552
456.64	0.551
456.84	0.550
457.04	0.551
457.25	0.553
457.45	0.553
457.65	0.554
457.86	0.556
458.06	0.557
458.26	0.559
458.47	0.559
458.67	0.559
458.87	0.558
459.07	0.557
459.28	0.555
459.48	0.554
459.68	0.553
459.89	0.551
460.09	0.551
460.29	0.551
460.49	0.550
460.70	0.550
460.90	0.550
461.10	0.550
461.31	0.552
461.51	0.553
461.71	0.554
461.91	0.554
462.12	0.556
462.32	0.557
462.52	0.556
462.72	0.556
462.93	0.555
463.13	0.554
463.33	0.556
463.53	0.554
463.74	0.555
463.94	0.554
464.14	0.556
464.35	0.555
464.55	0.555
464.75	0.557
464.95	0.557
465.16	0.556
465.36	0.557
465.56	0.557
465.76	0.558
465.97	0.558
466.17	0.557
466.37	0.556
466.57	0.554
466.78	0.555
466.98	0.553
467.18	0.553
467.38	0.553
467.59	0.552
467.79	0.552
467.99	0.551
468.19	0.550
468.39	0.550
468.60	0.550
468.80	0.550
469.00	0.550
469.20	0.551
469.41	0.552
469.61	0.552
469.81	0.553
470.01	0.554
470.22	0.554
470.42	0.554
470.62	0.555
470.82	0.556
471.02	0.557
471.23	0.556
471.43	0.556
471.63	0.556
471.83	0.557
472.04	0.557
472.24	0.557
472.44	0.555
472.64	0.556
472.84	0.557
473.05	0.556
473.25	0.554
473.45	0.555
473.65	0.554
473.85	0.553
474.06	0.551
474.26	0.551
474.46	0.550
474.66	0.551
474.86	0.551
475.07	0.551
475.27	0.552
475.47	0.553
475.67	0.553
475.87	0.552
476.08	0.552
476.28	0.554
476.48	0.555
476.68	0.556
476.88	0.555
477.09	0.553
477.29	0.553
477.49	0.553
477.69	0.553
477.89	0.554
478.09	0.554
478.30	0.554
478.50	0.554
478.70	0.553
478.90	0.553
479.10	0.553
479.31	0.553
479.51	0.553
479.71	0.553
479.91	0.552
480.11	0.551
480.31	0.552
480.52	0.552
480.72	0.552
480.92	0.551
481.12	0.552
481.32	0.554
481.52	0.554
481.72	0.553
481.93	0.552
482.13	0.553
482.33	0.554
482.53	0.554
482.73	0.556
482.93	0.554
483.14	0.555
483.34	0.554
483.54	0.554
483.74	0.554
483.94	0.554
484.14	0.554
484.34	0.554
484.55	0.553
484.75	0.552
484.95	0.550
485.15	0.551
485.35	0.550
485.55	0.552
485.75	0.551
485.96	0.550
486.16	0.551
486.36	0.551
486.56	0.551
486.76	0.552
486.96	0.554
487.16	0.555
487.36	0.555
487.57	0.555
487.77	0.555
487.97	0.555
488.17	0.555
488.37	0.556
488.57	0.555
488.77	0.556
488.97	0.555
489.18	0.555
489.38	0.553
489.58	0.552
489.78	0.553
489.98	0.552
490.18	0.553
490.38	0.552
490.58	0.553
490.78	0.554
490.98	0.553
491.19	0.554
491.39	0.553
491.59	0.554
491.79	0.554
491.99	0.552
492.19	0.553
492.39	0.553
492.59	0.553
492.79	0.552
492.99	0.551
493.20	0.550
493.40	0.549
493.60	0.549
493.80	0.550
494.00	0.551
494.20	0.551
494.40	0.550
494.60	0.550
494.80	0.549
495.00	0.550
495.20	0.551
495.40	0.551
495.61	0.550
495.81	0.550
496.01	0.549
496.21	0.548
496.41	0.549
496.61	0.549
496.81	0.550
497.01	0.551
497.21	0.551
497.41	0.551
497.61	0.550
497.81	0.552
498.01	0.552
498.21	0.553
498.41	0.553
498.61	0.553
498.82	0.552
499.02	0.552
499.22	0.551
499.42	0.552
499.62	0.552
499.82	0.553
500.02	0.553
500.22	0.553
500.42	0.553
500.62	0.553
500.82	0.553
501.02	0.552
501.22	0.552
501.42	0.553
501.62	0.553
501.82	0.552
502.02	0.552
502.22	0.552
502.42	0.552
502.62	0.552
502.82	0.551
503.02	0.552
503.22	0.553
503.42	0.553
503.63	0.552
503.83	0.553
504.03	0.554
504.23	0.554
504.43	0.555
504.63	0.554
504.83	0.555
505.03	0.556
505.23	0.554
505.43	0.554
505.63	0.554
505.83	0.555
506.03	0.555
506.23	0.553
506.43	0.552
506.63	0.552
506.83	0.553
507.03	0.552
507.23	0.552
507.43	0.553
507.63	0.552
507.83	0.553
508.03	0.553
508.23	0.553
508.43	0.554
508.63	0.554
508.83	0.553
509.03	0.553
509.23	0.553
509.43	0.554
509.63	0.555
509.83	0.555
510.03	0.555
510.23	0.554
510.43	0.553
510.63	0.553
510.83	0.552
511.03	0.553
511.23	0.554
511.43	0.554
511.63	0.553
511.83	0.551
512.03	0.552
512.22	0.553
512.42	0.554
512.62	0.556
512.82	0.557
513.02	0.558
513.22	0.558
513.42	0.558
513.62	0.558
513.82	0.558
514.02	0.559
514.22	0.559
514.42	0.559
514.62	0.557
514.82	0.555
515.02	0.554
515.22	0.553
515.42	0.554
515.62	0.552
515.82	0.554
516.02	0.554
516.22	0.554
516.42	0.556
516.62	0.554
516.82	0.554
517.01	0.555
517.21	0.557
517.41	0.557
517.61	0.558
517.81	0.559
518.01	0.559
518.21	0.560
518.41	0.561
518.61	0.560
518.81	0.560
519.01	0.561
519.21	0.561
519.41	0.561
519.61	0.563
519.81	0.563
520.00	0.564
520.20	0.563
520.40	0.562
520.60	0.560
520.80	0.561
521.00	0.561
521.20	0.561
521.40	0.560
521.60	0.560
521.80	0.559
522.00	0.557
522.20	0.554
522.39	0.555
522.59	0.556
522.79	0.558
522.99	0.558
523.19	0.560
523.39	0.561
523.59	0.563
523.79	0.562
523.99	0.561
524.19	0.560
524.38	0.562
524.58	0.563
524.78	0.563
524.98	0.561
525.18	0.561
525.38	0.560
525.58	0.559
525.78	0.558
525.98	0.558
526.18	0.557
526.37	0.559
526.57	0.558
526.77	0.558
526.97	0.556
527.17	0.557
527.37	0.557
527.57	0.556
527.77	0.556
527.96	0.556
528.16	0.558
528.36	0.560
528.56	0.559
528.76	0.561
528.96	0.562
529.16	0.563
529.36	0.562
529.55	0.564
529.75	0.565
529.95	0.566
530.15	0.565
530.35	0.564
530.55	0.564
530.75	0.563
530.94	0.563
531.14	0.563
531.34	0.563
531.54	0.565
531.74	0.563
531.94	0.562
532.13	0.562
532.33	0.564
532.53	0.564
532.73	0.565
532.93	0.565
533.13	0.564
533.33	0.564
533.52	0.564
533.72	0.562
533.92	0.564
534.12	0.566
534.32	0.566
534.52	0.564
534.71	0.565
534.91	0.563
535.11	0.564
535.31	0.564
535.51	0.564
535.71	0.563
535.90	0.564
536.10	0.562
536.30	0.560
536.50	0.560
536.70	0.560
536.89	0.561
537.09	0.562
537.29	0.561
537.49	0.562
537.69	0.561
537.89	0.563
538.08	0.564
538.28	0.564
538.48	0.564
538.68	0.564
538.88	0.564
539.07	0.565
539.27	0.563
539.47	0.565
539.67	0.565
539.87	0.565
540.06	0.565
540.26	0.564
540.46	0.563
540.66	0.565
540.86	0.566
541.05	0.567
541.25	0.567
541.45	0.568
541.65	0.567
541.84	0.568
542.04	0.568
542.24	0.568
542.44	0.568
542.64	0.569
542.83	0.568
543.03	0.568
543.23	0.569
543.43	0.569
543.62	0.569
543.82	0.570
544.02	0.568
544.22	0.568
544.42	0.567
544.61	0.569
544.81	0.570
545.01	0.571
545.21	0.569
545.40	0.567
545.60	0.567
545.80	0.565
546.00	0.566
546.19	0.567
546.39	0.567
546.59	0.568
546.79	0.569
546.98	0.569
547.18	0.568
547.38	0.568
547.58	0.568
547.77	0.568
547.97	0.569
548.17	0.569
548.37	0.570
548.56	0.571
548.76	0.570
548.96	0.568
549.16	0.567
549.35	0.570
549.55	0.571
549.75	0.570
549.95	0.569
550.14	0.571
550.34	0.570
550.54	0.569
550.73	0.567
550.93	0.569
551.13	0.572
551.33	0.572
551.52	0.570
551.72	0.571
551.92	0.571
552.12	0.573
552.31	0.572
552.51	0.573
552.71	0.573
552.90	0.573
553.10	0.572
553.30	0.571
553.50	0.571
553.69	0.572
553.89	0.572
554.09	0.572
554.28	0.570
554.48	0.570
554.68	0.569
554.87	0.569
555.07	0.571
555.27	0.571
555.47	0.570
555.66	0.571
555.86	0.572
556.06	0.572
556.25	0.574
556.45	0.574
556.65	0.576
556.84	0.576
557.04	0.578
557.24	0.577
557.43	0.577
557.63	0.579
557.83	0.579
558.02	0.580
558.22	0.579
558.42	0.578
558.61	0.580
558.81	0.579
559.01	0.578
559.21	0.576
559.40	0.577
559.60	0.578
559.80	0.577
559.99	0.577
560.19	0.575
560.39	0.578
560.58	0.578
560.78	0.578
560.97	0.576
561.17	0.578
561.37	0.580
561.56	0.579
561.76	0.579
561.96	0.579
562.15	0.578
562.35	0.577
562.55	0.575
562.74	0.576
562.94	0.574
563.14	0.576
563.33	0.576
563.53	0.576
563.73	0.577
563.92	0.577
564.12	0.576
564.31	0.575
564.51	0.575
564.71	0.576
564.90	0.574
565.10	0.574
565.30	0.574
565.49	0.575
565.69	0.573
565.89	0.575
566.08	0.575
566.28	0.574
566.47	0.575
566.67	0.577
566.87	0.578
567.06	0.578
567.26	0.577
567.46	0.579
567.65	0.577
567.85	0.577
568.04	0.576
568.24	0.575
568.44	0.575
568.63	0.576
568.83	0.576
569.02	0.576
569.22	0.577
569.42	0.578
569.61	0.576
569.81	0.578
570.00	0.576
570.20	0.575
570.40	0.575
570.59	0.575
570.79	0.573
570.98	0.572
571.18	0.571
571.38	0.570
571.57	0.571
571.77	0.571
571.96	0.570
572.16	0.571
572.35	0.572
572.55	0.572
572.75	0.572
572.94	0.573
573.14	0.571
573.33	0.572
573.53	0.571
573.73	0.570
573.92	0.570
574.12	0.572
574.31	0.571
574.51	0.570
574.70	0.569
574.90	0.568
575.09	0.568
575.29	0.568
575.49	0.567
575.68	0.567
575.88	0.566
576.07	0.565
576.27	0.564
576.46	0.564
576.66	0.563
576.86	0.564
577.05	0.565
577.25	0.567
577.44	0.567
577.64	0.567
577.83	0.568
578.03	0.568
578.22	0.569
578.42	0.569
578.61	0.569
578.81	0.568
579.00	0.568
579.20	0.567
579.40	0.566
579.59	0.567
579.79	0.567
579.98	0.567
580.18	0.566
580.37	0.566
580.57	0.566
580.76	0.567
580.96	0.567
581.15	0.567
581.35	0.566
581.54	0.567
581.74	0.565
581.93	0.565
582.13	0.564
582.32	0.565
582.52	0.564
582.71	0.564
582.91	0.565
583.10	0.566
583.30	0.564
583.49	0.565
583.69	0.564
583.88	0.565
584.08	0.565
584.27	0.564
584.47	0.563
584.66	0.564
584.86	0.564
585.05	0.563
585.25	0.563
585.44	0.564
585.64	0.565
585.83	0.566
586.03	0.566
586.22	0.567
586.42	0.568
586.61	0.568
586.81	0.568
587.00	0.569
587.20	0.568
587.39	0.568
587.59	0.568
587.78	0.567
587.98	0.565
588.17	0.566
588.37	0.566
588.56	0.565
588.76	0.565
588.95	0.566
589.15	0.567
589.34	0.568
589.54	0.567
589.73	0.569
589.92	0.569
590.12	0.570
590.31	0.571
590.51	0.572
590.70	0.573
590.90	0.572
591.09	0.573
591.29	0.572
591.48	0.572
591.68	0.572
591.87	0.572
592.06	0.572
592.26	0.572
592.45	0.572
592.65	0.570
592.84	0.570
593.04	0.571
593.23	0.570
593.43	0.570
593.62	0.569
593.81	0.568
594.01	0.568
594.20	0.568
594.40	0.568
594.59	0.568
594.79	0.568
594.98	0.568
595.17	0.568
595.37	0.570
595.56	0.571
595.76	0.572
595.95	0.574
596.14	0.574
596.34	0.574
596.53	0.572
596.73	0.572
596.92	0.571
597.12	0.570
597.31	0.569
597.50	0.566
597.70	0.566
597.89	0.563
598.09	0.563
598.28	0.562
598.47	0.561
598.67	0.561
598.86	0.561
599.06	0.562
599.25	0.561
599.44	0.561
599.64	0.561
599.83	0.562
600.03	0.562
600.22	0.561
600.41	0.561
600.61	0.561
600.80	0.561
601.00	0.561
601.19	0.562
601.38	0.562
601.58	0.562
601.77	0.565
601.96	0.563
602.16	0.564
602.35	0.564
602.55	0.565
602.74	0.566
602.93	0.567
603.13	0.566
603.32	0.566
603.51	0.568
603.71	0.567
603.90	0.565
604.09	0.565
604.29	0.564
604.48	0.565
604.68	0.563
604.87	0.563
605.06	0.563
605.26	0.564
605.45	0.562
605.64	0.562
605.84	0.562
606.03	0.562
606.22	0.562
606.42	0.563
606.61	0.564
606.80	0.565
607.00	0.566
607.19	0.566
607.38	0.567
607.58	0.568
607.77	0.568
607.96	0.569
608.16	0.571
608.35	0.570
608.54	0.571
608.74	0.570
608.93	0.569
609.12	0.568
609.32	0.570
609.51	0.568
609.70	0.568
609.90	0.568
610.09	0.568
610.28	0.566
610.48	0.567
610.67	0.568
610.86	0.570
611.06	0.570
611.25	0.570
611.44	0.568
611.64	0.570
611.83	0.570
612.02	0.571
612.21	0.571
612.41	0.571
612.60	0.571
612.79	0.569
612.99	0.570
613.18	0.569
613.37	0.571
613.57	0.573
613.76	0.571
613.95	0.572
614.14	0.571
614.34	0.570
614.53	0.570
614.72	0.568
614.92	0.571
615.11	0.570
615.30	0.572
615.49	0.572
615.69	0.570
615.88	0.572
616.07	0.572
616.26	0.574
616.46	0.574
616.65	0.575
616.84	0.578
617.04	0.577
617.23	0.576
617.42	0.575
617.61	0.573
617.81	0.573
618.00	0.574
618.19	0.574
618.38	0.573
618.58	0.576
618.77	0.577
618.96	0.577
619.15	0.579
619.35	0.582
619.54	0.582
619.73	0.583
619.92	0.585
620.12	0.583
620.31	0.584
620.50	0.583
620.69	0.581
620.89	0.580
621.08	0.581
621.27	0.578
621.46	0.578
621.66	0.576
621.85	0.577
622.04	0.578
622.23	0.581
622.43	0.580
622.62	0.582
622.81	0.581
623.00	0.580
623.19	0.578
623.39	0.579
623.58	0.577
623.77	0.580
623.96	0.579
624.16	0.579
624.35	0.579
624.54	0.578
624.73	0.577
624.92	0.578
625.12	0.577
625.31	0.577
625.50	0.576
625.69	0.576
625.88	0.577
626.08	0.579
626.27	0.579
626.46	0.579
626.65	0.578
626.84	0.577
627.04	0.576
627.23	0.579
627.42	0.580
627.61	0.581
627.80	0.579
628.00	0.580
628.19	0.576
628.38	0.574
628.57	0.573
628.76	0.575
628.96	0.576
629.15	0.577
629.34	0.578
629.53	0.579
629.72	0.581
629.91	0.583
630.11	0.580
630.30	0.581
630.49	0.580
630.68	0.581
630.87	0.582
631.06	0.582
631.26	0.583
631.45	0.582
631.64	0.580
631.83	0.580
632.02	0.580
632.21	0.581
632.41	0.582
632.60	0.584
632.79	0.583
632.98	0.582
633.17	0.584
633.36	0.582
633.55	0.582
633.75	0.586
633.94	0.585
634.13	0.585
634.32	0.586
634.51	0.587
634.70	0.586
634.89	0.587
635.09	0.586
635.28	0.585
635.47	0.584
635.66	0.582
635.85	0.582
636.04	0.583
636.23	0.583
636.43	0.581
636.62	0.582
636.81	0.583
637.00	0.581
637.19	0.580
637.38	0.582
637.57	0.585
637.76	0.588
637.95	0.585
638.15	0.584
638.34	0.586
638.53	0.586
638.72	0.584
638.91	0.586
639.10	0.588
639.29	0.588
639.48	0.587
639.67	0.584
639.87	0.585
640.06	0.588
640.25	0.590
640.44	0.585
640.63	0.586
640.82	0.587
641.01	0.589
641.20	0.590
641.39	0.593
641.58	0.594
641.78	0.595
641.97	0.594
642.16	0.592
642.35	0.590
642.54	0.592
642.73	0.593
642.92	0.592
643.11	0.591
643.30	0.591
643.49	0.588
643.68	0.586
643.87	0.585
644.06	0.583
644.25	0.586
644.45	0.590
644.64	0.592
644.83	0.590
645.02	0.591
645.21	0.591
645.40	0.588
645.59	0.590
645.78	0.591
645.97	0.591
646.16	0.589
646.35	0.588
646.54	0.583
646.73	0.581
646.92	0.582
647.11	0.583
647.30	0.583
647.49	0.582
647.68	0.582
647.88	0.581
648.07	0.584
648.26	0.584
648.45	0.582
648.64	0.586
648.83	0.585
649.02	0.582
649.21	0.578
649.40	0.577
649.59	0.577
649.78	0.579
649.97	0.577
650.16	0.574
650.35	0.574
650.54	0.576
650.73	0.571
650.92	0.573
651.11	0.576
651.30	0.577
651.49	0.576
651.68	0.576
651.87	0.574
652.06	0.576
652.25	0.578
652.44	0.581
652.63	0.580
652.82	0.580
653.01	0.578
653.20	0.574
653.39	0.574
653.58	0.572
653.77	0.570
653.96	0.568
654.15	0.566
654.34	0.563
654.53	0.561
654.72	0.559
654.91	0.560
655.10	0.559
655.29	0.560
655.48	0.558
655.67	0.558
655.86	0.558
656.05	0.557
656.24	0.557
656.43	0.556
656.62	0.556
656.81	0.554
657.00	0.552
657.19	0.553
657.38	0.552
657.57	0.553
657.76	0.553
657.95	0.554
658.14	0.556
658.33	0.559
658.51	0.559
658.70	0.560
658.89	0.563
659.08	0.566
659.27	0.566
659.46	0.568
659.65	0.570
659.84	0.573
660.03	0.573
660.22	0.572
660.41	0.571
660.60	0.575
660.79	0.576
660.98	0.575
661.17	0.574
661.36	0.575
661.55	0.577
661.74	0.573
661.92	0.572
662.11	0.573
662.30	0.574
662.49	0.574
662.68	0.573
662.87	0.569
663.06	0.572
663.25	0.570
663.44	0.570
663.63	0.569
663.82	0.571
664.01	0.569
664.20	0.570
664.38	0.570
664.57	0.568
664.76	0.565
664.95	0.565
665.14	0.563
665.33	0.567
665.52	0.565
665.71	0.562
665.90	0.563
666.09	0.564
666.28	0.562
666.46	0.564
666.65	0.564
666.84	0.567
667.03	0.571
667.22	0.571
667.41	0.569
667.60	0.571
667.79	0.571
667.98	0.568
668.16	0.566
668.35	0.566
668.54	0.563
668.73	0.562
668.92	0.562
669.11	0.562
669.30	0.563
669.49	0.564
669.67	0.565
669.86	0.564
670.05	0.563
670.24	0.564
670.43	0.565
670.62	0.564
670.81	0.565
671.00	0.562
671.18	0.558
671.37	0.558
671.56	0.556
671.75	0.554
671.94	0.557
672.13	0.559
672.32	0.560
672.50	0.560
672.69	0.559
672.88	0.558
673.07	0.559
673.26	0.559
673.45	0.558
673.63	0.559
673.82	0.560
674.01	0.558
674.20	0.556
674.39	0.556
674.58	0.557
674.76	0.560
674.95	0.562
675.14	0.563
675.33	0.564
675.52	0.565
675.71	0.565
675.89	0.564
676.08	0.567
676.27	0.567
676.46	0.567
676.65	0.567
676.84	0.563
677.02	0.560
677.21	0.557
677.40	0.558
677.59	0.559
677.78	0.557
677.96	0.555
678.15	0.555
678.34	0.556
678.53	0.554
678.72	0.550
678.90	0.553
679.09	0.555
679.28	0.557
679.47	0.557
679.66	0.556
679.84	0.557
680.03	0.558
680.22	0.557
680.41	0.555
680.60	0.556
680.78	0.558
680.97	0.557
681.16	0.556
681.35	0.554
681.53	0.553
681.72	0.553
681.91	0.551
682.10	0.550
682.29	0.548
682.47	0.548
682.66	0.548
682.85	0.547
683.04	0.547
683.22	0.546
683.41	0.545
683.60	0.546
683.79	0.543
683.97	0.542
684.16	0.542
684.35	0.543
684.54	0.543
684.72	0.542
684.91	0.542
685.10	0.540
685.29	0.541
685.47	0.542
685.66	0.543
685.85	0.543
686.04	0.544
686.22	0.541
686.41	0.540
686.60	0.539
686.79	0.539
686.97	0.538
687.16	0.538
687.35	0.537
687.54	0.536
687.72	0.534
687.91	0.535
688.10	0.534
688.29	0.535
688.47	0.535
688.66	0.537
688.85	0.536
689.03	0.537
689.22	0.536
689.41	0.536
689.60	0.537
689.78	0.539
689.97	0.538
690.16	0.539
690.34	0.540
690.53	0.540
690.72	0.537
690.91	0.538
691.09	0.538
691.28	0.540
691.47	0.542
691.65	0.543
691.84	0.542
692.03	0.543
692.21	0.541
692.40	0.540
692.59	0.540
692.77	0.541
692.96	0.541
693.15	0.539
693.34	0.537
693.52	0.536
693.71	0.535
693.90	0.535
694.08	0.533
694.27	0.534
694.46	0.533
694.64	0.533
694.83	0.531
695.02	0.533
695.20	0.535
695.39	0.536
695.58	0.534
695.76	0.533
695.95	0.532
696.14	0.532
696.32	0.530
696.51	0.532
696.70	0.530
696.88	0.529
697.07	0.527
697.26	0.525
697.44	0.524
697.63	0.525
697.81	0.524
698.00	0.526
698.19	0.525
698.37	0.525
698.56	0.524
698.75	0.525
698.93	0.525
699.12	0.526
699.31	0.525
699.49	0.525
699.68	0.525
699.87	0.525
700.05	0.522
700.24	0.522
700.42	0.521
700.61	0.522
700.80	0.522
700.98	0.522
701.17	0.520
701.36	0.521
701.54	0.519
701.73	0.518
701.91	0.518
702.10	0.519
702.29	0.520
702.47	0.522
702.66	0.523
702.84	0.522
703.03	0.520
703.22	0.521
703.40	0.521
703.59	0.522
703.77	0.522
703.96	0.523
704.15	0.523
704.33	0.522
704.52	0.520
704.70	0.518
704.89	0.518
705.08	0.520
705.26	0.520
705.45	0.518
705.63	0.517
705.82	0.518
706.00	0.517
706.19	0.516
706.38	0.515
706.56	0.515
706.75	0.515
706.93	0.516
707.12	0.514
707.30	0.513
707.49	0.512
707.68	0.513
707.86	0.511
708.05	0.510
708.23	0.511
708.42	0.510
708.60	0.510
708.79	0.508
708.98	0.508
709.16	0.507
709.35	0.507
709.53	0.507
709.72	0.507
709.90	0.506
710.09	0.505
710.27	0.503
710.46	0.501
710.64	0.501
710.83	0.500
711.02	0.500
711.20	0.501
711.39	0.502
711.57	0.502
711.76	0.500
711.94	0.502
712.13	0.503
712.31	0.503
712.50	0.505
712.68	0.507
712.87	0.506
713.05	0.505
713.24	0.503
713.42	0.502
713.61	0.502
713.79	0.503
713.98	0.501
714.16	0.499
714.35	0.498
714.54	0.497
714.72	0.496
714.91	0.496
715.09	0.494
715.28	0.492
715.46	0.492
715.65	0.492
715.83	0.492
716.02	0.491
716.20	0.493
716.39	0.494
716.57	0.492
716.76	0.491
716.94	0.491
717.12	0.491
717.31	0.491
717.49	0.490
717.68	0.488
717.86	0.486
718.05	0.485
718.23	0.481
718.42	0.478
718.60	0.476
718.79	0.474
718.97	0.473
719.16	0.473
719.34	0.471
719.53	0.472
719.71	0.472
719.90	0.471
720.08	0.470
720.27	0.469
720.45	0.468
720.63	0.467
720.82	0.465
721.00	0.464
721.19	0.462
721.37	0.462
721.56	0.458
721.74	0.456
721.93	0.454
722.11	0.452
722.30	0.453
722.48	0.452
722.66	0.450
722.85	0.449
723.03	0.447
723.22	0.448
723.40	0.448
723.59	0.448
723.77	0.446
723.95	0.446
724.14	0.444
724.32	0.442
724.51	0.440
724.69	0.441
724.88	0.441
725.06	0.440
725.24	0.438
725.43	0.438
725.61	0.439
725.80	0.441
725.98	0.440
726.16	0.440
726.35	0.439
726.53	0.439
726.72	0.435
726.90	0.432
727.09	0.431
727.27	0.427
727.45	0.423
727.64	0.416
727.82	0.412
728.01	0.408
728.19	0.407
728.37	0.404
728.56	0.399
728.74	0.398
728.92	0.398
729.11	0.396
729.29	0.394
729.48	0.393
729.66	0.393
729.84	0.391
730.03	0.388
730.21	0.385
730.40	0.383
730.58	0.384
730.76	0.381
730.95	0.378
731.13	0.374
731.31	0.371
731.50	0.364
731.68	0.362
731.86	0.360
732.05	0.355
732.23	0.351
732.42	0.350
732.60	0.344
732.78	0.341
732.97	0.334
733.15	0.330
733.33	0.327
733.52	0.324
733.70	0.320
733.88	0.315
734.07	0.312
734.25	0.309
734.43	0.306
734.62	0.305
734.80	0.303
734.98	0.302
735.17	0.298
735.35	0.297
735.53	0.296
735.72	0.291
735.90	0.286
736.08	0.285
736.27	0.283
736.45	0.280
736.63	0.278
736.82	0.274
737.00	0.271
737.18	0.271
737.37	0.267
737.55	0.264
737.73	0.262
737.92	0.260
738.10	0.260
738.28	0.258
738.46	0.253
738.65	0.250
738.83	0.248
739.01	0.248
739.20	0.244
739.38	0.243
739.56	0.242
739.75	0.243
739.93	0.245
740.11	0.240
740.29	0.238
740.48	0.239
740.66	0.240
740.84	0.240
741.03	0.239
741.21	0.240
741.39	0.241
741.57	0.243
741.76	0.241
741.94	0.241
742.12	0.243
742.31	0.246
742.49	0.246
742.67	0.247
742.85	0.243
743.04	0.247
743.22	0.246
743.40	0.243
743.58	0.244
743.77	0.247
743.95	0.248
744.13	0.247
744.31	0.244
744.50	0.242
744.68	0.239
744.86	0.241
745.04	0.235
745.23	0.237
745.41	0.236
745.59	0.235
745.77	0.235
745.96	0.236
746.14	0.234
746.32	0.240
746.50	0.240
746.69	0.245
746.87	0.246
747.05	0.249
747.23	0.251
747.42	0.256
747.60	0.253
747.78	0.253
747.96	0.243
748.14	0.247
748.33	0.242
748.51	0.242
748.69	0.242
748.87	0.240
749.06	0.239
749.24	0.233
749.42	0.228
749.60	0.230
749.78	0.228
749.97	0.232
750.15	0.232
750.33	0.231
750.51	0.231
750.69	0.228
750.88	0.227
751.06	0.227
751.24	0.226
751.42	0.231
751.60	0.229
751.79	0.229
751.97	0.229
752.15	0.230
752.33	0.230
752.51	0.228
752.69	0.231
752.88	0.232
753.06	0.229
753.24	0.233
753.42	0.229
753.60	0.229
753.78	0.232
753.97	0.229
754.15	0.231
754.33	0.231
754.51	0.232
754.69	0.230
754.87	0.229
755.06	0.233
755.24	0.228
755.42	0.232
755.60	0.234
755.78	0.232
755.96	0.231
756.15	0.231
756.33	0.229
756.51	0.227
756.69	0.230
756.87	0.233
757.05	0.230
757.23	0.232
757.42	0.230
757.60	0.231
757.78	0.232
757.96	0.234
758.14	0.230
758.32	0.233
758.50	0.231
758.69	0.229
758.87	0.228
759.05	0.230
759.23	0.228
759.41	0.228
759.59	0.227
759.77	0.227
759.95	0.227
760.13	0.226
760.32	0.223
760.50	0.225
760.68	0.223
760.86	0.224
761.04	0.222
761.22	0.225
761.40	0.222
761.58	0.219
761.76	0.217
761.95	0.217
762.13	0.218
762.31	0.220
762.49	0.221
762.67	0.222
762.85	0.222
763.03	0.225
763.21	0.225
763.39	0.226
763.57	0.228
763.75	0.231
763.94	0.231
764.12	0.231
764.30	0.229
764.48	0.230
764.66	0.231
764.84	0.230
765.02	0.226
765.20	0.226
765.38	0.228
765.56	0.229
765.74	0.227
765.92	0.229
766.10	0.228
766.28	0.229
766.46	0.228
766.65	0.228
766.83	0.229
767.01	0.232
767.19	0.230
767.37	0.231
767.55	0.230
767.73	0.230
767.91	0.230
768.09	0.232
768.27	0.230
768.45	0.233
768.63	0.230
768.81	0.229
768.99	0.228
769.17	0.229
769.35	0.228
769.53	0.229
769.71	0.228
769.89	0.228
770.07	0.227
770.25	0.231
770.43	0.233
770.61	0.234
770.79	0.233
770.97	0.233
771.15	0.232
771.33	0.233
771.51	0.234
771.69	0.235
771.87	0.235
772.05	0.236
772.24	0.234
772.42	0.232
772.60	0.232
772.78	0.233
772.96	0.232
773.14	0.237
773.32	0.238
773.49	0.238
773.67	0.237
773.85	0.239
774.03	0.239
774.21	0.241
774.39	0.243
774.57	0.245
774.75	0.246
774.93	0.249
775.11	0.246
775.29	0.247
775.47	0.245
775.65	0.248
775.83	0.251
776.01	0.251
776.19	0.252
776.37	0.252
776.55	0.253
776.73	0.254
776.91	0.252
777.09	0.256
777.27	0.259
777.45	0.264
777.63	0.265
777.81	0.264
777.99	0.265
778.17	0.265
778.35	0.266
778.53	0.270
778.71	0.270
778.89	0.272
779.07	0.271
779.24	0.271
779.42	0.266
779.60	0.266
779.78	0.263
779.96	0.264
780.14	0.264
780.32	0.262
780.50	0.258
780.68	0.259
780.86	0.260
781.04	0.260
781.22	0.255
781.40	0.258
781.58	0.258
781.75	0.260
781.93	0.262
782.11	0.260
782.29	0.261
782.47	0.265
782.65	0.267
782.83	0.268
783.01	0.269
783.19	0.271
783.37	0.272
783.55	0.272
783.72	0.272
783.90	0.271
784.08	0.271
784.26	0.276
784.44	0.273
784.62	0.276
784.80	0.276
784.98	0.277
785.16	0.280
785.33	0.282
785.51	0.287
785.69	0.291
785.87	0.297
786.05	0.299
786.23	0.296
786.41	0.301
786.59	0.300
786.77	0.301
786.94	0.301
787.12	0.301
787.30	0.300
787.48	0.298
787.66	0.299
787.84	0.296
788.02	0.299
788.19	0.299
788.37	0.297
788.55	0.297
788.73	0.298
788.91	0.300
789.09	0.300
789.27	0.305
789.44	0.308
789.62	0.308
789.80	0.306
789.98	0.305
790.16	0.307
790.34	0.310
790.51	0.312
790.69	0.313
790.87	0.315
791.05	0.319
791.23	0.317
791.41	0.317
791.58	0.315
791.76	0.321
791.94	0.321
792.12	0.323
792.30	0.321
792.48	0.322
792.65	0.321
792.83	0.320
793.01	0.318
793.19	0.321
793.37	0.319
793.54	0.323
793.72	0.318
793.90	0.320
794.08	0.320
794.26	0.324
794.43	0.326
794.61	0.331
794.79	0.331
794.97	0.335
795.15	0.334
795.32	0.335
795.50	0.336
795.68	0.341
795.86	0.340
796.04	0.343
796.21	0.342
796.39	0.342
796.57	0.338
796.75	0.341
796.92	0.336
797.10	0.336
797.28	0.339
797.46	0.338
797.64	0.336
797.81	0.338
797.99	0.335
798.17	0.336
798.35	0.334
798.52	0.336
798.70	0.333
798.88	0.336
799.06	0.335
799.23	0.333
799.41	0.332
799.59	0.335
799.77	0.335
799.94	0.336
800.12	0.335
800.30	0.335
800.48	0.334
800.65	0.339
800.83	0.341
801.01	0.345
801.19	0.344
801.36	0.347
801.54	0.348
801.72	0.349
801.90	0.351
802.07	0.352
802.25	0.356
802.43	0.363
802.60	0.361
802.78	0.360
802.96	0.361
803.14	0.367
803.31	0.365
803.49	0.367
803.67	0.367
803.84	0.367
804.02	0.365
804.20	0.366
804.38	0.360
804.55	0.363
804.73	0.364
804.91	0.364
805.08	0.360
805.26	0.362
805.44	0.356
805.61	0.358
805.79	0.359
805.97	0.362
806.15	0.361
806.32	0.364
806.50	0.363
806.68	0.365
806.85	0.359
807.03	0.363
807.21	0.359
807.38	0.363
807.56	0.363
807.74	0.360
807.91	0.361
808.09	0.362
808.27	0.357
808.44	0.355
808.62	0.353
808.80	0.360
808.97	0.358
809.15	0.359
809.33	0.356
809.50	0.357
809.68	0.359
809.86	0.357
810.03	0.352
810.21	0.356
810.39	0.356
810.56	0.357
810.74	0.351
810.91	0.350
811.09	0.353
811.27	0.354
811.44	0.355
811.62	0.356
811.80	0.356
811.97	0.362
812.15	0.362
812.33	0.363
812.50	0.365
812.68	0.368
812.85	0.367
813.03	0.367
813.21	0.367
813.38	0.369
813.56	0.365
813.74	0.362
813.91	0.356
814.09	0.354
814.26	0.355
814.44	0.352
814.62	0.350
814.79	0.351
814.97	0.349
815.14	0.352
815.32	0.338
815.50	0.339
815.67	0.340
815.85	0.343
816.02	0.341
816.20	0.339
816.38	0.340
816.55	0.340
816.73	0.337
816.90	0.335
817.08	0.330
817.26	0.340
817.43	0.342
817.61	0.341
817.78	0.337
817.96	0.340
818.13	0.339
818.31	0.337
818.49	0.335
818.66	0.341
818.84	0.340
819.01	0.342
819.19	0.340
819.36	0.339
819.54	0.338
819.71	0.339
819.89	0.333
820.07	0.334
820.24	0.325
820.42	0.327
820.59	0.321
820.77	0.321
820.94	0.317
821.12	0.317
821.29	0.313
821.47	0.315
821.64	0.314
821.82	0.315
822.00	0.312
822.17	0.319
822.35	0.315
822.52	0.316
822.70	0.315
822.87	0.316
823.05	0.314
823.22	0.312
823.40	0.308
823.57	0.306
823.75	0.308
823.92	0.309
824.10	0.303
824.27	0.301
824.45	0.299
824.62	0.294
824.80	0.290
824.97	0.291
825.15	0.284
825.32	0.281
825.50	0.275
825.67	0.268
825.85	0.261
826.02	0.262
826.20	0.257
826.37	0.250
826.55	0.253
826.72	0.249
826.90	0.240
827.07	0.239
827.25	0.236
827.42	0.234
827.60	0.230
827.77	0.229
827.95	0.226
828.12	0.224
828.30	0.222
828.47	0.213
828.65	0.208
828.82	0.210
829.00	0.206
829.17	0.204
829.34	0.197
829.52	0.195
829.69	0.183
829.87	0.179
830.04	0.167
830.22	0.162
830.39	0.154
830.57	0.153
830.74	0.142
830.92	0.137
831.09	0.124
831.26	0.123
831.44	0.113
831.61	0.116
831.79	0.108
831.96	0.110
832.14	0.115
832.31	0.110
832.49	0.103
832.66	0.106
832.83	0.111
833.01	0.119
833.18	0.123
833.36	0.123
833.53	0.112
833.70	0.113
833.88	0.110
834.05	0.098
834.23	0.105
834.40	0.104
834.58	0.096
834.75	0.089
834.92	0.079
835.10	0.075
835.27	0.078
835.45	0.085
835.62	0.085
835.79	0.087
835.97	0.089
836.14	0.087
836.32	0.090
836.49	0.101
836.66	0.097
836.84	0.099
837.01	0.092
837.18	0.088
837.36	0.092
837.53	0.090
837.71	0.091
837.88	0.094
838.05	0.082
838.23	0.081
838.40	0.077
838.58	0.082
838.75	0.081
838.92	0.090
839.10	0.092
839.27	0.085
839.44	0.086
839.62	0.079
839.79	0.064
839.96	0.074
840.14	0.068
840.31	0.070
840.48	0.075
840.66	0.078
840.83	0.061
841.01	0.063
841.18	0.071
841.35	0.065
841.53	0.068
841.70	0.074
841.87	0.066
842.05	0.069
842.22	0.058
842.39	0.044
842.57	0.051
842.74	0.053
842.91	0.040
843.09	0.032
843.26	0.028
843.43	0.031
843.60	0.028
843.78	0.025
843.95	0.021
844.12	0.031
844.30	0.029
844.47	0.030
844.64	0.029
844.82	0.036
844.99	0.026
845.16	0.027
845.34	0.028
845.51	0.031
845.68	0.026
845.85	0.028
846.03	0.016
846.20	0.033
846.37	0.031
846.55	0.032
846.72	0.027
846.89	0.037
847.06	0.034
847.24	0.036
847.41	0.030
847.58	0.041
847.76	0.035
847.93	0.027
848.10	0.022
848.27	0.027
848.45	0.046
848.62	0.053
848.79	0.057
848.97	0.079
849.14	0.053
849.31	0.063
849.48	0.084
849.66	0.105
849.83	0.107
850.00	0.092
850.17	0.061
850.35	0.039
850.52	0.044
850.69	0.045
850.86	0.027
851.04	0.036
851.21	0.046
851.38	0.026
851.55	0.030
851.72	0.035
851.90	0.036
852.07	0.041
852.24	0.057
852.41	0.037
852.59	0.027
852.76	0.028
852.93	0.026
853.10	0.005
853.28	0.018
853.45	0.002
853.62	0.003
853.79	0.004
853.96	0.011
854.14	0.007
854.31	0.022
854.48	0.026
854.65	0.029
854.82	0.035
855.00	0.048
855.17	0.033
855.34	0.032
855.51	0.030
855.68	0.033
855.86	0.023
856.03	0.020
856.20	0.016
856.37	0.006
856.54	0.006
856.72	-0.013
856.89	-0.003
857.06	0.000
857.23	0.004
857.40	-0.001
857.57	0.019
857.75	0.023
857.92	0.011
858.09	0.017
858.26	0.036
858.43	0.015
858.60	0.037
858.78	0.046
858.95	0.038
859.12	0.052
859.29	0.087
859.46	0.050
859.63	0.071
859.81	0.119
859.98	0.117
860.15	0.100
860.32	0.135
860.49	0.136
860.66	0.105
860.83	0.132
861.01	0.158
861.18	0.136
861.35	0.170
861.52	0.156
861.69	0.120
861.86	0.115
862.03	0.104
862.21	0.101
862.38	0.098
862.55	0.133
862.72	0.130
862.89	0.132
863.06	0.137
863.23	0.167
863.40	0.193
863.58	0.230
863.75	0.244
863.92	0.242
864.09	0.270
864.26	0.353
864.43	0.260
864.60	0.242
864.77	0.162
864.94	0.125
865.11	0.064
865.29	0.041
865.46	0.036
865.63	0.070
865.80	0.071
865.97	0.089
866.14	0.061
866.31	0.080
866.48	0.084
866.65	0.098
866.82	0.114
866.99	0.191
867.16	0.222
867.34	0.209
867.51	0.139
867.68	0.178
867.85	0.124
868.02	0.140
868.19	0.125
868.36	0.172
868.53	0.213
868.70	0.233
868.87	0.135
869.04	0.095
869.21	0.074
869.38	0.108
869.55	0.082
869.72	0.074
869.89	0.068
870.06	0.087
870.24	0.049
870.41	0.064
870.58	0.065
870.75	0.102
870.92	0.107
871.09	0.100
871.26	0.096
871.43	0.089
871.60	0.104
871.77	0.119
871.94	0.105
872.11	0.115
872.28	0.103
872.45	0.091
872.62	0.092
872.79	0.083
872.96	0.111
873.13	0.081
873.30	0.087
873.47	0.140
873.64	0.123
873.81	0.125
873.98	0.090
874.15	0.094
874.32	0.096
874.49	0.071
874.66	0.105
874.83	0.151
875.00	0.166
875.17	0.206
875.34	0.193
875.51	0.170
875.68	0.153
875.85	0.232
876.02	0.206
876.19	0.252
876.36	0.242
876.53	0.311
876.70	0.306
876.87	0.439
877.04	0.496
877.21	0.502
877.38	0.541
877.55	0.615
877.72	0.462
877.89	0.382
878.06	0.349
878.23	0.373
878.39	0.401
878.56	0.336
878.73	0.242
878.90	0.172
879.07	0.125
879.24	0.225
879.41	0.217
879.58	0.203
879.75	0.200
879.92	0.190
880.09	0.184
880.26	0.103
880.43	0.143
880.60	0.120
880.77	0.184
880.94	0.285
881.11	0.256
881.27	0.437
881.44	0.480
881.61	0.802
881.78	1.040
881.95	1.248
882.12	-0.000
882.29	-0.000
882.46	-0.000
882.63	-0.000
882.80	-0.000
882.97	2.042
883.14	0.896
883.30	1.064
883.47	0.590
883.64	0.860
883.81	1.135
883.98	-0.000
884.15	-0.000
884.32	-0.000
884.49	1.188
884.66	0.699
884.82	1.304
884.99	0.836
885.16	0.632
885.33	0.754
885.50	0.565
885.67	0.641
885.84	0.365
886.01	0.342
886.17	0.358
886.34	0.485
886.51	0.502
886.68	0.364
886.85	0.663
887.02	1.406
887.19	1.807
887.36	2.997
887.52	1.208
887.69	-0.000
887.86	1.250
888.03	-0.000
888.20	1.100
888.37	2.012
888.54	-0.000
888.70	-0.000
888.87	1.706
889.04	1.159
889.21	0.974
889.38	0.749
889.55	1.032
889.71	0.261
889.88	-0.102
890.05	1.252
890.22	-0.065
890.39	-0.000
>>>>>End Processed Spectral Data<<<<<
