SpectraSuite Data File
++++++++++++++++++++++++++++++++++++
Date: Fri Jun 19 14:40:54 CEST 2015
User: introlabs
Dark Spectrum Present: Yes
Reference Spectrum Present: Yes
Number of Sampled Component Spectra: 1
Spectrometers: USB4H08886
Integration Time (usec): 745692 (USB4H08886)
Spectra Averaged: 5 (USB4H08886)
Boxcar Smoothing: 5 (USB4H08886)
Correct for Electrical Dark: Yes (USB4H08886)
Strobe/Lamp Enabled: No (USB4H08886)
Correct for Detector Non-linearity: Yes (USB4H08886)
Correct for Stray Light: Yes (USB4H08886)
Number of Pixels in Processed Spectrum: 3648
>>>>>Begin Processed Spectral Data<<<<<
178.14	-0.000
178.36	-0.000
178.57	-0.000
178.79	-0.000
179.01	-0.000
179.22	-0.000
179.44	-0.000
179.65	-0.000
179.87	-0.000
180.08	-0.000
180.30	-0.000
180.52	-0.000
180.73	-0.000
180.95	-0.000
181.16	-0.000
181.38	-0.000
181.59	-0.000
181.81	-0.000
182.03	-0.000
182.24	-0.000
182.46	-0.000
182.67	-0.000
182.89	-0.000
183.10	-0.000
183.32	-0.000
183.54	-0.000
183.75	-0.000
183.97	-0.000
184.18	-0.000
184.40	-0.000
184.61	-0.000
184.83	-0.000
185.04	-0.000
185.26	-0.000
185.48	-0.000
185.69	-0.000
185.91	-0.000
186.12	-0.000
186.34	-0.000
186.55	-0.000
186.77	-0.000
186.98	-0.000
187.20	-0.000
187.42	-0.000
187.63	-0.000
187.85	-0.000
188.06	-0.000
188.28	-0.000
188.49	-0.000
188.71	-0.000
188.92	-0.000
189.14	-0.000
189.36	-0.000
189.57	-0.000
189.79	-0.000
190.00	-0.000
190.22	-0.000
190.43	-0.000
190.65	-0.000
190.86	-0.000
191.08	-0.000
191.29	-0.000
191.51	-0.000
191.72	-0.000
191.94	-0.000
192.16	-0.000
192.37	-0.000
192.59	-0.000
192.80	-0.000
193.02	-0.000
193.23	-0.000
193.45	-0.000
193.66	-0.000
193.88	-0.000
194.09	-0.000
194.31	-0.000
194.52	-0.000
194.74	-0.000
194.95	-0.000
195.17	-0.000
195.38	-0.000
195.60	-0.000
195.81	-0.000
196.03	-0.000
196.25	-0.000
196.46	-0.000
196.68	-0.000
196.89	-0.000
197.11	-0.000
197.32	-0.000
197.54	-0.000
197.75	-0.000
197.97	-0.000
198.18	-0.000
198.40	-0.000
198.61	-0.000
198.83	-0.000
199.04	-0.000
199.26	-0.000
199.47	-0.000
199.69	-0.000
199.90	-0.000
200.12	-0.000
200.33	-0.000
200.55	-0.000
200.76	-0.000
200.98	-0.000
201.19	-0.000
201.41	-0.000
201.62	-0.000
201.84	-0.000
202.05	-0.000
202.27	-0.000
202.48	-0.000
202.70	-0.000
202.91	-0.000
203.13	-0.000
203.34	-0.000
203.56	-0.000
203.77	-0.000
203.99	-0.000
204.20	-0.000
204.42	-0.000
204.63	-0.000
204.85	-0.000
205.06	-0.000
205.28	-0.000
205.49	-0.000
205.71	-0.000
205.92	-0.000
206.14	-0.000
206.35	-0.000
206.56	-0.000
206.78	-0.000
206.99	-0.000
207.21	-0.000
207.42	-0.000
207.64	-0.000
207.85	-0.000
208.07	-0.000
208.28	-0.000
208.50	-0.000
208.71	-0.000
208.93	-0.000
209.14	-0.000
209.36	-0.000
209.57	-0.000
209.79	-0.000
210.00	-0.000
210.22	-0.000
210.43	-0.000
210.64	-0.000
210.86	-0.000
211.07	-0.000
211.29	-0.000
211.50	-0.000
211.72	-0.000
211.93	-0.000
212.15	-0.000
212.36	-0.000
212.58	-0.000
212.79	-0.000
213.01	-0.000
213.22	-0.000
213.43	-0.000
213.65	-0.000
213.86	-0.000
214.08	-0.000
214.29	-0.000
214.51	-0.000
214.72	-0.000
214.94	-0.000
215.15	-0.000
215.36	-0.000
215.58	-0.000
215.79	-0.000
216.01	-0.000
216.22	-0.000
216.44	-0.000
216.65	-0.000
216.87	-0.000
217.08	-0.000
217.29	-0.000
217.51	-0.000
217.72	-0.000
217.94	-0.000
218.15	-0.000
218.37	-0.000
218.58	-0.000
218.80	-0.000
219.01	-0.000
219.22	-0.000
219.44	-0.000
219.65	-0.000
219.87	-0.000
220.08	-0.000
220.30	-0.000
220.51	-0.000
220.72	-0.000
220.94	-0.000
221.15	-0.000
221.37	-0.000
221.58	-0.000
221.79	-0.000
222.01	-0.000
222.22	-0.000
222.44	-0.000
222.65	-0.000
222.87	-0.000
223.08	-0.000
223.29	-0.000
223.51	-0.000
223.72	-0.000
223.94	-0.000
224.15	-0.000
224.36	-0.000
224.58	-0.000
224.79	-0.000
225.01	-0.000
225.22	-0.000
225.44	-0.000
225.65	-0.000
225.86	-0.000
226.08	-0.000
226.29	-0.000
226.51	-0.000
226.72	-0.000
226.93	-0.000
227.15	-0.000
227.36	-0.000
227.58	-0.000
227.79	-0.000
228.00	-0.000
228.22	-0.000
228.43	-0.000
228.65	-0.000
228.86	-0.000
229.07	-0.000
229.29	-0.000
229.50	-0.000
229.72	-0.000
229.93	-0.000
230.14	-0.000
230.36	-0.000
230.57	-0.000
230.78	-0.000
231.00	-0.000
231.21	-0.000
231.43	-0.000
231.64	-0.000
231.85	-0.000
232.07	-0.000
232.28	-0.000
232.50	-0.000
232.71	-0.000
232.92	-0.000
233.14	-0.000
233.35	-0.000
233.56	-0.000
233.78	-0.000
233.99	-0.000
234.21	-0.000
234.42	-0.000
234.63	-0.000
234.85	-0.000
235.06	-0.000
235.27	-0.000
235.49	-0.000
235.70	-0.000
235.91	-0.000
236.13	-0.000
236.34	-0.000
236.56	-0.000
236.77	-0.000
236.98	-0.000
237.20	-0.000
237.41	-0.000
237.62	-0.000
237.84	-0.000
238.05	-0.000
238.26	-0.000
238.48	-0.000
238.69	-0.000
238.91	-0.000
239.12	-0.000
239.33	-0.000
239.55	-0.000
239.76	-0.000
239.97	-0.000
240.19	-0.000
240.40	-0.000
240.61	-0.000
240.83	-0.000
241.04	-0.000
241.25	-0.000
241.47	-0.000
241.68	-0.000
241.89	-0.000
242.11	-0.000
242.32	-0.000
242.53	-0.000
242.75	-0.000
242.96	-0.000
243.17	-0.000
243.39	-0.000
243.60	-0.000
243.81	-0.000
244.03	-0.000
244.24	-0.000
244.45	-0.000
244.67	-0.000
244.88	-0.000
245.09	-0.000
245.31	-0.000
245.52	-0.000
245.73	-0.000
245.95	-0.000
246.16	-0.000
246.37	-0.000
246.59	-0.000
246.80	-0.000
247.01	-0.000
247.23	-0.000
247.44	-0.000
247.65	-0.000
247.87	-0.000
248.08	-0.000
248.29	-0.000
248.51	-0.000
248.72	-0.000
248.93	-0.000
249.15	-0.000
249.36	-0.000
249.57	-0.000
249.78	-0.000
250.00	-0.000
250.21	-0.000
250.42	-0.000
250.64	-0.000
250.85	-0.000
251.06	-0.000
251.28	-0.000
251.49	-0.000
251.70	-0.000
251.92	-0.000
252.13	-0.000
252.34	-0.000
252.55	-0.000
252.77	-0.000
252.98	-0.000
253.19	-0.000
253.41	-0.000
253.62	-0.000
253.83	-0.000
254.05	-0.000
254.26	-0.000
254.47	-0.000
254.68	-0.000
254.90	-0.000
255.11	-0.000
255.32	-0.000
255.54	-0.000
255.75	-0.000
255.96	-0.000
256.17	-0.000
256.39	-0.000
256.60	-0.000
256.81	-0.000
257.03	-0.000
257.24	-0.000
257.45	-0.000
257.66	-0.000
257.88	-0.000
258.09	-0.000
258.30	-0.000
258.51	-0.000
258.73	-0.000
258.94	-0.000
259.15	-0.000
259.37	-0.000
259.58	-0.000
259.79	-0.000
260.00	-0.000
260.22	-0.000
260.43	-0.000
260.64	-0.000
260.85	-0.000
261.07	-0.000
261.28	-0.000
261.49	-0.000
261.71	-0.000
261.92	-0.000
262.13	-0.000
262.34	-0.000
262.56	-0.000
262.77	-0.000
262.98	-0.000
263.19	-0.000
263.41	-0.000
263.62	-0.000
263.83	-0.000
264.04	-0.000
264.26	-0.000
264.47	-0.000
264.68	-0.000
264.89	-0.000
265.11	-0.000
265.32	-0.000
265.53	-0.000
265.74	-0.000
265.96	-0.000
266.17	-0.000
266.38	-0.000
266.59	-0.000
266.81	-0.000
267.02	-0.000
267.23	-0.000
267.44	-0.000
267.65	-0.000
267.87	-0.000
268.08	-0.000
268.29	-0.000
268.50	-0.000
268.72	-0.000
268.93	-0.000
269.14	-0.000
269.35	-0.000
269.57	-0.000
269.78	-0.000
269.99	-0.000
270.20	-0.000
270.41	-0.000
270.63	-0.000
270.84	-0.000
271.05	-0.000
271.26	-0.000
271.48	-0.000
271.69	-0.000
271.90	-0.000
272.11	-0.000
272.32	-0.000
272.54	-0.000
272.75	-0.000
272.96	-0.000
273.17	-0.000
273.39	-0.000
273.60	-0.000
273.81	-0.000
274.02	-0.000
274.23	-0.000
274.45	-0.000
274.66	-0.000
274.87	-0.000
275.08	-0.000
275.29	-0.000
275.51	-0.000
275.72	-0.000
275.93	-0.000
276.14	-0.000
276.35	-0.000
276.57	-0.000
276.78	-0.000
276.99	-0.000
277.20	-0.000
277.41	-0.000
277.63	-0.000
277.84	-0.000
278.05	-0.000
278.26	-0.000
278.47	-0.000
278.69	-0.000
278.90	-0.000
279.11	-0.000
279.32	-0.000
279.53	-0.000
279.74	-0.000
279.96	-0.000
280.17	-0.000
280.38	-0.000
280.59	-0.000
280.80	-0.000
281.02	-0.000
281.23	-0.000
281.44	-0.000
281.65	-0.000
281.86	-0.000
282.07	-0.000
282.29	-0.000
282.50	-0.000
282.71	-0.000
282.92	-0.000
283.13	-0.000
283.35	-0.000
283.56	-0.000
283.77	-0.000
283.98	-0.000
284.19	-0.000
284.40	-0.000
284.62	-0.000
284.83	-0.000
285.04	-0.000
285.25	-0.000
285.46	-0.000
285.67	-0.000
285.88	-0.000
286.10	-0.000
286.31	-0.000
286.52	-0.000
286.73	-0.000
286.94	-0.000
287.15	-0.000
287.37	-0.000
287.58	-0.000
287.79	-0.000
288.00	-0.000
288.21	-0.000
288.42	-0.000
288.63	-0.000
288.85	-0.000
289.06	-0.000
289.27	-0.000
289.48	-0.000
289.69	-0.000
289.90	-0.000
290.11	-0.000
290.33	-0.000
290.54	-0.000
290.75	-0.000
290.96	-0.000
291.17	-0.000
291.38	-0.000
291.59	-0.000
291.81	-0.000
292.02	-0.000
292.23	-0.000
292.44	-0.000
292.65	-0.000
292.86	-0.000
293.07	-0.000
293.28	-0.000
293.50	-0.000
293.71	-0.000
293.92	-0.000
294.13	-0.000
294.34	-0.000
294.55	-0.000
294.76	-0.000
294.97	-0.000
295.19	-0.000
295.40	-0.000
295.61	-0.000
295.82	-0.000
296.03	-0.000
296.24	-0.000
296.45	2.400
296.66	1.876
296.87	1.886
297.09	1.986
297.30	2.349
297.51	1.789
297.72	1.761
297.93	1.881
298.14	1.828
298.35	1.759
298.56	1.728
298.77	1.875
298.99	1.838
299.20	1.802
299.41	1.778
299.62	1.723
299.83	1.709
300.04	1.630
300.25	1.625
300.46	1.674
300.67	1.642
300.88	1.572
301.10	1.572
301.31	1.652
301.52	1.590
301.73	1.523
301.94	1.523
302.15	1.545
302.36	1.489
302.57	1.421
302.78	1.429
302.99	1.479
303.20	1.504
303.41	1.410
303.63	1.387
303.84	1.396
304.05	1.395
304.26	1.334
304.47	1.339
304.68	1.346
304.89	1.337
305.10	1.297
305.31	1.288
305.52	1.334
305.73	1.329
305.94	1.292
306.15	1.279
306.37	1.305
306.58	1.311
306.79	1.279
307.00	1.305
307.21	1.346
307.42	1.335
307.63	1.291
307.84	1.253
308.05	1.291
308.26	1.292
308.47	1.270
308.68	1.262
308.89	1.262
309.10	1.259
309.31	1.215
309.52	1.206
309.73	1.222
309.95	1.215
310.16	1.189
310.37	1.177
310.58	1.193
310.79	1.192
311.00	1.188
311.21	1.192
311.42	1.193
311.63	1.190
311.84	1.172
312.05	1.173
312.26	1.198
312.47	1.209
312.68	1.183
312.89	1.168
313.10	1.176
313.31	1.150
313.52	1.149
313.73	1.152
313.94	1.155
314.15	1.138
314.36	1.112
314.57	1.103
314.78	1.091
314.99	1.085
315.21	1.072
315.42	1.075
315.63	1.089
315.84	1.067
316.05	1.053
316.26	1.061
316.47	1.080
316.68	1.078
316.89	1.060
317.10	1.080
317.31	1.087
317.52	1.090
317.73	1.070
317.94	1.069
318.15	1.113
318.36	1.112
318.57	1.095
318.78	1.083
318.99	1.119
319.20	1.116
319.41	1.082
319.62	1.082
319.83	1.095
320.04	1.090
320.25	1.074
320.46	1.040
320.67	1.045
320.88	1.042
321.09	1.026
321.30	1.011
321.51	1.026
321.72	1.024
321.93	1.008
322.14	1.000
322.35	1.028
322.56	1.029
322.77	1.016
322.98	1.025
323.19	1.032
323.40	1.040
323.61	1.016
323.82	1.011
324.03	1.018
324.24	1.016
324.45	1.003
324.66	0.981
324.87	0.979
325.08	0.979
325.29	0.960
325.50	0.952
325.71	0.958
325.92	0.967
326.13	0.953
326.34	0.954
326.55	0.961
326.76	0.961
326.97	0.952
327.18	0.946
327.39	0.970
327.60	0.972
327.80	0.973
328.01	0.972
328.22	0.972
328.43	0.976
328.64	0.962
328.85	0.966
329.06	0.968
329.27	0.966
329.48	0.960
329.69	0.942
329.90	0.951
330.11	0.944
330.32	0.935
330.53	0.930
330.74	0.929
330.95	0.928
331.16	0.914
331.37	0.922
331.58	0.923
331.79	0.924
332.00	0.915
332.21	0.908
332.42	0.912
332.63	0.903
332.83	0.898
333.04	0.899
333.25	0.913
333.46	0.910
333.67	0.895
333.88	0.898
334.09	0.908
334.30	0.906
334.51	0.897
334.72	0.893
334.93	0.897
335.14	0.897
335.35	0.891
335.56	0.885
335.77	0.895
335.98	0.893
336.18	0.887
336.39	0.879
336.60	0.882
336.81	0.881
337.02	0.879
337.23	0.883
337.44	0.885
337.65	0.885
337.86	0.875
338.07	0.870
338.28	0.876
338.49	0.874
338.70	0.866
338.91	0.873
339.11	0.880
339.32	0.877
339.53	0.865
339.74	0.862
339.95	0.860
340.16	0.858
340.37	0.850
340.58	0.848
340.79	0.852
341.00	0.852
341.21	0.842
341.41	0.842
341.62	0.844
341.83	0.845
342.04	0.840
342.25	0.850
342.46	0.855
342.67	0.854
342.88	0.847
343.09	0.845
343.30	0.852
343.50	0.854
343.71	0.844
343.92	0.843
344.13	0.847
344.34	0.846
344.55	0.830
344.76	0.829
344.97	0.834
345.18	0.832
345.38	0.829
345.59	0.823
345.80	0.824
346.01	0.822
346.22	0.816
346.43	0.810
346.64	0.819
346.85	0.819
347.06	0.812
347.26	0.812
347.47	0.818
347.68	0.813
347.89	0.809
348.10	0.804
348.31	0.811
348.52	0.811
348.73	0.808
348.93	0.803
349.14	0.805
349.35	0.805
349.56	0.799
349.77	0.794
349.98	0.800
350.19	0.798
350.39	0.793
350.60	0.788
350.81	0.804
351.02	0.804
351.23	0.800
351.44	0.802
351.65	0.804
351.86	0.802
352.06	0.800
352.27	0.800
352.48	0.803
352.69	0.802
352.90	0.797
353.11	0.784
353.31	0.790
353.52	0.786
353.73	0.778
353.94	0.779
354.15	0.784
354.36	0.783
354.57	0.774
354.77	0.777
354.98	0.776
355.19	0.776
355.40	0.776
355.61	0.781
355.82	0.785
356.02	0.784
356.23	0.779
356.44	0.781
356.65	0.785
356.86	0.786
357.07	0.779
357.27	0.782
357.48	0.785
357.69	0.780
357.90	0.765
358.11	0.761
358.32	0.765
358.52	0.767
358.73	0.757
358.94	0.759
359.15	0.763
359.36	0.763
359.56	0.759
359.77	0.755
359.98	0.762
360.19	0.762
360.40	0.759
360.61	0.760
360.81	0.760
361.02	0.760
361.23	0.752
361.44	0.750
361.65	0.751
361.85	0.749
362.06	0.747
362.27	0.749
362.48	0.749
362.69	0.751
362.89	0.744
363.10	0.746
363.31	0.750
363.52	0.753
363.73	0.749
363.93	0.750
364.14	0.752
364.35	0.755
364.56	0.744
364.77	0.746
364.97	0.748
365.18	0.749
365.39	0.743
365.60	0.741
365.81	0.742
366.01	0.741
366.22	0.739
366.43	0.739
366.64	0.740
366.84	0.746
367.05	0.743
367.26	0.742
367.47	0.745
367.68	0.744
367.88	0.741
368.09	0.739
368.30	0.742
368.51	0.741
368.71	0.740
368.92	0.744
369.13	0.741
369.34	0.741
369.55	0.740
369.75	0.741
369.96	0.747
370.17	0.746
370.38	0.741
370.58	0.740
370.79	0.745
371.00	0.743
371.21	0.735
371.41	0.741
371.62	0.744
371.83	0.740
372.04	0.737
372.24	0.731
372.45	0.732
372.66	0.733
372.87	0.731
373.07	0.728
373.28	0.728
373.49	0.732
373.70	0.723
373.90	0.723
374.11	0.732
374.32	0.730
374.53	0.730
374.73	0.731
374.94	0.734
375.15	0.733
375.36	0.731
375.56	0.740
375.77	0.740
375.98	0.740
376.19	0.737
376.39	0.730
376.60	0.734
376.81	0.734
377.02	0.732
377.22	0.731
377.43	0.731
377.64	0.731
377.84	0.722
378.05	0.727
378.26	0.734
378.47	0.733
378.67	0.730
378.88	0.727
379.09	0.727
379.30	0.727
379.50	0.725
379.71	0.727
379.92	0.730
380.12	0.730
380.33	0.721
380.54	0.716
380.75	0.723
380.95	0.723
381.16	0.722
381.37	0.722
381.57	0.724
381.78	0.724
381.99	0.724
382.20	0.723
382.40	0.726
382.61	0.726
382.82	0.723
383.02	0.717
383.23	0.720
383.44	0.719
383.64	0.718
383.85	0.720
384.06	0.723
384.27	0.721
384.47	0.718
384.68	0.719
384.89	0.724
385.09	0.724
385.30	0.723
385.51	0.722
385.71	0.726
385.92	0.727
386.13	0.725
386.33	0.727
386.54	0.727
386.75	0.726
386.95	0.723
387.16	0.718
387.37	0.721
387.58	0.721
387.78	0.719
387.99	0.716
388.20	0.718
388.40	0.715
388.61	0.711
388.82	0.714
389.02	0.716
389.23	0.716
389.44	0.715
389.64	0.715
389.85	0.726
390.06	0.726
390.26	0.727
390.47	0.726
390.68	0.729
390.88	0.728
391.09	0.724
391.30	0.723
391.50	0.723
391.71	0.723
391.92	0.720
392.12	0.712
392.33	0.712
392.53	0.711
392.74	0.711
392.95	0.711
393.15	0.714
393.36	0.715
393.57	0.714
393.77	0.717
393.98	0.719
394.19	0.719
394.39	0.718
394.60	0.719
394.81	0.721
395.01	0.719
395.22	0.717
395.43	0.718
395.63	0.722
395.84	0.723
396.04	0.720
396.25	0.722
396.46	0.724
396.66	0.721
396.87	0.719
397.08	0.716
397.28	0.718
397.49	0.719
397.69	0.716
397.90	0.711
398.11	0.712
398.31	0.712
398.52	0.708
398.73	0.710
398.93	0.710
399.14	0.710
399.34	0.709
399.55	0.710
399.76	0.710
399.96	0.711
400.17	0.710
400.37	0.708
400.58	0.715
400.79	0.717
400.99	0.714
401.20	0.720
401.41	0.722
401.61	0.723
401.82	0.728
402.02	0.728
402.23	0.730
402.44	0.729
402.64	0.729
402.85	0.724
403.05	0.723
403.26	0.721
403.47	0.715
403.67	0.714
403.88	0.715
404.08	0.709
404.29	0.707
404.50	0.706
404.70	0.707
404.91	0.706
405.11	0.702
405.32	0.702
405.52	0.703
405.73	0.702
405.94	0.701
406.14	0.703
406.35	0.706
406.55	0.706
406.76	0.704
406.97	0.704
407.17	0.708
407.38	0.708
407.58	0.707
407.79	0.709
407.99	0.712
408.20	0.712
408.41	0.708
408.61	0.706
408.82	0.707
409.02	0.707
409.23	0.705
409.43	0.703
409.64	0.705
409.84	0.705
410.05	0.701
410.26	0.700
410.46	0.699
410.67	0.698
410.87	0.700
411.08	0.701
411.28	0.703
411.49	0.704
411.69	0.702
411.90	0.703
412.11	0.704
412.31	0.706
412.52	0.704
412.72	0.705
412.93	0.706
413.13	0.705
413.34	0.702
413.54	0.703
413.75	0.705
413.95	0.705
414.16	0.702
414.37	0.705
414.57	0.705
414.78	0.707
414.98	0.705
415.19	0.706
415.39	0.704
415.60	0.706
415.80	0.705
416.01	0.703
416.21	0.705
416.42	0.704
416.62	0.699
416.83	0.699
417.03	0.699
417.24	0.700
417.44	0.698
417.65	0.697
417.86	0.697
418.06	0.695
418.27	0.693
418.47	0.695
418.68	0.696
418.88	0.697
419.09	0.695
419.29	0.696
419.50	0.696
419.70	0.695
419.91	0.693
420.11	0.690
420.32	0.693
420.52	0.692
420.73	0.690
420.93	0.692
421.14	0.693
421.34	0.692
421.55	0.688
421.75	0.689
421.96	0.690
422.16	0.690
422.37	0.689
422.57	0.686
422.78	0.688
422.98	0.685
423.19	0.682
423.39	0.681
423.60	0.684
423.80	0.685
424.01	0.684
424.21	0.687
424.42	0.688
424.62	0.687
424.83	0.687
425.03	0.687
425.23	0.689
425.44	0.690
425.64	0.690
425.85	0.689
426.05	0.689
426.26	0.689
426.46	0.686
426.67	0.685
426.87	0.690
427.08	0.690
427.28	0.688
427.49	0.689
427.69	0.690
427.90	0.689
428.10	0.685
428.31	0.685
428.51	0.687
428.71	0.686
428.92	0.687
429.12	0.684
429.33	0.686
429.53	0.689
429.74	0.694
429.94	0.694
430.15	0.693
430.35	0.694
430.56	0.690
430.76	0.690
430.96	0.690
431.17	0.688
431.37	0.684
431.58	0.682
431.78	0.679
431.99	0.672
432.19	0.674
432.40	0.676
432.60	0.677
432.80	0.679
433.01	0.677
433.21	0.678
433.42	0.680
433.62	0.680
433.83	0.680
434.03	0.683
434.23	0.686
434.44	0.685
434.64	0.682
434.85	0.687
435.05	0.688
435.26	0.689
435.46	0.687
435.66	0.687
435.87	0.687
436.07	0.687
436.28	0.682
436.48	0.679
436.69	0.679
436.89	0.679
437.09	0.673
437.30	0.672
437.50	0.672
437.71	0.684
437.91	0.682
438.11	0.683
438.32	0.688
438.52	0.689
438.73	0.688
438.93	0.686
439.13	0.686
439.34	0.689
439.54	0.686
439.75	0.686
439.95	0.676
440.15	0.680
440.36	0.679
440.56	0.676
440.77	0.677
440.97	0.677
441.17	0.676
441.38	0.677
441.58	0.674
441.79	0.673
441.99	0.672
442.19	0.671
442.40	0.668
442.60	0.667
442.81	0.665
443.01	0.666
443.21	0.667
443.42	0.666
443.62	0.664
443.82	0.664
444.03	0.665
444.23	0.665
444.44	0.665
444.64	0.665
444.84	0.667
445.05	0.667
445.25	0.664
445.45	0.664
445.66	0.666
445.86	0.666
446.06	0.667
446.27	0.666
446.47	0.670
446.68	0.667
446.88	0.665
447.08	0.664
447.29	0.666
447.49	0.666
447.69	0.666
447.90	0.665
448.10	0.668
448.30	0.666
448.51	0.667
448.71	0.665
448.91	0.668
449.12	0.666
449.32	0.668
449.52	0.667
449.73	0.671
449.93	0.670
450.14	0.670
450.34	0.669
450.54	0.672
450.75	0.669
450.95	0.668
451.15	0.667
451.36	0.670
451.56	0.667
451.76	0.666
451.97	0.664
452.17	0.664
452.37	0.662
452.58	0.658
452.78	0.658
452.98	0.661
453.19	0.660
453.39	0.661
453.59	0.660
453.79	0.660
454.00	0.660
454.20	0.658
454.40	0.659
454.61	0.661
454.81	0.663
455.01	0.661
455.22	0.661
455.42	0.663
455.62	0.661
455.83	0.660
456.03	0.663
456.23	0.664
456.44	0.665
456.64	0.664
456.84	0.664
457.04	0.664
457.25	0.664
457.45	0.661
457.65	0.659
457.86	0.661
458.06	0.660
458.26	0.655
458.47	0.655
458.67	0.656
458.87	0.656
459.07	0.654
459.28	0.656
459.48	0.658
459.68	0.658
459.89	0.657
460.09	0.655
460.29	0.656
460.49	0.658
460.70	0.656
460.90	0.656
461.10	0.656
461.31	0.655
461.51	0.652
461.71	0.653
461.91	0.655
462.12	0.656
462.32	0.655
462.52	0.655
462.72	0.658
462.93	0.659
463.13	0.657
463.33	0.658
463.53	0.660
463.74	0.660
463.94	0.655
464.14	0.656
464.35	0.656
464.55	0.657
464.75	0.655
464.95	0.653
465.16	0.655
465.36	0.654
465.56	0.653
465.76	0.652
465.97	0.652
466.17	0.653
466.37	0.651
466.57	0.652
466.78	0.652
466.98	0.652
467.18	0.650
467.38	0.649
467.59	0.650
467.79	0.652
467.99	0.651
468.19	0.652
468.39	0.655
468.60	0.656
468.80	0.654
469.00	0.656
469.20	0.657
469.41	0.657
469.61	0.656
469.81	0.657
470.01	0.656
470.22	0.656
470.42	0.655
470.62	0.653
470.82	0.654
471.02	0.653
471.23	0.651
471.43	0.652
471.63	0.654
471.83	0.654
472.04	0.652
472.24	0.651
472.44	0.656
472.64	0.656
472.84	0.654
473.05	0.653
473.25	0.656
473.45	0.655
473.65	0.652
473.85	0.653
474.06	0.654
474.26	0.654
474.46	0.655
474.66	0.651
474.86	0.653
475.07	0.653
475.27	0.651
475.47	0.648
475.67	0.649
475.87	0.651
476.08	0.648
476.28	0.649
476.48	0.650
476.68	0.648
476.88	0.646
477.09	0.648
477.29	0.650
477.49	0.650
477.69	0.649
477.89	0.649
478.09	0.648
478.30	0.651
478.50	0.648
478.70	0.647
478.90	0.648
479.10	0.651
479.31	0.651
479.51	0.649
479.71	0.650
479.91	0.650
480.11	0.649
480.31	0.649
480.52	0.648
480.72	0.648
480.92	0.647
481.12	0.646
481.32	0.643
481.52	0.642
481.72	0.642
481.93	0.645
482.13	0.646
482.33	0.645
482.53	0.643
482.73	0.644
482.93	0.645
483.14	0.645
483.34	0.644
483.54	0.644
483.74	0.643
483.94	0.642
484.14	0.639
484.34	0.639
484.55	0.640
484.75	0.640
484.95	0.638
485.15	0.637
485.35	0.638
485.55	0.637
485.75	0.636
485.96	0.636
486.16	0.637
486.36	0.637
486.56	0.635
486.76	0.635
486.96	0.636
487.16	0.635
487.36	0.633
487.57	0.632
487.77	0.633
487.97	0.634
488.17	0.632
488.37	0.631
488.57	0.631
488.77	0.631
488.97	0.629
489.18	0.629
489.38	0.632
489.58	0.632
489.78	0.632
489.98	0.631
490.18	0.632
490.38	0.633
490.58	0.632
490.78	0.633
490.98	0.635
491.19	0.635
491.39	0.634
491.59	0.633
491.79	0.636
491.99	0.636
492.19	0.636
492.39	0.639
492.59	0.639
492.79	0.641
492.99	0.640
493.20	0.641
493.40	0.641
493.60	0.643
493.80	0.641
494.00	0.638
494.20	0.639
494.40	0.638
494.60	0.635
494.80	0.640
495.00	0.639
495.20	0.638
495.40	0.636
495.61	0.638
495.81	0.638
496.01	0.641
496.21	0.643
496.41	0.641
496.61	0.643
496.81	0.642
497.01	0.636
497.21	0.635
497.41	0.636
497.61	0.636
497.81	0.633
498.01	0.633
498.21	0.631
498.41	0.629
498.61	0.630
498.82	0.631
499.02	0.633
499.22	0.634
499.42	0.633
499.62	0.635
499.82	0.635
500.02	0.637
500.22	0.636
500.42	0.637
500.62	0.638
500.82	0.638
501.02	0.636
501.22	0.636
501.42	0.635
501.62	0.637
501.82	0.637
502.02	0.637
502.22	0.636
502.42	0.638
502.62	0.636
502.82	0.636
503.02	0.637
503.22	0.637
503.42	0.635
503.63	0.635
503.83	0.633
504.03	0.632
504.23	0.630
504.43	0.630
504.63	0.631
504.83	0.631
505.03	0.630
505.23	0.631
505.43	0.633
505.63	0.634
505.83	0.634
506.03	0.636
506.23	0.638
506.43	0.638
506.63	0.638
506.83	0.637
507.03	0.639
507.23	0.639
507.43	0.636
507.63	0.637
507.83	0.637
508.03	0.637
508.23	0.636
508.43	0.635
508.63	0.636
508.83	0.636
509.03	0.638
509.23	0.636
509.43	0.638
509.63	0.638
509.83	0.637
510.03	0.639
510.23	0.640
510.43	0.641
510.63	0.641
510.83	0.641
511.03	0.643
511.23	0.640
511.43	0.639
511.63	0.641
511.83	0.643
512.03	0.643
512.22	0.640
512.42	0.640
512.62	0.641
512.82	0.640
513.02	0.639
513.22	0.639
513.42	0.641
513.62	0.644
513.82	0.642
514.02	0.641
514.22	0.643
514.42	0.643
514.62	0.643
514.82	0.643
515.02	0.645
515.22	0.649
515.42	0.647
515.62	0.649
515.82	0.649
516.02	0.650
516.22	0.649
516.42	0.651
516.62	0.653
516.82	0.654
517.01	0.652
517.21	0.651
517.41	0.654
517.61	0.655
517.81	0.651
518.01	0.650
518.21	0.650
518.41	0.649
518.61	0.647
518.81	0.648
519.01	0.648
519.21	0.648
519.41	0.647
519.61	0.642
519.81	0.644
520.00	0.645
520.20	0.646
520.40	0.649
520.60	0.650
520.80	0.649
521.00	0.650
521.20	0.651
521.40	0.655
521.60	0.656
521.80	0.655
522.00	0.654
522.20	0.657
522.39	0.655
522.59	0.652
522.79	0.653
522.99	0.656
523.19	0.654
523.39	0.652
523.59	0.650
523.79	0.653
523.99	0.656
524.19	0.655
524.38	0.654
524.58	0.656
524.78	0.656
524.98	0.655
525.18	0.656
525.38	0.658
525.58	0.659
525.78	0.656
525.98	0.654
526.18	0.655
526.37	0.654
526.57	0.655
526.77	0.654
526.97	0.655
527.17	0.655
527.37	0.652
527.57	0.654
527.77	0.656
527.96	0.656
528.16	0.655
528.36	0.655
528.56	0.658
528.76	0.655
528.96	0.654
529.16	0.655
529.36	0.658
529.55	0.658
529.75	0.655
529.95	0.655
530.15	0.657
530.35	0.660
530.55	0.657
530.75	0.658
530.94	0.660
531.14	0.660
531.34	0.659
531.54	0.656
531.74	0.660
531.94	0.663
532.13	0.661
532.33	0.662
532.53	0.661
532.73	0.660
532.93	0.658
533.13	0.659
533.33	0.658
533.52	0.659
533.72	0.662
533.92	0.660
534.12	0.658
534.32	0.659
534.52	0.657
534.71	0.659
534.91	0.662
535.11	0.664
535.31	0.662
535.51	0.665
535.71	0.666
535.90	0.663
536.10	0.664
536.30	0.666
536.50	0.667
536.70	0.667
536.89	0.664
537.09	0.663
537.29	0.664
537.49	0.665
537.69	0.663
537.89	0.664
538.08	0.663
538.28	0.661
538.48	0.662
538.68	0.664
538.88	0.665
539.07	0.665
539.27	0.663
539.47	0.663
539.67	0.664
539.87	0.665
540.06	0.662
540.26	0.664
540.46	0.666
540.66	0.664
540.86	0.661
541.05	0.662
541.25	0.663
541.45	0.664
541.65	0.662
541.84	0.663
542.04	0.664
542.24	0.665
542.44	0.664
542.64	0.665
542.83	0.668
543.03	0.669
543.23	0.666
543.43	0.667
543.62	0.669
543.82	0.669
544.02	0.667
544.22	0.667
544.42	0.671
544.61	0.671
544.81	0.667
545.01	0.666
545.21	0.668
545.40	0.668
545.60	0.666
545.80	0.670
546.00	0.671
546.19	0.670
546.39	0.669
546.59	0.667
546.79	0.668
546.98	0.669
547.18	0.669
547.38	0.669
547.58	0.672
547.77	0.672
547.97	0.668
548.17	0.669
548.37	0.669
548.56	0.669
548.76	0.668
548.96	0.670
549.16	0.672
549.35	0.672
549.55	0.670
549.75	0.670
549.95	0.674
550.14	0.674
550.34	0.672
550.54	0.677
550.73	0.682
550.93	0.682
551.13	0.678
551.33	0.677
551.52	0.677
551.72	0.678
551.92	0.677
552.12	0.677
552.31	0.678
552.51	0.677
552.71	0.673
552.90	0.673
553.10	0.673
553.30	0.674
553.50	0.674
553.69	0.676
553.89	0.677
554.09	0.676
554.28	0.673
554.48	0.674
554.68	0.677
554.87	0.676
555.07	0.673
555.27	0.673
555.47	0.674
555.66	0.675
555.86	0.673
556.06	0.675
556.25	0.676
556.45	0.684
556.65	0.682
556.84	0.685
557.04	0.688
557.24	0.690
557.43	0.689
557.63	0.692
557.83	0.694
558.02	0.694
558.22	0.698
558.42	0.699
558.61	0.691
558.81	0.691
559.01	0.687
559.21	0.687
559.40	0.688
559.60	0.688
559.80	0.685
559.99	0.686
560.19	0.689
560.39	0.683
560.58	0.681
560.78	0.681
560.97	0.685
561.17	0.684
561.37	0.682
561.56	0.682
561.76	0.684
561.96	0.683
562.15	0.680
562.35	0.682
562.55	0.684
562.74	0.683
562.94	0.682
563.14	0.680
563.33	0.680
563.53	0.680
563.73	0.677
563.92	0.679
564.12	0.682
564.31	0.684
564.51	0.682
564.71	0.684
564.90	0.686
565.10	0.687
565.30	0.690
565.49	0.691
565.69	0.694
565.89	0.694
566.08	0.691
566.28	0.693
566.47	0.695
566.67	0.693
566.87	0.690
567.06	0.692
567.26	0.698
567.46	0.693
567.65	0.692
567.85	0.694
568.04	0.697
568.24	0.696
568.44	0.693
568.63	0.691
568.83	0.693
569.02	0.692
569.22	0.687
569.42	0.684
569.61	0.686
569.81	0.685
570.00	0.682
570.20	0.684
570.40	0.685
570.59	0.685
570.79	0.683
570.98	0.682
571.18	0.683
571.38	0.683
571.57	0.680
571.77	0.678
571.96	0.682
572.16	0.679
572.35	0.674
572.55	0.675
572.75	0.673
572.94	0.673
573.14	0.671
573.33	0.671
573.53	0.671
573.73	0.671
573.92	0.669
574.12	0.666
574.31	0.669
574.51	0.670
574.70	0.667
574.90	0.669
575.09	0.671
575.29	0.671
575.49	0.669
575.68	0.670
575.88	0.671
576.07	0.673
576.27	0.671
576.46	0.670
576.66	0.668
576.86	0.667
577.05	0.665
577.25	0.663
577.44	0.665
577.64	0.665
577.83	0.662
578.03	0.663
578.22	0.663
578.42	0.662
578.61	0.660
578.81	0.662
579.00	0.662
579.20	0.662
579.40	0.661
579.59	0.659
579.79	0.660
579.98	0.660
580.18	0.659
580.37	0.659
580.57	0.662
580.76	0.666
580.96	0.665
581.15	0.666
581.35	0.667
581.54	0.667
581.74	0.666
581.93	0.668
582.13	0.669
582.32	0.666
582.52	0.664
582.71	0.663
582.91	0.659
583.10	0.658
583.30	0.657
583.49	0.656
583.69	0.660
583.88	0.661
584.08	0.660
584.27	0.663
584.47	0.667
584.66	0.667
584.86	0.666
585.05	0.668
585.25	0.670
585.44	0.671
585.64	0.669
585.83	0.666
586.03	0.666
586.22	0.664
586.42	0.660
586.61	0.662
586.81	0.664
587.00	0.664
587.20	0.661
587.39	0.662
587.59	0.664
587.78	0.664
587.98	0.666
588.17	0.666
588.37	0.669
588.56	0.671
588.76	0.667
588.95	0.667
589.15	0.671
589.34	0.674
589.54	0.673
589.73	0.673
589.92	0.677
590.12	0.677
590.31	0.674
590.51	0.680
590.70	0.681
590.90	0.682
591.09	0.680
591.29	0.678
591.48	0.678
591.68	0.679
591.87	0.677
592.06	0.677
592.26	0.679
592.45	0.678
592.65	0.672
592.84	0.672
593.04	0.674
593.23	0.676
593.43	0.674
593.62	0.673
593.81	0.673
594.01	0.673
594.20	0.670
594.40	0.668
594.59	0.670
594.79	0.671
594.98	0.670
595.17	0.668
595.37	0.669
595.56	0.671
595.76	0.670
595.95	0.672
596.14	0.676
596.34	0.678
596.53	0.676
596.73	0.677
596.92	0.679
597.12	0.681
597.31	0.681
597.50	0.681
597.70	0.684
597.89	0.684
598.09	0.680
598.28	0.681
598.47	0.683
598.67	0.682
598.86	0.678
599.06	0.680
599.25	0.680
599.44	0.678
599.64	0.675
599.83	0.672
600.03	0.675
600.22	0.676
600.41	0.676
600.61	0.673
600.80	0.676
601.00	0.676
601.19	0.672
601.38	0.670
601.58	0.673
601.77	0.675
601.96	0.677
602.16	0.677
602.35	0.685
602.55	0.682
602.74	0.683
602.93	0.684
603.13	0.689
603.32	0.690
603.51	0.689
603.71	0.692
603.90	0.694
604.09	0.695
604.29	0.692
604.48	0.686
604.68	0.688
604.87	0.686
605.06	0.683
605.26	0.680
605.45	0.681
605.64	0.681
605.84	0.676
606.03	0.675
606.22	0.674
606.42	0.673
606.61	0.670
606.80	0.670
607.00	0.672
607.19	0.673
607.38	0.671
607.58	0.672
607.77	0.675
607.96	0.674
608.16	0.673
608.35	0.677
608.54	0.680
608.74	0.684
608.93	0.688
609.12	0.691
609.32	0.693
609.51	0.696
609.70	0.695
609.90	0.698
610.09	0.702
610.28	0.708
610.48	0.701
610.67	0.702
610.86	0.704
611.06	0.698
611.25	0.696
611.44	0.697
611.64	0.697
611.83	0.700
612.02	0.695
612.21	0.694
612.41	0.692
612.60	0.691
612.79	0.688
612.99	0.687
613.18	0.690
613.37	0.687
613.57	0.684
613.76	0.686
613.95	0.683
614.14	0.683
614.34	0.680
614.53	0.681
614.72	0.684
614.92	0.684
615.11	0.681
615.30	0.678
615.49	0.679
615.69	0.682
615.88	0.679
616.07	0.681
616.26	0.683
616.46	0.685
616.65	0.682
616.84	0.681
617.04	0.682
617.23	0.686
617.42	0.686
617.61	0.689
617.81	0.690
618.00	0.692
618.19	0.689
618.38	0.692
618.58	0.695
618.77	0.697
618.96	0.696
619.15	0.698
619.35	0.700
619.54	0.701
619.73	0.697
619.92	0.698
620.12	0.702
620.31	0.703
620.50	0.698
620.69	0.698
620.89	0.702
621.08	0.701
621.27	0.701
621.46	0.700
621.66	0.703
621.85	0.703
622.04	0.699
622.23	0.700
622.43	0.701
622.62	0.701
622.81	0.699
623.00	0.699
623.19	0.703
623.39	0.702
623.58	0.699
623.77	0.697
623.96	0.701
624.16	0.701
624.35	0.696
624.54	0.699
624.73	0.703
624.92	0.702
625.12	0.699
625.31	0.700
625.50	0.703
625.69	0.704
625.88	0.700
626.08	0.699
626.27	0.700
626.46	0.700
626.65	0.697
626.84	0.697
627.04	0.702
627.23	0.702
627.42	0.697
627.61	0.699
627.80	0.702
628.00	0.701
628.19	0.700
628.38	0.704
628.57	0.707
628.76	0.707
628.96	0.703
629.15	0.703
629.34	0.706
629.53	0.707
629.72	0.702
629.91	0.702
630.11	0.708
630.30	0.708
630.49	0.711
630.68	0.712
630.87	0.715
631.06	0.718
631.26	0.713
631.45	0.714
631.64	0.722
631.83	0.724
632.02	0.720
632.21	0.718
632.41	0.725
632.60	0.719
632.79	0.717
632.98	0.717
633.17	0.718
633.36	0.719
633.55	0.716
633.75	0.712
633.94	0.713
634.13	0.715
634.32	0.712
634.51	0.706
634.70	0.709
634.89	0.709
635.09	0.705
635.28	0.705
635.47	0.706
635.66	0.710
635.85	0.706
636.04	0.707
636.23	0.711
636.43	0.714
636.62	0.712
636.81	0.710
637.00	0.713
637.19	0.716
637.38	0.713
637.57	0.713
637.76	0.714
637.95	0.715
638.15	0.711
638.34	0.709
638.53	0.712
638.72	0.714
638.91	0.712
639.10	0.710
639.29	0.710
639.48	0.712
639.67	0.713
639.87	0.712
640.06	0.717
640.25	0.718
640.44	0.718
640.63	0.718
640.82	0.720
641.01	0.720
641.20	0.720
641.39	0.721
641.58	0.723
641.78	0.721
641.97	0.716
642.16	0.730
642.35	0.731
642.54	0.729
642.73	0.723
642.92	0.722
643.11	0.725
643.30	0.726
643.49	0.720
643.68	0.723
643.87	0.725
644.06	0.726
644.25	0.706
644.45	0.708
644.64	0.709
644.83	0.710
645.02	0.707
645.21	0.706
645.40	0.707
645.59	0.707
645.78	0.700
645.97	0.702
646.16	0.703
646.35	0.702
646.54	0.700
646.73	0.701
646.92	0.703
647.11	0.702
647.30	0.698
647.49	0.699
647.68	0.698
647.88	0.697
648.07	0.691
648.26	0.694
648.45	0.697
648.64	0.694
648.83	0.691
649.02	0.693
649.21	0.703
649.40	0.702
649.59	0.697
649.78	0.699
649.97	0.715
650.16	0.714
650.35	0.707
650.54	0.709
650.73	0.717
650.92	0.715
651.11	0.709
651.30	0.706
651.49	0.710
651.68	0.711
651.87	0.707
652.06	0.695
652.25	0.699
652.44	0.701
652.63	0.699
652.82	0.698
653.01	0.699
653.20	0.696
653.39	0.685
653.58	0.683
653.77	0.682
653.96	0.678
654.15	0.670
654.34	0.668
654.53	0.664
654.72	0.658
654.91	0.649
655.10	0.645
655.29	0.644
655.48	0.642
655.67	0.636
655.86	0.634
656.05	0.632
656.24	0.632
656.43	0.627
656.62	0.626
656.81	0.626
657.00	0.624
657.19	0.621
657.38	0.620
657.57	0.620
657.76	0.623
657.95	0.620
658.14	0.623
658.33	0.627
658.51	0.632
658.70	0.632
658.89	0.634
659.08	0.643
659.27	0.650
659.46	0.650
659.65	0.657
659.84	0.660
660.03	0.663
660.22	0.664
660.41	0.667
660.60	0.666
660.79	0.668
660.98	0.673
661.17	0.673
661.36	0.672
661.55	0.674
661.74	0.671
661.92	0.674
662.11	0.677
662.30	0.676
662.49	0.670
662.68	0.669
662.87	0.673
663.06	0.668
663.25	0.668
663.44	0.668
663.63	0.669
663.82	0.668
664.01	0.663
664.20	0.661
664.38	0.662
664.57	0.663
664.76	0.662
664.95	0.662
665.14	0.666
665.33	0.661
665.52	0.668
665.71	0.672
665.90	0.672
666.09	0.673
666.28	0.671
666.46	0.670
666.65	0.670
666.84	0.669
667.03	0.663
667.22	0.660
667.41	0.663
667.60	0.654
667.79	0.647
667.98	0.648
668.16	0.649
668.35	0.648
668.54	0.643
668.73	0.645
668.92	0.645
669.11	0.645
669.30	0.639
669.49	0.636
669.67	0.638
669.86	0.640
670.05	0.638
670.24	0.636
670.43	0.634
670.62	0.633
670.81	0.629
671.00	0.629
671.18	0.629
671.37	0.629
671.56	0.627
671.75	0.625
671.94	0.622
672.13	0.620
672.32	0.616
672.50	0.615
672.69	0.615
672.88	0.616
673.07	0.611
673.26	0.613
673.45	0.614
673.63	0.614
673.82	0.609
674.01	0.611
674.20	0.611
674.39	0.610
674.58	0.609
674.76	0.608
674.95	0.607
675.14	0.607
675.33	0.602
675.52	0.601
675.71	0.601
675.89	0.600
676.08	0.596
676.27	0.596
676.46	0.596
676.65	0.596
676.84	0.596
677.02	0.598
677.21	0.600
677.40	0.599
677.59	0.596
677.78	0.597
677.96	0.601
678.15	0.601
678.34	0.598
678.53	0.600
678.72	0.599
678.90	0.596
679.09	0.592
679.28	0.588
679.47	0.588
679.66	0.588
679.84	0.584
680.03	0.581
680.22	0.580
680.41	0.582
680.60	0.578
680.78	0.577
680.97	0.580
681.16	0.580
681.35	0.579
681.53	0.578
681.72	0.579
681.91	0.580
682.10	0.578
682.29	0.581
682.47	0.578
682.66	0.578
682.85	0.576
683.04	0.574
683.22	0.574
683.41	0.575
683.60	0.574
683.79	0.575
683.97	0.575
684.16	0.574
684.35	0.571
684.54	0.572
684.72	0.573
684.91	0.573
685.10	0.571
685.29	0.572
685.47	0.570
685.66	0.569
685.85	0.566
686.04	0.565
686.22	0.567
686.41	0.570
686.60	0.566
686.79	0.569
686.97	0.570
687.16	0.573
687.35	0.571
687.54	0.574
687.72	0.577
687.91	0.576
688.10	0.578
688.29	0.578
688.47	0.577
688.66	0.577
688.85	0.573
689.03	0.571
689.22	0.575
689.41	0.575
689.60	0.570
689.78	0.568
689.97	0.569
690.16	0.566
690.34	0.562
690.53	0.562
690.72	0.562
690.91	0.560
691.09	0.557
691.28	0.552
691.47	0.549
691.65	0.548
691.84	0.545
692.03	0.543
692.21	0.541
692.40	0.541
692.59	0.538
692.77	0.537
692.96	0.538
693.15	0.539
693.34	0.537
693.52	0.538
693.71	0.539
693.90	0.540
694.08	0.541
694.27	0.543
694.46	0.552
694.64	0.553
694.83	0.553
695.02	0.552
695.20	0.552
695.39	0.552
695.58	0.552
695.76	0.552
695.95	0.551
696.14	0.550
696.32	0.548
696.51	0.539
696.70	0.539
696.88	0.540
697.07	0.539
697.26	0.540
697.44	0.541
697.63	0.539
697.81	0.537
698.00	0.537
698.19	0.536
698.37	0.536
698.56	0.536
698.75	0.535
698.93	0.535
699.12	0.534
699.31	0.532
699.49	0.532
699.68	0.533
699.87	0.535
700.05	0.535
700.24	0.535
700.42	0.536
700.61	0.535
700.80	0.533
700.98	0.534
701.17	0.536
701.36	0.534
701.54	0.534
701.73	0.536
701.91	0.533
702.10	0.532
702.29	0.531
702.47	0.530
702.66	0.531
702.84	0.533
703.03	0.531
703.22	0.532
703.40	0.533
703.59	0.534
703.77	0.533
703.96	0.533
704.15	0.534
704.33	0.534
704.52	0.533
704.70	0.532
704.89	0.532
705.08	0.531
705.26	0.527
705.45	0.526
705.63	0.526
705.82	0.523
706.00	0.521
706.19	0.521
706.38	0.521
706.56	0.521
706.75	0.519
706.93	0.518
707.12	0.519
707.30	0.520
707.49	0.517
707.68	0.515
707.86	0.514
708.05	0.514
708.23	0.512
708.42	0.511
708.60	0.514
708.79	0.514
708.98	0.512
709.16	0.511
709.35	0.513
709.53	0.517
709.72	0.516
709.90	0.518
710.09	0.519
710.27	0.521
710.46	0.525
710.64	0.523
710.83	0.524
711.02	0.526
711.20	0.524
711.39	0.523
711.57	0.521
711.76	0.522
711.94	0.520
712.13	0.522
712.31	0.522
712.50	0.518
712.68	0.516
712.87	0.517
713.05	0.517
713.24	0.517
713.42	0.516
713.61	0.517
713.79	0.517
713.98	0.517
714.16	0.518
714.35	0.518
714.54	0.519
714.72	0.519
714.91	0.517
715.09	0.523
715.28	0.527
715.46	0.527
715.65	0.524
715.83	0.524
716.02	0.527
716.20	0.524
716.39	0.523
716.57	0.524
716.76	0.525
716.94	0.525
717.12	0.517
717.31	0.519
717.49	0.522
717.68	0.524
717.86	0.523
718.05	0.525
718.23	0.527
718.42	0.530
718.60	0.530
718.79	0.538
718.97	0.541
719.16	0.542
719.34	0.539
719.53	0.539
719.71	0.539
719.90	0.540
720.08	0.537
720.27	0.537
720.45	0.537
720.63	0.536
720.82	0.529
721.00	0.532
721.19	0.535
721.37	0.534
721.56	0.533
721.74	0.536
721.93	0.545
722.11	0.552
722.30	0.551
722.48	0.556
722.66	0.557
722.85	0.557
723.03	0.557
723.22	0.556
723.40	0.559
723.59	0.559
723.77	0.563
723.95	0.556
724.14	0.558
724.32	0.559
724.51	0.558
724.69	0.561
724.88	0.561
725.06	0.560
725.24	0.561
725.43	0.563
725.61	0.566
725.80	0.561
725.98	0.558
726.16	0.555
726.35	0.560
726.53	0.558
726.72	0.556
726.90	0.566
727.09	0.567
727.27	0.572
727.45	0.568
727.64	0.576
727.82	0.584
728.01	0.588
728.19	0.587
728.37	0.592
728.56	0.598
728.74	0.604
728.92	0.592
729.11	0.595
729.29	0.594
729.48	0.596
729.66	0.587
729.84	0.586
730.03	0.589
730.21	0.590
730.40	0.580
730.58	0.581
730.76	0.580
730.95	0.582
731.13	0.582
731.31	0.594
731.50	0.605
731.68	0.609
731.86	0.605
732.05	0.620
732.23	0.623
732.42	0.626
732.60	0.630
732.78	0.636
732.97	0.654
733.15	0.660
733.33	0.647
733.52	0.652
733.70	0.662
733.88	0.669
734.07	0.654
734.25	0.680
734.43	0.689
734.62	0.690
734.80	0.685
734.98	0.676
735.17	0.682
735.35	0.689
735.53	0.679
735.72	0.683
735.90	0.706
736.08	0.724
736.27	0.700
736.45	0.709
736.63	0.722
736.82	0.731
737.00	0.731
737.18	0.742
737.37	0.774
737.55	0.794
737.73	0.786
737.92	0.787
738.10	0.785
738.28	0.807
738.46	0.795
738.65	0.807
738.83	0.825
739.01	0.878
739.20	0.867
739.38	0.848
739.56	0.839
739.75	0.842
739.93	0.810
740.11	0.832
740.29	0.828
740.48	0.837
740.66	0.814
740.84	0.812
741.03	0.778
741.21	0.790
741.39	0.773
741.57	0.787
741.76	0.801
741.94	0.806
742.12	0.772
742.31	0.780
742.49	0.797
742.67	0.820
742.85	0.832
743.04	0.830
743.22	0.839
743.40	0.891
743.58	0.871
743.77	0.893
743.95	0.927
744.13	0.978
744.31	0.962
744.50	0.953
744.68	0.956
744.86	0.931
745.04	0.949
745.23	1.012
745.41	0.995
745.59	1.007
745.77	0.965
745.96	0.958
746.14	0.968
746.32	0.963
746.50	0.956
746.69	0.936
746.87	0.948
747.05	0.932
747.23	0.858
747.42	0.837
747.60	0.862
747.78	0.868
747.96	0.891
748.14	0.847
748.33	0.873
748.51	0.868
748.69	0.860
748.87	0.884
749.06	0.882
749.24	0.878
749.42	0.870
749.60	0.850
749.78	0.860
749.97	0.822
750.15	0.815
750.33	0.815
750.51	0.841
750.69	0.846
750.88	0.850
751.06	0.861
751.24	0.891
751.42	0.881
751.60	0.875
751.79	0.942
751.97	0.981
752.15	0.985
752.33	0.954
752.51	1.009
752.69	1.024
752.88	0.990
753.06	1.029
753.24	1.005
753.42	1.041
753.60	1.194
753.78	1.058
753.97	1.081
754.15	1.093
754.33	1.123
754.51	1.010
754.69	1.000
754.87	1.032
755.06	0.961
755.24	0.963
755.42	0.970
755.60	0.880
755.78	0.889
755.96	0.836
756.15	0.837
756.33	0.841
756.51	0.859
756.69	0.847
756.87	0.812
757.05	0.833
757.23	0.815
757.42	0.783
757.60	0.779
757.78	0.770
757.96	0.767
758.14	0.750
758.32	0.736
758.50	0.748
758.69	0.746
758.87	0.738
759.05	0.742
759.23	0.751
759.41	0.753
759.59	0.746
759.77	0.765
759.95	0.788
760.13	0.833
760.32	0.832
760.50	0.824
760.68	0.849
760.86	0.854
761.04	0.827
761.22	0.834
761.40	0.879
761.58	0.879
761.76	0.853
761.95	0.841
762.13	0.802
762.31	0.799
762.49	0.771
762.67	0.786
762.85	0.797
763.03	0.794
763.21	0.773
763.39	0.756
763.57	0.756
763.75	0.751
763.94	0.734
764.12	0.734
764.30	0.758
764.48	0.761
764.66	0.725
764.84	0.723
765.02	0.760
765.20	0.766
765.38	0.744
765.56	0.750
765.74	0.791
765.92	0.794
766.10	0.798
766.28	0.791
766.46	0.818
766.65	0.818
766.83	0.807
767.01	0.791
767.19	0.802
767.37	0.805
767.55	0.793
767.73	0.772
767.91	0.775
768.09	0.765
768.27	0.756
768.45	0.746
768.63	0.752
768.81	0.752
768.99	0.728
769.17	0.749
769.35	0.763
769.53	0.762
769.71	0.744
769.89	0.753
770.07	0.759
770.25	0.741
770.43	0.722
770.61	0.747
770.79	0.753
770.97	0.762
771.15	0.733
771.33	0.734
771.51	0.736
771.69	0.747
771.87	0.755
772.05	0.760
772.24	0.768
772.42	0.777
772.60	0.754
772.78	0.811
772.96	0.839
773.14	0.833
773.32	0.812
773.49	0.817
773.67	0.813
773.85	0.793
774.03	0.783
774.21	0.814
774.39	0.823
774.57	0.844
774.75	0.777
774.93	0.769
775.11	0.792
775.29	0.799
775.47	0.799
775.65	0.809
775.83	0.823
776.01	0.844
776.19	0.798
776.37	0.800
776.55	0.801
776.73	0.793
776.91	0.791
777.09	0.774
777.27	0.775
777.45	0.766
777.63	0.742
777.81	0.739
777.99	0.727
778.17	0.730
778.35	0.706
778.53	0.695
778.71	0.703
778.89	0.689
779.07	0.679
779.24	0.682
779.42	0.681
779.60	0.701
779.78	0.696
779.96	0.702
780.14	0.708
780.32	0.730
780.50	0.715
780.68	0.713
780.86	0.707
781.04	0.722
781.22	0.729
781.40	0.742
781.58	0.732
781.75	0.726
781.93	0.708
782.11	0.707
782.29	0.693
782.47	0.692
782.65	0.682
782.83	0.710
783.01	0.704
783.19	0.694
783.37	0.679
783.55	0.682
783.72	0.700
783.90	0.711
784.08	0.704
784.26	0.715
784.44	0.736
784.62	0.739
784.80	0.706
784.98	0.712
785.16	0.720
785.33	0.734
785.51	0.721
785.69	0.707
785.87	0.704
786.05	0.715
786.23	0.711
786.41	0.706
786.59	0.714
786.77	0.715
786.94	0.703
787.12	0.705
787.30	0.707
787.48	0.704
787.66	0.690
787.84	0.694
788.02	0.683
788.19	0.682
788.37	0.668
788.55	0.668
788.73	0.668
788.91	0.663
789.09	0.649
789.27	0.638
789.44	0.648
789.62	0.655
789.80	0.660
789.98	0.686
790.16	0.674
790.34	0.673
790.51	0.660
790.69	0.679
790.87	0.684
791.05	0.679
791.23	0.674
791.41	0.676
791.58	0.683
791.76	0.665
791.94	0.634
792.12	0.642
792.30	0.643
792.48	0.641
792.65	0.634
792.83	0.642
793.01	0.649
793.19	0.649
793.37	0.633
793.54	0.630
793.72	0.640
793.90	0.638
794.08	0.628
794.26	0.629
794.43	0.640
794.61	0.623
794.79	0.609
794.97	0.608
795.15	0.612
795.32	0.617
795.50	0.605
795.68	0.600
795.86	0.605
796.04	0.607
796.21	0.601
796.39	0.598
796.57	0.614
796.75	0.624
796.92	0.626
797.10	0.630
797.28	0.631
797.46	0.634
797.64	0.635
797.81	0.643
797.99	0.646
798.17	0.651
798.35	0.645
798.52	0.647
798.70	0.641
798.88	0.649
799.06	0.649
799.23	0.653
799.41	0.662
799.59	0.656
799.77	0.644
799.94	0.653
800.12	0.661
800.30	0.678
800.48	0.678
800.65	0.678
800.83	0.667
801.01	0.659
801.19	0.657
801.36	0.652
801.54	0.657
801.72	0.669
801.90	0.656
802.07	0.651
802.25	0.638
802.43	0.622
802.60	0.618
802.78	0.624
802.96	0.630
803.14	0.625
803.31	0.625
803.49	0.624
803.67	0.619
803.84	0.623
804.02	0.616
804.20	0.619
804.38	0.625
804.55	0.624
804.73	0.609
804.91	0.609
805.08	0.621
805.26	0.617
805.44	0.679
805.61	0.682
805.79	0.681
805.97	0.679
806.15	0.670
806.32	0.665
806.50	0.672
806.68	0.674
806.85	0.665
807.03	0.655
807.21	0.671
807.38	0.605
807.56	0.596
807.74	0.606
807.91	0.612
808.09	0.614
808.27	0.632
808.44	0.657
808.62	0.666
808.80	0.669
808.97	0.665
809.15	0.660
809.33	0.679
809.50	0.687
809.68	0.674
809.86	0.680
810.03	0.715
810.21	0.695
810.39	0.676
810.56	0.680
810.74	0.702
810.91	0.771
811.09	0.759
811.27	0.778
811.44	0.781
811.62	0.783
811.80	0.768
811.97	0.737
812.15	0.736
812.33	0.733
812.50	0.719
812.68	0.707
812.85	0.654
813.03	0.657
813.21	0.624
813.38	0.619
813.56	0.621
813.74	0.630
813.91	0.637
814.09	0.663
814.26	0.656
814.44	0.658
814.62	0.648
814.79	0.651
814.97	0.656
815.14	0.661
815.32	0.665
815.50	0.682
815.67	0.685
815.85	0.676
816.02	0.668
816.20	0.676
816.38	0.694
816.55	0.699
816.73	0.698
816.90	0.708
817.08	0.737
817.26	0.743
817.43	0.722
817.61	0.745
817.78	0.764
817.96	0.744
818.13	0.734
818.31	0.730
818.49	0.745
818.66	0.736
818.84	0.723
819.01	0.706
819.19	0.711
819.36	0.715
819.54	0.688
819.71	0.729
819.89	0.741
820.07	0.755
820.24	0.750
820.42	0.750
820.59	0.768
820.77	0.793
820.94	0.781
821.12	0.798
821.29	0.811
821.47	0.810
821.64	0.747
821.82	0.762
822.00	0.758
822.17	0.756
822.35	0.748
822.52	0.752
822.70	0.741
822.87	0.748
823.05	0.727
823.22	0.740
823.40	0.766
823.57	0.785
823.75	0.766
823.92	0.793
824.10	0.812
824.27	0.851
824.45	0.836
824.62	0.895
824.80	0.916
824.97	0.933
825.15	0.916
825.32	0.929
825.50	0.931
825.67	0.942
825.85	0.919
826.02	0.933
826.20	0.954
826.37	1.083
826.55	1.000
826.72	1.188
826.90	1.251
827.07	1.298
827.25	1.240
827.42	1.407
827.60	1.578
827.77	1.758
827.95	1.725
828.12	1.856
828.30	1.412
828.47	1.537
828.65	1.173
828.82	1.219
829.00	1.279
829.17	1.346
829.34	1.326
829.52	1.315
829.69	-0.000
829.87	-0.000
830.04	-0.000
830.22	-0.000
830.39	-0.000
830.57	-0.000
830.74	-0.000
830.92	-0.000
831.09	-0.000
831.26	-0.000
831.44	-0.000
831.61	-0.000
831.79	-0.000
831.96	-0.000
832.14	-0.000
832.31	-0.000
832.49	-0.000
832.66	-0.000
832.83	-0.000
833.01	-0.000
833.18	-0.000
833.36	-0.000
833.53	-0.000
833.70	-0.000
833.88	-0.000
834.05	-0.000
834.23	-0.000
834.40	-0.000
834.58	-0.000
834.75	-0.000
834.92	-0.000
835.10	-0.000
835.27	-0.000
835.45	-0.000
835.62	-0.000
835.79	-0.000
835.97	-0.000
836.14	-0.000
836.32	-0.000
836.49	-0.000
836.66	-0.000
836.84	-0.000
837.01	-0.000
837.18	-0.000
837.36	-0.000
837.53	-0.000
837.71	-0.000
837.88	-0.000
838.05	-0.000
838.23	-0.000
838.40	-0.000
838.58	-0.000
838.75	-0.000
838.92	-0.000
839.10	-0.000
839.27	-0.000
839.44	-0.000
839.62	-0.000
839.79	-0.000
839.96	-0.000
840.14	-0.000
840.31	-0.000
840.48	-0.000
840.66	-0.000
840.83	-0.000
841.01	-0.000
841.18	-0.000
841.35	-0.000
841.53	-0.000
841.70	-0.000
841.87	-0.000
842.05	-0.000
842.22	-0.000
842.39	-0.000
842.57	-0.000
842.74	-0.000
842.91	-0.000
843.09	-0.000
843.26	-0.000
843.43	-0.000
843.60	-0.000
843.78	-0.000
843.95	-0.000
844.12	-0.000
844.30	-0.000
844.47	-0.000
844.64	-0.000
844.82	-0.000
844.99	-0.000
845.16	-0.000
845.34	-0.000
845.51	-0.000
845.68	-0.000
845.85	-0.000
846.03	-0.000
846.20	-0.000
846.37	-0.000
846.55	-0.000
846.72	-0.000
846.89	-0.000
847.06	-0.000
847.24	-0.000
847.41	-0.000
847.58	-0.000
847.76	-0.000
847.93	-0.000
848.10	-0.000
848.27	-0.000
848.45	-0.000
848.62	-0.000
848.79	-0.000
848.97	-0.000
849.14	-0.000
849.31	-0.000
849.48	-0.000
849.66	-0.000
849.83	-0.000
850.00	-0.000
850.17	-0.000
850.35	-0.000
850.52	-0.000
850.69	-0.000
850.86	-0.000
851.04	-0.000
851.21	-0.000
851.38	-0.000
851.55	-0.000
851.72	-0.000
851.90	-0.000
852.07	-0.000
852.24	-0.000
852.41	-0.000
852.59	-0.000
852.76	-0.000
852.93	-0.000
853.10	-0.000
853.28	-0.000
853.45	-0.000
853.62	-0.000
853.79	-0.000
853.96	-0.000
854.14	-0.000
854.31	-0.000
854.48	-0.000
854.65	-0.000
854.82	-0.000
855.00	-0.000
855.17	-0.000
855.34	-0.000
855.51	-0.000
855.68	-0.000
855.86	-0.000
856.03	-0.000
856.20	-0.000
856.37	-0.000
856.54	-0.000
856.72	-0.000
856.89	-0.000
857.06	-0.000
857.23	-0.000
857.40	-0.000
857.57	-0.000
857.75	-0.000
857.92	-0.000
858.09	-0.000
858.26	-0.000
858.43	-0.000
858.60	-0.000
858.78	-0.000
858.95	-0.000
859.12	-0.000
859.29	-0.000
859.46	-0.000
859.63	-0.000
859.81	-0.000
859.98	-0.000
860.15	-0.000
860.32	-0.000
860.49	-0.000
860.66	-0.000
860.83	-0.000
861.01	-0.000
861.18	-0.000
861.35	-0.000
861.52	-0.000
861.69	-0.000
861.86	-0.000
862.03	-0.000
862.21	-0.000
862.38	-0.000
862.55	-0.000
862.72	-0.000
862.89	-0.000
863.06	-0.000
863.23	-0.000
863.40	-0.000
863.58	-0.000
863.75	-0.000
863.92	-0.000
864.09	-0.000
864.26	-0.000
864.43	-0.000
864.60	-0.000
864.77	-0.000
864.94	-0.000
865.11	-0.000
865.29	-0.000
865.46	-0.000
865.63	-0.000
865.80	-0.000
865.97	-0.000
866.14	-0.000
866.31	-0.000
866.48	-0.000
866.65	-0.000
866.82	-0.000
866.99	-0.000
867.16	-0.000
867.34	-0.000
867.51	-0.000
867.68	-0.000
867.85	-0.000
868.02	-0.000
868.19	-0.000
868.36	-0.000
868.53	-0.000
868.70	-0.000
868.87	-0.000
869.04	-0.000
869.21	-0.000
869.38	-0.000
869.55	-0.000
869.72	-0.000
869.89	-0.000
870.06	-0.000
870.24	-0.000
870.41	-0.000
870.58	-0.000
870.75	-0.000
870.92	-0.000
871.09	-0.000
871.26	-0.000
871.43	-0.000
871.60	-0.000
871.77	-0.000
871.94	-0.000
872.11	-0.000
872.28	-0.000
872.45	-0.000
872.62	-0.000
872.79	-0.000
872.96	-0.000
873.13	-0.000
873.30	-0.000
873.47	-0.000
873.64	-0.000
873.81	-0.000
873.98	-0.000
874.15	-0.000
874.32	-0.000
874.49	-0.000
874.66	-0.000
874.83	-0.000
875.00	-0.000
875.17	-0.000
875.34	-0.000
875.51	-0.000
875.68	-0.000
875.85	-0.000
876.02	-0.000
876.19	-0.000
876.36	-0.000
876.53	-0.000
876.70	-0.000
876.87	-0.000
877.04	-0.000
877.21	-0.000
877.38	-0.000
877.55	-0.000
877.72	-0.000
877.89	-0.000
878.06	-0.000
878.23	-0.000
878.39	-0.000
878.56	-0.000
878.73	-0.000
878.90	-0.000
879.07	-0.000
879.24	-0.000
879.41	-0.000
879.58	-0.000
879.75	-0.000
879.92	-0.000
880.09	-0.000
880.26	-0.000
880.43	-0.000
880.60	-0.000
880.77	-0.000
880.94	-0.000
881.11	-0.000
881.27	-0.000
881.44	-0.000
881.61	-0.000
881.78	-0.000
881.95	-0.000
882.12	-0.000
882.29	-0.000
882.46	-0.000
882.63	-0.000
882.80	-0.000
882.97	-0.000
883.14	-0.000
883.30	-0.000
883.47	-0.000
883.64	-0.000
883.81	-0.000
883.98	-0.000
884.15	-0.000
884.32	-0.000
884.49	-0.000
884.66	-0.000
884.82	-0.000
884.99	-0.000
885.16	-0.000
885.33	-0.000
885.50	-0.000
885.67	-0.000
885.84	-0.000
886.01	-0.000
886.17	-0.000
886.34	-0.000
886.51	-0.000
886.68	-0.000
886.85	-0.000
887.02	-0.000
887.19	-0.000
887.36	-0.000
887.52	-0.000
887.69	-0.000
887.86	-0.000
888.03	-0.000
888.20	-0.000
888.37	-0.000
888.54	-0.000
888.70	-0.000
888.87	-0.000
889.04	-0.000
889.21	-0.000
889.38	-0.000
889.55	-0.000
889.71	-0.000
889.88	-0.000
890.05	-0.000
890.22	-0.000
890.39	-0.000
>>>>>End Processed Spectral Data<<<<<
