SpectraSuite Data File
++++++++++++++++++++++++++++++++++++
Date: Fri Jun 19 14:53:48 CEST 2015
User: introlabs
Dark Spectrum Present: Yes
Reference Spectrum Present: Yes
Number of Sampled Component Spectra: 1
Spectrometers: USB4H08886
Integration Time (usec): 745692 (USB4H08886)
Spectra Averaged: 5 (USB4H08886)
Boxcar Smoothing: 5 (USB4H08886)
Correct for Electrical Dark: Yes (USB4H08886)
Strobe/Lamp Enabled: No (USB4H08886)
Correct for Detector Non-linearity: Yes (USB4H08886)
Correct for Stray Light: Yes (USB4H08886)
Number of Pixels in Processed Spectrum: 3648
>>>>>Begin Processed Spectral Data<<<<<
178.14	-0.000
178.36	-0.000
178.57	-0.000
178.79	-0.000
179.01	-0.000
179.22	-0.000
179.44	-0.000
179.65	-0.000
179.87	-0.000
180.08	-0.000
180.30	-0.000
180.52	-0.000
180.73	-0.000
180.95	-0.000
181.16	-0.000
181.38	-0.000
181.59	-0.000
181.81	-0.000
182.03	-0.000
182.24	-0.000
182.46	-0.000
182.67	-0.000
182.89	-0.000
183.10	-0.000
183.32	-0.000
183.54	-0.000
183.75	-0.000
183.97	-0.000
184.18	-0.000
184.40	-0.000
184.61	-0.000
184.83	-0.000
185.04	-0.000
185.26	-0.000
185.48	-0.000
185.69	-0.000
185.91	-0.000
186.12	-0.000
186.34	-0.000
186.55	-0.000
186.77	-0.000
186.98	-0.000
187.20	-0.000
187.42	-0.000
187.63	-0.000
187.85	-0.000
188.06	-0.000
188.28	-0.000
188.49	-0.000
188.71	-0.000
188.92	-0.000
189.14	-0.000
189.36	-0.000
189.57	-0.000
189.79	-0.000
190.00	-0.000
190.22	-0.000
190.43	-0.000
190.65	-0.000
190.86	-0.000
191.08	-0.000
191.29	-0.000
191.51	-0.000
191.72	-0.000
191.94	-0.000
192.16	-0.000
192.37	-0.000
192.59	-0.000
192.80	-0.000
193.02	-0.000
193.23	-0.000
193.45	-0.000
193.66	-0.000
193.88	-0.000
194.09	-0.000
194.31	-0.000
194.52	-0.000
194.74	-0.000
194.95	-0.000
195.17	-0.000
195.38	-0.000
195.60	-0.000
195.81	-0.000
196.03	-0.000
196.25	-0.000
196.46	-0.000
196.68	-0.000
196.89	-0.000
197.11	-0.000
197.32	-0.000
197.54	-0.000
197.75	-0.000
197.97	-0.000
198.18	-0.000
198.40	-0.000
198.61	-0.000
198.83	-0.000
199.04	-0.000
199.26	-0.000
199.47	-0.000
199.69	-0.000
199.90	-0.000
200.12	-0.000
200.33	-0.000
200.55	-0.000
200.76	-0.000
200.98	-0.000
201.19	-0.000
201.41	-0.000
201.62	-0.000
201.84	-0.000
202.05	-0.000
202.27	-0.000
202.48	-0.000
202.70	-0.000
202.91	-0.000
203.13	-0.000
203.34	-0.000
203.56	-0.000
203.77	-0.000
203.99	-0.000
204.20	-0.000
204.42	-0.000
204.63	-0.000
204.85	-0.000
205.06	-0.000
205.28	-0.000
205.49	-0.000
205.71	-0.000
205.92	-0.000
206.14	-0.000
206.35	-0.000
206.56	-0.000
206.78	-0.000
206.99	-0.000
207.21	-0.000
207.42	-0.000
207.64	-0.000
207.85	-0.000
208.07	-0.000
208.28	-0.000
208.50	-0.000
208.71	-0.000
208.93	-0.000
209.14	-0.000
209.36	-0.000
209.57	-0.000
209.79	-0.000
210.00	-0.000
210.22	-0.000
210.43	-0.000
210.64	-0.000
210.86	-0.000
211.07	-0.000
211.29	-0.000
211.50	-0.000
211.72	-0.000
211.93	-0.000
212.15	-0.000
212.36	-0.000
212.58	-0.000
212.79	-0.000
213.01	-0.000
213.22	-0.000
213.43	-0.000
213.65	-0.000
213.86	-0.000
214.08	-0.000
214.29	-0.000
214.51	-0.000
214.72	-0.000
214.94	-0.000
215.15	-0.000
215.36	-0.000
215.58	-0.000
215.79	-0.000
216.01	-0.000
216.22	-0.000
216.44	-0.000
216.65	-0.000
216.87	-0.000
217.08	-0.000
217.29	-0.000
217.51	-0.000
217.72	-0.000
217.94	-0.000
218.15	-0.000
218.37	-0.000
218.58	-0.000
218.80	-0.000
219.01	-0.000
219.22	-0.000
219.44	-0.000
219.65	-0.000
219.87	-0.000
220.08	-0.000
220.30	-0.000
220.51	-0.000
220.72	-0.000
220.94	-0.000
221.15	-0.000
221.37	-0.000
221.58	-0.000
221.79	-0.000
222.01	-0.000
222.22	-0.000
222.44	-0.000
222.65	-0.000
222.87	-0.000
223.08	-0.000
223.29	-0.000
223.51	-0.000
223.72	-0.000
223.94	-0.000
224.15	-0.000
224.36	-0.000
224.58	-0.000
224.79	-0.000
225.01	-0.000
225.22	-0.000
225.44	-0.000
225.65	-0.000
225.86	-0.000
226.08	-0.000
226.29	-0.000
226.51	-0.000
226.72	-0.000
226.93	-0.000
227.15	-0.000
227.36	-0.000
227.58	-0.000
227.79	-0.000
228.00	-0.000
228.22	-0.000
228.43	-0.000
228.65	-0.000
228.86	-0.000
229.07	-0.000
229.29	-0.000
229.50	-0.000
229.72	-0.000
229.93	-0.000
230.14	-0.000
230.36	-0.000
230.57	-0.000
230.78	-0.000
231.00	-0.000
231.21	-0.000
231.43	-0.000
231.64	-0.000
231.85	-0.000
232.07	-0.000
232.28	-0.000
232.50	-0.000
232.71	-0.000
232.92	-0.000
233.14	-0.000
233.35	-0.000
233.56	-0.000
233.78	-0.000
233.99	-0.000
234.21	-0.000
234.42	-0.000
234.63	-0.000
234.85	-0.000
235.06	-0.000
235.27	-0.000
235.49	-0.000
235.70	-0.000
235.91	-0.000
236.13	-0.000
236.34	-0.000
236.56	-0.000
236.77	-0.000
236.98	-0.000
237.20	-0.000
237.41	-0.000
237.62	-0.000
237.84	-0.000
238.05	-0.000
238.26	-0.000
238.48	-0.000
238.69	-0.000
238.91	-0.000
239.12	-0.000
239.33	-0.000
239.55	-0.000
239.76	-0.000
239.97	-0.000
240.19	-0.000
240.40	-0.000
240.61	-0.000
240.83	-0.000
241.04	-0.000
241.25	-0.000
241.47	-0.000
241.68	-0.000
241.89	-0.000
242.11	-0.000
242.32	-0.000
242.53	-0.000
242.75	-0.000
242.96	-0.000
243.17	-0.000
243.39	-0.000
243.60	-0.000
243.81	-0.000
244.03	-0.000
244.24	-0.000
244.45	-0.000
244.67	-0.000
244.88	-0.000
245.09	-0.000
245.31	-0.000
245.52	-0.000
245.73	-0.000
245.95	-0.000
246.16	-0.000
246.37	-0.000
246.59	-0.000
246.80	-0.000
247.01	-0.000
247.23	-0.000
247.44	-0.000
247.65	-0.000
247.87	-0.000
248.08	-0.000
248.29	-0.000
248.51	-0.000
248.72	-0.000
248.93	-0.000
249.15	-0.000
249.36	-0.000
249.57	-0.000
249.78	-0.000
250.00	-0.000
250.21	-0.000
250.42	-0.000
250.64	-0.000
250.85	-0.000
251.06	-0.000
251.28	-0.000
251.49	-0.000
251.70	-0.000
251.92	-0.000
252.13	-0.000
252.34	-0.000
252.55	-0.000
252.77	-0.000
252.98	-0.000
253.19	-0.000
253.41	-0.000
253.62	-0.000
253.83	-0.000
254.05	-0.000
254.26	-0.000
254.47	-0.000
254.68	-0.000
254.90	-0.000
255.11	-0.000
255.32	-0.000
255.54	-0.000
255.75	-0.000
255.96	-0.000
256.17	-0.000
256.39	-0.000
256.60	-0.000
256.81	-0.000
257.03	-0.000
257.24	-0.000
257.45	-0.000
257.66	-0.000
257.88	-0.000
258.09	-0.000
258.30	-0.000
258.51	-0.000
258.73	-0.000
258.94	-0.000
259.15	-0.000
259.37	-0.000
259.58	-0.000
259.79	-0.000
260.00	-0.000
260.22	-0.000
260.43	-0.000
260.64	-0.000
260.85	-0.000
261.07	-0.000
261.28	-0.000
261.49	-0.000
261.71	-0.000
261.92	-0.000
262.13	-0.000
262.34	-0.000
262.56	-0.000
262.77	-0.000
262.98	-0.000
263.19	-0.000
263.41	-0.000
263.62	-0.000
263.83	-0.000
264.04	-0.000
264.26	-0.000
264.47	-0.000
264.68	-0.000
264.89	-0.000
265.11	-0.000
265.32	-0.000
265.53	-0.000
265.74	-0.000
265.96	-0.000
266.17	-0.000
266.38	-0.000
266.59	-0.000
266.81	-0.000
267.02	-0.000
267.23	-0.000
267.44	-0.000
267.65	-0.000
267.87	-0.000
268.08	-0.000
268.29	-0.000
268.50	-0.000
268.72	-0.000
268.93	-0.000
269.14	-0.000
269.35	-0.000
269.57	-0.000
269.78	-0.000
269.99	-0.000
270.20	-0.000
270.41	-0.000
270.63	-0.000
270.84	-0.000
271.05	-0.000
271.26	-0.000
271.48	-0.000
271.69	-0.000
271.90	-0.000
272.11	-0.000
272.32	-0.000
272.54	-0.000
272.75	-0.000
272.96	-0.000
273.17	-0.000
273.39	-0.000
273.60	-0.000
273.81	-0.000
274.02	-0.000
274.23	-0.000
274.45	-0.000
274.66	-0.000
274.87	-0.000
275.08	-0.000
275.29	-0.000
275.51	-0.000
275.72	-0.000
275.93	-0.000
276.14	-0.000
276.35	-0.000
276.57	-0.000
276.78	-0.000
276.99	-0.000
277.20	-0.000
277.41	-0.000
277.63	-0.000
277.84	-0.000
278.05	-0.000
278.26	-0.000
278.47	-0.000
278.69	-0.000
278.90	-0.000
279.11	-0.000
279.32	-0.000
279.53	-0.000
279.74	-0.000
279.96	-0.000
280.17	-0.000
280.38	-0.000
280.59	-0.000
280.80	-0.000
281.02	-0.000
281.23	-0.000
281.44	-0.000
281.65	-0.000
281.86	-0.000
282.07	-0.000
282.29	-0.000
282.50	-0.000
282.71	-0.000
282.92	-0.000
283.13	-0.000
283.35	-0.000
283.56	-0.000
283.77	-0.000
283.98	-0.000
284.19	-0.000
284.40	-0.000
284.62	-0.000
284.83	-0.000
285.04	-0.000
285.25	-0.000
285.46	-0.000
285.67	-0.000
285.88	-0.000
286.10	-0.000
286.31	-0.000
286.52	-0.000
286.73	-0.000
286.94	-0.000
287.15	-0.000
287.37	-0.000
287.58	-0.000
287.79	-0.000
288.00	-0.000
288.21	-0.000
288.42	-0.000
288.63	-0.000
288.85	-0.000
289.06	-0.000
289.27	-0.000
289.48	-0.000
289.69	-0.000
289.90	-0.000
290.11	-0.000
290.33	-0.000
290.54	-0.000
290.75	-0.000
290.96	-0.000
291.17	-0.000
291.38	-0.000
291.59	-0.000
291.81	-0.000
292.02	-0.000
292.23	-0.000
292.44	-0.000
292.65	-0.000
292.86	-0.000
293.07	-0.000
293.28	-0.000
293.50	-0.000
293.71	-0.000
293.92	-0.000
294.13	-0.000
294.34	-0.000
294.55	-0.000
294.76	-0.000
294.97	-0.000
295.19	-0.000
295.40	-0.000
295.61	-0.000
295.82	-0.000
296.03	-0.000
296.24	-0.000
296.45	2.365
296.66	1.862
296.87	1.903
297.09	1.965
297.30	2.244
297.51	1.764
297.72	1.725
297.93	1.829
298.14	1.786
298.35	1.733
298.56	1.714
298.77	1.865
298.99	1.835
299.20	1.811
299.41	1.812
299.62	1.748
299.83	1.748
300.04	1.677
300.25	1.662
300.46	1.709
300.67	1.675
300.88	1.615
301.10	1.617
301.31	1.705
301.52	1.629
301.73	1.562
301.94	1.566
302.15	1.578
302.36	1.524
302.57	1.458
302.78	1.466
302.99	1.514
303.20	1.537
303.41	1.434
303.63	1.411
303.84	1.417
304.05	1.409
304.26	1.347
304.47	1.352
304.68	1.354
304.89	1.346
305.10	1.307
305.31	1.290
305.52	1.335
305.73	1.331
305.94	1.291
306.15	1.286
306.37	1.314
306.58	1.326
306.79	1.296
307.00	1.322
307.21	1.368
307.42	1.361
307.63	1.325
307.84	1.286
308.05	1.325
308.26	1.329
308.47	1.304
308.68	1.298
308.89	1.294
309.10	1.293
309.31	1.248
309.52	1.235
309.73	1.250
309.95	1.244
310.16	1.213
310.37	1.200
310.58	1.218
310.79	1.213
311.00	1.209
311.21	1.210
311.42	1.211
311.63	1.206
311.84	1.188
312.05	1.185
312.26	1.207
312.47	1.223
312.68	1.199
312.89	1.181
313.10	1.186
313.31	1.158
313.52	1.163
313.73	1.163
313.94	1.167
314.15	1.149
314.36	1.128
314.57	1.119
314.78	1.106
314.99	1.100
315.21	1.089
315.42	1.095
315.63	1.109
315.84	1.084
316.05	1.071
316.26	1.080
316.47	1.098
316.68	1.096
316.89	1.080
317.10	1.101
317.31	1.108
317.52	1.107
317.73	1.086
317.94	1.085
318.15	1.130
318.36	1.129
318.57	1.111
318.78	1.097
318.99	1.129
319.20	1.126
319.41	1.090
319.62	1.091
319.83	1.107
320.04	1.102
320.25	1.088
320.46	1.053
320.67	1.055
320.88	1.051
321.09	1.037
321.30	1.022
321.51	1.036
321.72	1.034
321.93	1.016
322.14	1.009
322.35	1.034
322.56	1.035
322.77	1.024
322.98	1.036
323.19	1.045
323.40	1.052
323.61	1.032
323.82	1.026
324.03	1.032
324.24	1.030
324.45	1.016
324.66	0.999
324.87	0.994
325.08	0.993
325.29	0.973
325.50	0.968
325.71	0.973
325.92	0.982
326.13	0.969
326.34	0.969
326.55	0.977
326.76	0.975
326.97	0.963
327.18	0.960
327.39	0.984
327.60	0.985
327.80	0.982
328.01	0.979
328.22	0.978
328.43	0.981
328.64	0.970
328.85	0.973
329.06	0.976
329.27	0.976
329.48	0.971
329.69	0.953
329.90	0.963
330.11	0.958
330.32	0.952
330.53	0.945
330.74	0.944
330.95	0.943
331.16	0.929
331.37	0.938
331.58	0.939
331.79	0.938
332.00	0.929
332.21	0.922
332.42	0.924
332.63	0.916
332.83	0.912
333.04	0.914
333.25	0.927
333.46	0.923
333.67	0.908
333.88	0.910
334.09	0.920
334.30	0.917
334.51	0.909
334.72	0.905
334.93	0.908
335.14	0.906
335.35	0.899
335.56	0.893
335.77	0.903
335.98	0.902
336.18	0.896
336.39	0.888
336.60	0.892
336.81	0.890
337.02	0.890
337.23	0.895
337.44	0.898
337.65	0.902
337.86	0.891
338.07	0.886
338.28	0.888
338.49	0.886
338.70	0.879
338.91	0.885
339.11	0.892
339.32	0.888
339.53	0.877
339.74	0.874
339.95	0.869
340.16	0.868
340.37	0.861
340.58	0.859
340.79	0.863
341.00	0.863
341.21	0.853
341.41	0.852
341.62	0.853
341.83	0.853
342.04	0.848
342.25	0.859
342.46	0.863
342.67	0.863
342.88	0.857
343.09	0.856
343.30	0.863
343.50	0.866
343.71	0.857
343.92	0.855
344.13	0.860
344.34	0.860
344.55	0.843
344.76	0.841
344.97	0.845
345.18	0.843
345.38	0.841
345.59	0.836
345.80	0.836
346.01	0.834
346.22	0.830
346.43	0.825
346.64	0.833
346.85	0.832
347.06	0.826
347.26	0.826
347.47	0.830
347.68	0.825
347.89	0.821
348.10	0.816
348.31	0.822
348.52	0.821
348.73	0.818
348.93	0.816
349.14	0.818
349.35	0.817
349.56	0.811
349.77	0.806
349.98	0.812
350.19	0.809
350.39	0.805
350.60	0.801
350.81	0.817
351.02	0.816
351.23	0.810
351.44	0.815
351.65	0.818
351.86	0.815
352.06	0.814
352.27	0.814
352.48	0.815
352.69	0.814
352.90	0.808
353.11	0.795
353.31	0.801
353.52	0.798
353.73	0.788
353.94	0.789
354.15	0.795
354.36	0.795
354.57	0.786
354.77	0.788
354.98	0.788
355.19	0.787
355.40	0.786
355.61	0.791
355.82	0.796
356.02	0.796
356.23	0.789
356.44	0.791
356.65	0.794
356.86	0.794
357.07	0.788
357.27	0.791
357.48	0.793
357.69	0.789
357.90	0.773
358.11	0.769
358.32	0.773
358.52	0.776
358.73	0.766
358.94	0.768
359.15	0.773
359.36	0.773
359.56	0.769
359.77	0.767
359.98	0.774
360.19	0.773
360.40	0.771
360.61	0.772
360.81	0.770
361.02	0.771
361.23	0.762
361.44	0.761
361.65	0.760
361.85	0.760
362.06	0.758
362.27	0.760
362.48	0.760
362.69	0.761
362.89	0.755
363.10	0.756
363.31	0.761
363.52	0.765
363.73	0.760
363.93	0.761
364.14	0.762
364.35	0.764
364.56	0.753
364.77	0.755
364.97	0.757
365.18	0.758
365.39	0.752
365.60	0.748
365.81	0.748
366.01	0.748
366.22	0.745
366.43	0.744
366.64	0.746
366.84	0.752
367.05	0.749
367.26	0.748
367.47	0.750
367.68	0.750
367.88	0.747
368.09	0.745
368.30	0.746
368.51	0.746
368.71	0.745
368.92	0.749
369.13	0.747
369.34	0.746
369.55	0.746
369.75	0.746
369.96	0.753
370.17	0.753
370.38	0.750
370.58	0.751
370.79	0.757
371.00	0.754
371.21	0.746
371.41	0.751
371.62	0.755
371.83	0.749
372.04	0.747
372.24	0.740
372.45	0.741
372.66	0.741
372.87	0.738
373.07	0.735
373.28	0.736
373.49	0.740
373.70	0.731
373.90	0.730
374.11	0.738
374.32	0.738
374.53	0.736
374.73	0.737
374.94	0.740
375.15	0.739
375.36	0.737
375.56	0.745
375.77	0.744
375.98	0.744
376.19	0.743
376.39	0.737
376.60	0.741
376.81	0.741
377.02	0.738
377.22	0.737
377.43	0.737
377.64	0.736
377.84	0.728
378.05	0.733
378.26	0.739
378.47	0.738
378.67	0.735
378.88	0.731
379.09	0.732
379.30	0.733
379.50	0.730
379.71	0.732
379.92	0.736
380.12	0.735
380.33	0.726
380.54	0.722
380.75	0.730
380.95	0.730
381.16	0.729
381.37	0.728
381.57	0.730
381.78	0.730
381.99	0.730
382.20	0.729
382.40	0.732
382.61	0.732
382.82	0.729
383.02	0.722
383.23	0.725
383.44	0.726
383.64	0.724
383.85	0.727
384.06	0.730
384.27	0.726
384.47	0.725
384.68	0.726
384.89	0.732
385.09	0.732
385.30	0.731
385.51	0.730
385.71	0.733
385.92	0.734
386.13	0.733
386.33	0.735
386.54	0.736
386.75	0.736
386.95	0.732
387.16	0.727
387.37	0.729
387.58	0.729
387.78	0.727
387.99	0.725
388.20	0.727
388.40	0.724
388.61	0.721
388.82	0.724
389.02	0.726
389.23	0.726
389.44	0.724
389.64	0.724
389.85	0.735
390.06	0.735
390.26	0.736
390.47	0.735
390.68	0.738
390.88	0.736
391.09	0.731
391.30	0.730
391.50	0.730
391.71	0.730
391.92	0.726
392.12	0.719
392.33	0.719
392.53	0.719
392.74	0.719
392.95	0.718
393.15	0.721
393.36	0.723
393.57	0.721
393.77	0.725
393.98	0.727
394.19	0.727
394.39	0.726
394.60	0.727
394.81	0.729
395.01	0.727
395.22	0.725
395.43	0.726
395.63	0.731
395.84	0.732
396.04	0.728
396.25	0.730
396.46	0.732
396.66	0.730
396.87	0.727
397.08	0.725
397.28	0.727
397.49	0.728
397.69	0.724
397.90	0.719
398.11	0.721
398.31	0.721
398.52	0.718
398.73	0.719
398.93	0.718
399.14	0.718
399.34	0.717
399.55	0.718
399.76	0.718
399.96	0.719
400.17	0.717
400.37	0.716
400.58	0.722
400.79	0.724
400.99	0.722
401.20	0.727
401.41	0.730
401.61	0.731
401.82	0.737
402.02	0.736
402.23	0.738
402.44	0.737
402.64	0.738
402.85	0.732
403.05	0.731
403.26	0.729
403.47	0.723
403.67	0.721
403.88	0.722
404.08	0.716
404.29	0.713
404.50	0.712
404.70	0.713
404.91	0.712
405.11	0.709
405.32	0.710
405.52	0.711
405.73	0.711
405.94	0.709
406.14	0.712
406.35	0.714
406.55	0.714
406.76	0.712
406.97	0.713
407.17	0.716
407.38	0.715
407.58	0.714
407.79	0.716
407.99	0.719
408.20	0.720
408.41	0.715
408.61	0.713
408.82	0.714
409.02	0.714
409.23	0.712
409.43	0.710
409.64	0.712
409.84	0.711
410.05	0.708
410.26	0.706
410.46	0.705
410.67	0.705
410.87	0.706
411.08	0.708
411.28	0.709
411.49	0.711
411.69	0.709
411.90	0.711
412.11	0.713
412.31	0.714
412.52	0.713
412.72	0.714
412.93	0.715
413.13	0.714
413.34	0.711
413.54	0.713
413.75	0.714
413.95	0.713
414.16	0.710
414.37	0.712
414.57	0.712
414.78	0.714
414.98	0.712
415.19	0.713
415.39	0.710
415.60	0.712
415.80	0.711
416.01	0.709
416.21	0.711
416.42	0.711
416.62	0.705
416.83	0.706
417.03	0.705
417.24	0.706
417.44	0.703
417.65	0.702
417.86	0.703
418.06	0.701
418.27	0.699
418.47	0.701
418.68	0.703
418.88	0.704
419.09	0.703
419.29	0.703
419.50	0.703
419.70	0.702
419.91	0.701
420.11	0.699
420.32	0.701
420.52	0.701
420.73	0.700
420.93	0.700
421.14	0.701
421.34	0.700
421.55	0.697
421.75	0.697
421.96	0.698
422.16	0.699
422.37	0.697
422.57	0.694
422.78	0.696
422.98	0.692
423.19	0.690
423.39	0.689
423.60	0.692
423.80	0.694
424.01	0.693
424.21	0.695
424.42	0.696
424.62	0.696
424.83	0.696
425.03	0.696
425.23	0.698
425.44	0.698
425.64	0.697
425.85	0.696
426.05	0.696
426.26	0.696
426.46	0.693
426.67	0.692
426.87	0.697
427.08	0.697
427.28	0.695
427.49	0.696
427.69	0.697
427.90	0.697
428.10	0.694
428.31	0.694
428.51	0.696
428.71	0.695
428.92	0.696
429.12	0.693
429.33	0.693
429.53	0.697
429.74	0.701
429.94	0.701
430.15	0.699
430.35	0.698
430.56	0.695
430.76	0.694
430.96	0.694
431.17	0.692
431.37	0.689
431.58	0.687
431.78	0.684
431.99	0.677
432.19	0.679
432.40	0.682
432.60	0.683
432.80	0.686
433.01	0.684
433.21	0.684
433.42	0.685
433.62	0.686
433.83	0.686
434.03	0.689
434.23	0.692
434.44	0.691
434.64	0.688
434.85	0.692
435.05	0.693
435.26	0.693
435.46	0.691
435.66	0.691
435.87	0.691
436.07	0.691
436.28	0.687
436.48	0.684
436.69	0.683
436.89	0.683
437.09	0.677
437.30	0.676
437.50	0.676
437.71	0.688
437.91	0.687
438.11	0.688
438.32	0.692
438.52	0.693
438.73	0.692
438.93	0.690
439.13	0.690
439.34	0.694
439.54	0.691
439.75	0.692
439.95	0.681
440.15	0.686
440.36	0.684
440.56	0.681
440.77	0.682
440.97	0.681
441.17	0.680
441.38	0.682
441.58	0.679
441.79	0.679
441.99	0.677
442.19	0.676
442.40	0.673
442.60	0.673
442.81	0.671
443.01	0.672
443.21	0.673
443.42	0.672
443.62	0.670
443.82	0.669
444.03	0.671
444.23	0.671
444.44	0.671
444.64	0.670
444.84	0.672
445.05	0.671
445.25	0.669
445.45	0.669
445.66	0.671
445.86	0.671
446.06	0.672
446.27	0.671
446.47	0.674
446.68	0.672
446.88	0.672
447.08	0.671
447.29	0.673
447.49	0.673
447.69	0.673
447.90	0.671
448.10	0.674
448.30	0.671
448.51	0.673
448.71	0.670
448.91	0.673
449.12	0.671
449.32	0.673
449.52	0.672
449.73	0.675
449.93	0.674
450.14	0.676
450.34	0.675
450.54	0.677
450.75	0.674
450.95	0.674
451.15	0.673
451.36	0.676
451.56	0.673
451.76	0.671
451.97	0.669
452.17	0.669
452.37	0.667
452.58	0.664
452.78	0.664
452.98	0.666
453.19	0.665
453.39	0.666
453.59	0.664
453.79	0.666
454.00	0.667
454.20	0.666
454.40	0.667
454.61	0.669
454.81	0.669
455.01	0.667
455.22	0.668
455.42	0.669
455.62	0.667
455.83	0.667
456.03	0.669
456.23	0.670
456.44	0.670
456.64	0.669
456.84	0.669
457.04	0.669
457.25	0.669
457.45	0.666
457.65	0.665
457.86	0.667
458.06	0.665
458.26	0.661
458.47	0.660
458.67	0.661
458.87	0.661
459.07	0.659
459.28	0.660
459.48	0.662
459.68	0.662
459.89	0.661
460.09	0.659
460.29	0.660
460.49	0.662
460.70	0.661
460.90	0.661
461.10	0.662
461.31	0.661
461.51	0.658
461.71	0.660
461.91	0.662
462.12	0.661
462.32	0.661
462.52	0.662
462.72	0.665
462.93	0.665
463.13	0.664
463.33	0.664
463.53	0.666
463.74	0.665
463.94	0.661
464.14	0.661
464.35	0.662
464.55	0.663
464.75	0.660
464.95	0.657
465.16	0.659
465.36	0.658
465.56	0.658
465.76	0.657
465.97	0.658
466.17	0.659
466.37	0.656
466.57	0.657
466.78	0.658
466.98	0.658
467.18	0.656
467.38	0.655
467.59	0.656
467.79	0.657
467.99	0.656
468.19	0.657
468.39	0.660
468.60	0.660
468.80	0.658
469.00	0.659
469.20	0.660
469.41	0.661
469.61	0.660
469.81	0.660
470.01	0.659
470.22	0.660
470.42	0.658
470.62	0.656
470.82	0.658
471.02	0.657
471.23	0.655
471.43	0.656
471.63	0.658
471.83	0.658
472.04	0.656
472.24	0.654
472.44	0.659
472.64	0.659
472.84	0.658
473.05	0.657
473.25	0.660
473.45	0.659
473.65	0.657
473.85	0.657
474.06	0.659
474.26	0.659
474.46	0.661
474.66	0.657
474.86	0.658
475.07	0.658
475.27	0.656
475.47	0.653
475.67	0.654
475.87	0.656
476.08	0.653
476.28	0.654
476.48	0.655
476.68	0.653
476.88	0.651
477.09	0.652
477.29	0.653
477.49	0.654
477.69	0.653
477.89	0.654
478.09	0.653
478.30	0.655
478.50	0.652
478.70	0.652
478.90	0.653
479.10	0.656
479.31	0.657
479.51	0.655
479.71	0.656
479.91	0.656
480.11	0.655
480.31	0.656
480.52	0.654
480.72	0.654
480.92	0.653
481.12	0.652
481.32	0.649
481.52	0.647
481.72	0.647
481.93	0.650
482.13	0.650
482.33	0.650
482.53	0.648
482.73	0.649
482.93	0.651
483.14	0.650
483.34	0.649
483.54	0.650
483.74	0.649
483.94	0.649
484.14	0.644
484.34	0.644
484.55	0.645
484.75	0.644
484.95	0.642
485.15	0.641
485.35	0.642
485.55	0.641
485.75	0.640
485.96	0.640
486.16	0.641
486.36	0.641
486.56	0.639
486.76	0.639
486.96	0.640
487.16	0.639
487.36	0.637
487.57	0.637
487.77	0.637
487.97	0.638
488.17	0.636
488.37	0.635
488.57	0.635
488.77	0.635
488.97	0.633
489.18	0.633
489.38	0.636
489.58	0.637
489.78	0.636
489.98	0.636
490.18	0.636
490.38	0.638
490.58	0.637
490.78	0.638
490.98	0.640
491.19	0.640
491.39	0.639
491.59	0.638
491.79	0.640
491.99	0.640
492.19	0.640
492.39	0.643
492.59	0.642
492.79	0.644
492.99	0.644
493.20	0.644
493.40	0.644
493.60	0.645
493.80	0.643
494.00	0.641
494.20	0.642
494.40	0.641
494.60	0.639
494.80	0.643
495.00	0.642
495.20	0.641
495.40	0.640
495.61	0.642
495.81	0.641
496.01	0.645
496.21	0.645
496.41	0.644
496.61	0.645
496.81	0.644
497.01	0.638
497.21	0.638
497.41	0.638
497.61	0.638
497.81	0.635
498.01	0.636
498.21	0.634
498.41	0.632
498.61	0.633
498.82	0.634
499.02	0.636
499.22	0.637
499.42	0.637
499.62	0.638
499.82	0.639
500.02	0.640
500.22	0.639
500.42	0.641
500.62	0.641
500.82	0.641
501.02	0.639
501.22	0.640
501.42	0.640
501.62	0.642
501.82	0.641
502.02	0.641
502.22	0.641
502.42	0.642
502.62	0.640
502.82	0.640
503.02	0.641
503.22	0.641
503.42	0.638
503.63	0.638
503.83	0.636
504.03	0.635
504.23	0.633
504.43	0.634
504.63	0.635
504.83	0.634
505.03	0.633
505.23	0.635
505.43	0.637
505.63	0.638
505.83	0.637
506.03	0.639
506.23	0.641
506.43	0.641
506.63	0.640
506.83	0.638
507.03	0.640
507.23	0.641
507.43	0.638
507.63	0.639
507.83	0.639
508.03	0.640
508.23	0.638
508.43	0.637
508.63	0.639
508.83	0.639
509.03	0.640
509.23	0.639
509.43	0.640
509.63	0.640
509.83	0.639
510.03	0.641
510.23	0.642
510.43	0.643
510.63	0.643
510.83	0.643
511.03	0.645
511.23	0.643
511.43	0.642
511.63	0.644
511.83	0.646
512.03	0.646
512.22	0.643
512.42	0.643
512.62	0.644
512.82	0.644
513.02	0.643
513.22	0.642
513.42	0.644
513.62	0.647
513.82	0.644
514.02	0.644
514.22	0.646
514.42	0.646
514.62	0.646
514.82	0.646
515.02	0.648
515.22	0.652
515.42	0.650
515.62	0.652
515.82	0.651
516.02	0.653
516.22	0.653
516.42	0.654
516.62	0.655
516.82	0.657
517.01	0.655
517.21	0.654
517.41	0.658
517.61	0.658
517.81	0.655
518.01	0.653
518.21	0.653
518.41	0.651
518.61	0.650
518.81	0.651
519.01	0.651
519.21	0.652
519.41	0.651
519.61	0.645
519.81	0.648
520.00	0.648
520.20	0.650
520.40	0.652
520.60	0.654
520.80	0.653
521.00	0.653
521.20	0.654
521.40	0.659
521.60	0.659
521.80	0.658
522.00	0.658
522.20	0.660
522.39	0.659
522.59	0.655
522.79	0.657
522.99	0.658
523.19	0.656
523.39	0.654
523.59	0.652
523.79	0.655
523.99	0.658
524.19	0.657
524.38	0.656
524.58	0.658
524.78	0.658
524.98	0.656
525.18	0.658
525.38	0.660
525.58	0.661
525.78	0.658
525.98	0.657
526.18	0.657
526.37	0.656
526.57	0.658
526.77	0.658
526.97	0.658
527.17	0.659
527.37	0.655
527.57	0.657
527.77	0.659
527.96	0.659
528.16	0.658
528.36	0.658
528.56	0.661
528.76	0.658
528.96	0.658
529.16	0.659
529.36	0.662
529.55	0.662
529.75	0.658
529.95	0.658
530.15	0.660
530.35	0.662
530.55	0.660
530.75	0.660
530.94	0.661
531.14	0.661
531.34	0.660
531.54	0.658
531.74	0.661
531.94	0.664
532.13	0.662
532.33	0.664
532.53	0.663
532.73	0.662
532.93	0.660
533.13	0.662
533.33	0.662
533.52	0.662
533.72	0.666
533.92	0.663
534.12	0.662
534.32	0.662
534.52	0.660
534.71	0.662
534.91	0.664
535.11	0.666
535.31	0.664
535.51	0.665
535.71	0.667
535.90	0.664
536.10	0.666
536.30	0.668
536.50	0.668
536.70	0.668
536.89	0.666
537.09	0.666
537.29	0.667
537.49	0.668
537.69	0.666
537.89	0.667
538.08	0.666
538.28	0.664
538.48	0.664
538.68	0.666
538.88	0.668
539.07	0.668
539.27	0.666
539.47	0.665
539.67	0.665
539.87	0.667
540.06	0.664
540.26	0.665
540.46	0.667
540.66	0.665
540.86	0.663
541.05	0.662
541.25	0.665
541.45	0.665
541.65	0.663
541.84	0.665
542.04	0.666
542.24	0.667
542.44	0.667
542.64	0.668
542.83	0.671
543.03	0.671
543.23	0.669
543.43	0.669
543.62	0.670
543.82	0.671
544.02	0.669
544.22	0.669
544.42	0.672
544.61	0.672
544.81	0.669
545.01	0.668
545.21	0.671
545.40	0.671
545.60	0.670
545.80	0.674
546.00	0.674
546.19	0.673
546.39	0.672
546.59	0.669
546.79	0.670
546.98	0.671
547.18	0.670
547.38	0.671
547.58	0.673
547.77	0.673
547.97	0.669
548.17	0.671
548.37	0.672
548.56	0.672
548.76	0.671
548.96	0.673
549.16	0.675
549.35	0.675
549.55	0.672
549.75	0.672
549.95	0.675
550.14	0.676
550.34	0.673
550.54	0.678
550.73	0.682
550.93	0.683
551.13	0.679
551.33	0.678
551.52	0.678
551.72	0.679
551.92	0.677
552.12	0.678
552.31	0.678
552.51	0.679
552.71	0.675
552.90	0.675
553.10	0.676
553.30	0.676
553.50	0.676
553.69	0.677
553.89	0.678
554.09	0.678
554.28	0.675
554.48	0.676
554.68	0.678
554.87	0.678
555.07	0.674
555.27	0.674
555.47	0.676
555.66	0.676
555.86	0.675
556.06	0.676
556.25	0.678
556.45	0.686
556.65	0.684
556.84	0.687
557.04	0.690
557.24	0.692
557.43	0.691
557.63	0.694
557.83	0.696
558.02	0.696
558.22	0.701
558.42	0.701
558.61	0.694
558.81	0.694
559.01	0.690
559.21	0.690
559.40	0.691
559.60	0.691
559.80	0.687
559.99	0.688
560.19	0.690
560.39	0.685
560.58	0.682
560.78	0.682
560.97	0.685
561.17	0.685
561.37	0.683
561.56	0.683
561.76	0.684
561.96	0.683
562.15	0.680
562.35	0.683
562.55	0.684
562.74	0.684
562.94	0.683
563.14	0.681
563.33	0.681
563.53	0.682
563.73	0.680
563.92	0.681
564.12	0.685
564.31	0.687
564.51	0.685
564.71	0.686
564.90	0.690
565.10	0.691
565.30	0.693
565.49	0.695
565.69	0.697
565.89	0.697
566.08	0.694
566.28	0.695
566.47	0.697
566.67	0.695
566.87	0.693
567.06	0.694
567.26	0.701
567.46	0.696
567.65	0.696
567.85	0.697
568.04	0.700
568.24	0.700
568.44	0.697
568.63	0.695
568.83	0.697
569.02	0.696
569.22	0.691
569.42	0.687
569.61	0.689
569.81	0.688
570.00	0.686
570.20	0.687
570.40	0.688
570.59	0.688
570.79	0.686
570.98	0.684
571.18	0.685
571.38	0.684
571.57	0.682
571.77	0.680
571.96	0.683
572.16	0.680
572.35	0.675
572.55	0.676
572.75	0.674
572.94	0.674
573.14	0.673
573.33	0.673
573.53	0.674
573.73	0.673
573.92	0.671
574.12	0.669
574.31	0.672
574.51	0.672
574.70	0.669
574.90	0.671
575.09	0.673
575.29	0.674
575.49	0.671
575.68	0.672
575.88	0.673
576.07	0.675
576.27	0.673
576.46	0.672
576.66	0.671
576.86	0.671
577.05	0.668
577.25	0.666
577.44	0.667
577.64	0.667
577.83	0.665
578.03	0.666
578.22	0.666
578.42	0.665
578.61	0.663
578.81	0.664
579.00	0.664
579.20	0.664
579.40	0.664
579.59	0.662
579.79	0.663
579.98	0.662
580.18	0.662
580.37	0.662
580.57	0.664
580.76	0.668
580.96	0.667
581.15	0.667
581.35	0.669
581.54	0.668
581.74	0.668
581.93	0.670
582.13	0.671
582.32	0.667
582.52	0.666
582.71	0.665
582.91	0.661
583.10	0.661
583.30	0.660
583.49	0.658
583.69	0.663
583.88	0.664
584.08	0.663
584.27	0.665
584.47	0.669
584.66	0.669
584.86	0.668
585.05	0.671
585.25	0.673
585.44	0.673
585.64	0.671
585.83	0.668
586.03	0.668
586.22	0.667
586.42	0.663
586.61	0.664
586.81	0.666
587.00	0.666
587.20	0.663
587.39	0.664
587.59	0.665
587.78	0.666
587.98	0.667
588.17	0.668
588.37	0.670
588.56	0.672
588.76	0.668
588.95	0.668
589.15	0.672
589.34	0.675
589.54	0.673
589.73	0.674
589.92	0.677
590.12	0.677
590.31	0.675
590.51	0.681
590.70	0.682
590.90	0.682
591.09	0.681
591.29	0.679
591.48	0.680
591.68	0.681
591.87	0.679
592.06	0.678
592.26	0.681
592.45	0.680
592.65	0.674
592.84	0.673
593.04	0.676
593.23	0.677
593.43	0.675
593.62	0.674
593.81	0.674
594.01	0.674
594.20	0.671
594.40	0.670
594.59	0.672
594.79	0.673
594.98	0.671
595.17	0.670
595.37	0.671
595.56	0.673
595.76	0.673
595.95	0.674
596.14	0.677
596.34	0.679
596.53	0.677
596.73	0.679
596.92	0.681
597.12	0.683
597.31	0.683
597.50	0.683
597.70	0.685
597.89	0.684
598.09	0.681
598.28	0.682
598.47	0.684
598.67	0.682
598.86	0.679
599.06	0.681
599.25	0.681
599.44	0.679
599.64	0.676
599.83	0.673
600.03	0.676
600.22	0.677
600.41	0.677
600.61	0.674
600.80	0.677
601.00	0.678
601.19	0.673
601.38	0.671
601.58	0.674
601.77	0.675
601.96	0.677
602.16	0.678
602.35	0.687
602.55	0.685
602.74	0.686
602.93	0.687
603.13	0.692
603.32	0.693
603.51	0.693
603.71	0.696
603.90	0.698
604.09	0.699
604.29	0.696
604.48	0.690
604.68	0.691
604.87	0.689
605.06	0.686
605.26	0.683
605.45	0.684
605.64	0.683
605.84	0.677
606.03	0.676
606.22	0.675
606.42	0.674
606.61	0.671
606.80	0.671
607.00	0.672
607.19	0.672
607.38	0.671
607.58	0.673
607.77	0.676
607.96	0.676
608.16	0.674
608.35	0.679
608.54	0.682
608.74	0.685
608.93	0.690
609.12	0.692
609.32	0.695
609.51	0.698
609.70	0.697
609.90	0.698
610.09	0.702
610.28	0.708
610.48	0.702
610.67	0.703
610.86	0.704
611.06	0.698
611.25	0.697
611.44	0.697
611.64	0.697
611.83	0.699
612.02	0.697
612.21	0.695
612.41	0.694
612.60	0.693
612.79	0.690
612.99	0.690
613.18	0.693
613.37	0.690
613.57	0.688
613.76	0.690
613.95	0.687
614.14	0.687
614.34	0.684
614.53	0.686
614.72	0.688
614.92	0.687
615.11	0.684
615.30	0.680
615.49	0.681
615.69	0.684
615.88	0.679
616.07	0.681
616.26	0.683
616.46	0.684
616.65	0.681
616.84	0.681
617.04	0.682
617.23	0.686
617.42	0.686
617.61	0.690
617.81	0.691
618.00	0.693
618.19	0.691
618.38	0.695
618.58	0.699
618.77	0.700
618.96	0.699
619.15	0.700
619.35	0.701
619.54	0.701
619.73	0.696
619.92	0.698
620.12	0.703
620.31	0.703
620.50	0.698
620.69	0.698
620.89	0.701
621.08	0.701
621.27	0.701
621.46	0.701
621.66	0.705
621.85	0.705
622.04	0.702
622.23	0.702
622.43	0.704
622.62	0.703
622.81	0.702
623.00	0.702
623.19	0.705
623.39	0.704
623.58	0.700
623.77	0.699
623.96	0.701
624.16	0.701
624.35	0.696
624.54	0.698
624.73	0.702
624.92	0.699
625.12	0.697
625.31	0.697
625.50	0.700
625.69	0.701
625.88	0.697
626.08	0.698
626.27	0.698
626.46	0.699
626.65	0.697
626.84	0.696
627.04	0.701
627.23	0.701
627.42	0.697
627.61	0.699
627.80	0.702
628.00	0.702
628.19	0.701
628.38	0.704
628.57	0.707
628.76	0.704
628.96	0.701
629.15	0.702
629.34	0.705
629.53	0.705
629.72	0.700
629.91	0.700
630.11	0.704
630.30	0.705
630.49	0.707
630.68	0.707
630.87	0.713
631.06	0.715
631.26	0.710
631.45	0.711
631.64	0.719
631.83	0.721
632.02	0.719
632.21	0.718
632.41	0.724
632.60	0.718
632.79	0.718
632.98	0.717
633.17	0.718
633.36	0.721
633.55	0.718
633.75	0.714
633.94	0.717
634.13	0.717
634.32	0.715
634.51	0.709
634.70	0.711
634.89	0.710
635.09	0.707
635.28	0.707
635.47	0.707
635.66	0.710
635.85	0.706
636.04	0.706
636.23	0.711
636.43	0.712
636.62	0.711
636.81	0.710
637.00	0.713
637.19	0.716
637.38	0.713
637.57	0.712
637.76	0.714
637.95	0.714
638.15	0.711
638.34	0.708
638.53	0.711
638.72	0.712
638.91	0.710
639.10	0.707
639.29	0.707
639.48	0.708
639.67	0.708
639.87	0.707
640.06	0.713
640.25	0.712
640.44	0.713
640.63	0.714
640.82	0.716
641.01	0.716
641.20	0.717
641.39	0.719
641.58	0.720
641.78	0.720
641.97	0.716
642.16	0.729
642.35	0.731
642.54	0.731
642.73	0.725
642.92	0.723
643.11	0.727
643.30	0.726
643.49	0.720
643.68	0.723
643.87	0.725
644.06	0.724
644.25	0.704
644.45	0.706
644.64	0.707
644.83	0.708
645.02	0.705
645.21	0.704
645.40	0.706
645.59	0.707
645.78	0.700
645.97	0.701
646.16	0.703
646.35	0.702
646.54	0.700
646.73	0.702
646.92	0.704
647.11	0.703
647.30	0.698
647.49	0.700
647.68	0.700
647.88	0.698
648.07	0.691
648.26	0.695
648.45	0.697
648.64	0.692
648.83	0.689
649.02	0.691
649.21	0.702
649.40	0.701
649.59	0.696
649.78	0.698
649.97	0.713
650.16	0.712
650.35	0.706
650.54	0.708
650.73	0.717
650.92	0.713
651.11	0.707
651.30	0.704
651.49	0.708
651.68	0.708
651.87	0.705
652.06	0.694
652.25	0.698
652.44	0.701
652.63	0.699
652.82	0.701
653.01	0.702
653.20	0.700
653.39	0.689
653.58	0.687
653.77	0.687
653.96	0.682
654.15	0.675
654.34	0.674
654.53	0.669
654.72	0.663
654.91	0.654
655.10	0.650
655.29	0.647
655.48	0.645
655.67	0.640
655.86	0.637
656.05	0.636
656.24	0.635
656.43	0.630
656.62	0.629
656.81	0.628
657.00	0.625
657.19	0.622
657.38	0.621
657.57	0.620
657.76	0.621
657.95	0.618
658.14	0.621
658.33	0.623
658.51	0.628
658.70	0.628
658.89	0.630
659.08	0.639
659.27	0.647
659.46	0.648
659.65	0.656
659.84	0.660
660.03	0.662
660.22	0.663
660.41	0.667
660.60	0.667
660.79	0.668
660.98	0.674
661.17	0.673
661.36	0.673
661.55	0.673
661.74	0.670
661.92	0.673
662.11	0.676
662.30	0.675
662.49	0.668
662.68	0.667
662.87	0.670
663.06	0.664
663.25	0.665
663.44	0.665
663.63	0.666
663.82	0.665
664.01	0.660
664.20	0.658
664.38	0.659
664.57	0.661
664.76	0.661
664.95	0.661
665.14	0.666
665.33	0.661
665.52	0.669
665.71	0.672
665.90	0.671
666.09	0.673
666.28	0.671
666.46	0.669
666.65	0.670
666.84	0.667
667.03	0.661
667.22	0.659
667.41	0.663
667.60	0.652
667.79	0.645
667.98	0.647
668.16	0.647
668.35	0.648
668.54	0.644
668.73	0.645
668.92	0.646
669.11	0.646
669.30	0.641
669.49	0.637
669.67	0.640
669.86	0.642
670.05	0.640
670.24	0.637
670.43	0.635
670.62	0.634
670.81	0.629
671.00	0.630
671.18	0.630
671.37	0.628
671.56	0.626
671.75	0.625
671.94	0.622
672.13	0.620
672.32	0.616
672.50	0.615
672.69	0.615
672.88	0.616
673.07	0.611
673.26	0.613
673.45	0.614
673.63	0.614
673.82	0.611
674.01	0.612
674.20	0.612
674.39	0.611
674.58	0.611
674.76	0.611
674.95	0.610
675.14	0.610
675.33	0.605
675.52	0.605
675.71	0.604
675.89	0.604
676.08	0.600
676.27	0.600
676.46	0.601
676.65	0.600
676.84	0.599
677.02	0.600
677.21	0.602
677.40	0.601
677.59	0.598
677.78	0.599
677.96	0.601
678.15	0.601
678.34	0.599
678.53	0.600
678.72	0.600
678.90	0.597
679.09	0.593
679.28	0.589
679.47	0.590
679.66	0.589
679.84	0.586
680.03	0.584
680.22	0.582
680.41	0.584
680.60	0.580
680.78	0.579
680.97	0.581
681.16	0.581
681.35	0.580
681.53	0.578
681.72	0.580
681.91	0.581
682.10	0.579
682.29	0.582
682.47	0.580
682.66	0.579
682.85	0.578
683.04	0.577
683.22	0.577
683.41	0.579
683.60	0.578
683.79	0.579
683.97	0.579
684.16	0.577
684.35	0.573
684.54	0.575
684.72	0.575
684.91	0.576
685.10	0.573
685.29	0.575
685.47	0.572
685.66	0.571
685.85	0.567
686.04	0.566
686.22	0.568
686.41	0.571
686.60	0.568
686.79	0.570
686.97	0.571
687.16	0.572
687.35	0.569
687.54	0.573
687.72	0.576
687.91	0.577
688.10	0.578
688.29	0.578
688.47	0.576
688.66	0.576
688.85	0.573
689.03	0.570
689.22	0.575
689.41	0.575
689.60	0.571
689.78	0.568
689.97	0.569
690.16	0.566
690.34	0.563
690.53	0.563
690.72	0.563
690.91	0.561
691.09	0.559
691.28	0.553
691.47	0.551
691.65	0.550
691.84	0.547
692.03	0.546
692.21	0.543
692.40	0.543
692.59	0.541
692.77	0.540
692.96	0.541
693.15	0.542
693.34	0.540
693.52	0.540
693.71	0.541
693.90	0.542
694.08	0.542
694.27	0.543
694.46	0.552
694.64	0.553
694.83	0.552
695.02	0.551
695.20	0.550
695.39	0.550
695.58	0.550
695.76	0.550
695.95	0.550
696.14	0.549
696.32	0.547
696.51	0.538
696.70	0.538
696.88	0.539
697.07	0.538
697.26	0.540
697.44	0.541
697.63	0.540
697.81	0.538
698.00	0.537
698.19	0.537
698.37	0.537
698.56	0.536
698.75	0.535
698.93	0.534
699.12	0.534
699.31	0.533
699.49	0.532
699.68	0.533
699.87	0.535
700.05	0.535
700.24	0.534
700.42	0.536
700.61	0.535
700.80	0.534
700.98	0.535
701.17	0.536
701.36	0.535
701.54	0.535
701.73	0.536
701.91	0.533
702.10	0.533
702.29	0.532
702.47	0.531
702.66	0.532
702.84	0.533
703.03	0.530
703.22	0.532
703.40	0.532
703.59	0.533
703.77	0.532
703.96	0.533
704.15	0.534
704.33	0.533
704.52	0.533
704.70	0.532
704.89	0.533
705.08	0.531
705.26	0.527
705.45	0.527
705.63	0.526
705.82	0.523
706.00	0.521
706.19	0.521
706.38	0.521
706.56	0.521
706.75	0.518
706.93	0.517
707.12	0.518
707.30	0.519
707.49	0.517
707.68	0.515
707.86	0.515
708.05	0.514
708.23	0.511
708.42	0.512
708.60	0.514
708.79	0.513
708.98	0.511
709.16	0.510
709.35	0.512
709.53	0.516
709.72	0.515
709.90	0.517
710.09	0.519
710.27	0.521
710.46	0.525
710.64	0.523
710.83	0.526
711.02	0.528
711.20	0.527
711.39	0.525
711.57	0.523
711.76	0.523
711.94	0.522
712.13	0.523
712.31	0.523
712.50	0.518
712.68	0.516
712.87	0.517
713.05	0.518
713.24	0.518
713.42	0.517
713.61	0.518
713.79	0.518
713.98	0.519
714.16	0.519
714.35	0.518
714.54	0.519
714.72	0.519
714.91	0.517
715.09	0.523
715.28	0.526
715.46	0.526
715.65	0.523
715.83	0.523
716.02	0.525
716.20	0.522
716.39	0.522
716.57	0.523
716.76	0.524
716.94	0.525
717.12	0.517
717.31	0.518
717.49	0.521
717.68	0.523
717.86	0.523
718.05	0.523
718.23	0.525
718.42	0.528
718.60	0.529
718.79	0.537
718.97	0.539
719.16	0.540
719.34	0.537
719.53	0.536
719.71	0.537
719.90	0.538
720.08	0.535
720.27	0.536
720.45	0.535
720.63	0.534
720.82	0.528
721.00	0.530
721.19	0.533
721.37	0.533
721.56	0.533
721.74	0.535
721.93	0.544
722.11	0.550
722.30	0.550
722.48	0.555
722.66	0.556
722.85	0.557
723.03	0.557
723.22	0.556
723.40	0.558
723.59	0.559
723.77	0.564
723.95	0.558
724.14	0.559
724.32	0.561
724.51	0.560
724.69	0.561
724.88	0.561
725.06	0.559
725.24	0.561
725.43	0.563
725.61	0.565
725.80	0.558
725.98	0.557
726.16	0.553
726.35	0.559
726.53	0.557
726.72	0.556
726.90	0.566
727.09	0.567
727.27	0.573
727.45	0.569
727.64	0.578
727.82	0.586
728.01	0.590
728.19	0.588
728.37	0.592
728.56	0.596
728.74	0.602
728.92	0.589
729.11	0.591
729.29	0.589
729.48	0.591
729.66	0.581
729.84	0.581
730.03	0.583
730.21	0.585
730.40	0.576
730.58	0.576
730.76	0.576
730.95	0.580
731.13	0.580
731.31	0.594
731.50	0.603
731.68	0.605
731.86	0.602
732.05	0.616
732.23	0.620
732.42	0.624
732.60	0.627
732.78	0.633
732.97	0.650
733.15	0.657
733.33	0.644
733.52	0.650
733.70	0.662
733.88	0.670
734.07	0.654
734.25	0.679
734.43	0.685
734.62	0.686
734.80	0.680
734.98	0.670
735.17	0.676
735.35	0.682
735.53	0.671
735.72	0.674
735.90	0.694
736.08	0.712
736.27	0.692
736.45	0.701
736.63	0.714
736.82	0.724
737.00	0.724
737.18	0.733
737.37	0.762
737.55	0.782
737.73	0.778
737.92	0.780
738.10	0.777
738.28	0.795
738.46	0.784
738.65	0.796
738.83	0.814
739.01	0.864
739.20	0.856
739.38	0.839
739.56	0.832
739.75	0.837
739.93	0.804
740.11	0.829
740.29	0.826
740.48	0.834
740.66	0.816
740.84	0.810
741.03	0.779
741.21	0.791
741.39	0.772
741.57	0.786
741.76	0.797
741.94	0.807
742.12	0.775
742.31	0.781
742.49	0.797
742.67	0.818
742.85	0.831
743.04	0.831
743.22	0.838
743.40	0.890
743.58	0.870
743.77	0.888
743.95	0.917
744.13	0.959
744.31	0.944
744.50	0.941
744.68	0.940
744.86	0.916
745.04	0.927
745.23	0.983
745.41	0.967
745.59	0.976
745.77	0.943
745.96	0.932
746.14	0.941
746.32	0.938
746.50	0.924
746.69	0.904
746.87	0.912
747.05	0.899
747.23	0.835
747.42	0.819
747.60	0.840
747.78	0.845
747.96	0.871
748.14	0.831
748.33	0.857
748.51	0.853
748.69	0.848
748.87	0.874
749.06	0.873
749.24	0.868
749.42	0.856
749.60	0.844
749.78	0.851
749.97	0.810
750.15	0.805
750.33	0.806
750.51	0.835
750.69	0.842
750.88	0.847
751.06	0.854
751.24	0.875
751.42	0.870
751.60	0.859
751.79	0.923
751.97	0.960
752.15	0.958
752.33	0.926
752.51	0.974
752.69	0.982
752.88	0.956
753.06	0.999
753.24	0.983
753.42	1.008
753.60	1.156
753.78	1.031
753.97	1.055
754.15	1.071
754.33	1.097
754.51	0.993
754.69	0.980
754.87	1.002
755.06	0.938
755.24	0.939
755.42	0.946
755.60	0.857
755.78	0.868
755.96	0.821
756.15	0.820
756.33	0.825
756.51	0.841
756.69	0.832
756.87	0.801
757.05	0.815
757.23	0.798
757.42	0.768
757.60	0.764
757.78	0.752
757.96	0.750
758.14	0.738
758.32	0.724
758.50	0.734
758.69	0.731
758.87	0.725
759.05	0.729
759.23	0.740
759.41	0.743
759.59	0.738
759.77	0.758
759.95	0.782
760.13	0.823
760.32	0.823
760.50	0.820
760.68	0.842
760.86	0.843
761.04	0.819
761.22	0.825
761.40	0.867
761.58	0.869
761.76	0.845
761.95	0.829
762.13	0.790
762.31	0.791
762.49	0.762
762.67	0.778
762.85	0.788
763.03	0.785
763.21	0.766
763.39	0.747
763.57	0.749
763.75	0.746
763.94	0.730
764.12	0.730
764.30	0.752
764.48	0.756
764.66	0.724
764.84	0.725
765.02	0.758
765.20	0.764
765.38	0.748
765.56	0.752
765.74	0.789
765.92	0.790
766.10	0.795
766.28	0.790
766.46	0.815
766.65	0.815
766.83	0.800
767.01	0.787
767.19	0.793
767.37	0.793
767.55	0.780
767.73	0.760
767.91	0.763
768.09	0.753
768.27	0.741
768.45	0.734
768.63	0.738
768.81	0.742
768.99	0.715
769.17	0.737
769.35	0.749
769.53	0.748
769.71	0.732
769.89	0.741
770.07	0.747
770.25	0.731
770.43	0.708
770.61	0.728
770.79	0.732
770.97	0.746
771.15	0.718
771.33	0.719
771.51	0.720
771.69	0.727
771.87	0.735
772.05	0.738
772.24	0.747
772.42	0.757
772.60	0.740
772.78	0.794
772.96	0.817
773.14	0.814
773.32	0.795
773.49	0.805
773.67	0.803
773.85	0.783
774.03	0.773
774.21	0.803
774.39	0.812
774.57	0.833
774.75	0.769
774.93	0.763
775.11	0.781
775.29	0.789
775.47	0.790
775.65	0.799
775.83	0.816
776.01	0.836
776.19	0.793
776.37	0.794
776.55	0.792
776.73	0.788
776.91	0.785
777.09	0.771
777.27	0.768
777.45	0.757
777.63	0.737
777.81	0.732
777.99	0.720
778.17	0.716
778.35	0.697
778.53	0.684
778.71	0.690
778.89	0.680
779.07	0.670
779.24	0.674
779.42	0.676
779.60	0.693
779.78	0.692
779.96	0.696
780.14	0.705
780.32	0.725
780.50	0.711
780.68	0.710
780.86	0.701
781.04	0.716
781.22	0.719
781.40	0.728
781.58	0.718
781.75	0.709
781.93	0.696
782.11	0.695
782.29	0.681
782.47	0.681
782.65	0.669
782.83	0.696
783.01	0.691
783.19	0.689
783.37	0.675
783.55	0.680
783.72	0.699
783.90	0.707
784.08	0.698
784.26	0.709
784.44	0.727
784.62	0.728
784.80	0.695
784.98	0.702
785.16	0.705
785.33	0.720
785.51	0.702
785.69	0.688
785.87	0.686
786.05	0.698
786.23	0.695
786.41	0.692
786.59	0.701
786.77	0.702
786.94	0.691
787.12	0.693
787.30	0.695
787.48	0.697
787.66	0.687
787.84	0.689
788.02	0.680
788.19	0.678
788.37	0.668
788.55	0.669
788.73	0.669
788.91	0.662
789.09	0.647
789.27	0.636
789.44	0.645
789.62	0.650
789.80	0.658
789.98	0.682
790.16	0.667
790.34	0.660
790.51	0.648
790.69	0.665
790.87	0.673
791.05	0.672
791.23	0.668
791.41	0.670
791.58	0.677
791.76	0.655
791.94	0.627
792.12	0.636
792.30	0.639
792.48	0.637
792.65	0.632
792.83	0.636
793.01	0.642
793.19	0.638
793.37	0.624
793.54	0.619
793.72	0.630
793.90	0.630
794.08	0.619
794.26	0.620
794.43	0.631
794.61	0.615
794.79	0.606
794.97	0.605
795.15	0.608
795.32	0.613
795.50	0.605
795.68	0.599
795.86	0.603
796.04	0.605
796.21	0.600
796.39	0.596
796.57	0.611
796.75	0.617
796.92	0.619
797.10	0.625
797.28	0.624
797.46	0.627
797.64	0.630
797.81	0.636
797.99	0.638
798.17	0.641
798.35	0.635
798.52	0.636
798.70	0.630
798.88	0.638
799.06	0.635
799.23	0.639
799.41	0.643
799.59	0.638
799.77	0.629
799.94	0.640
800.12	0.648
800.30	0.665
800.48	0.665
800.65	0.666
800.83	0.656
801.01	0.651
801.19	0.652
801.36	0.651
801.54	0.653
801.72	0.662
801.90	0.647
802.07	0.644
802.25	0.629
802.43	0.615
802.60	0.611
802.78	0.617
802.96	0.621
803.14	0.615
803.31	0.613
803.49	0.615
803.67	0.610
803.84	0.615
804.02	0.609
804.20	0.613
804.38	0.619
804.55	0.619
804.73	0.606
804.91	0.606
805.08	0.619
805.26	0.615
805.44	0.677
805.61	0.679
805.79	0.678
805.97	0.676
806.15	0.667
806.32	0.661
806.50	0.667
806.68	0.668
806.85	0.660
807.03	0.651
807.21	0.666
807.38	0.603
807.56	0.593
807.74	0.603
807.91	0.610
808.09	0.612
808.27	0.628
808.44	0.652
808.62	0.659
808.80	0.660
808.97	0.655
809.15	0.649
809.33	0.663
809.50	0.670
809.68	0.658
809.86	0.666
810.03	0.698
810.21	0.681
810.39	0.664
810.56	0.672
810.74	0.696
810.91	0.763
811.09	0.753
811.27	0.773
811.44	0.778
811.62	0.778
811.80	0.760
811.97	0.728
812.15	0.727
812.33	0.721
812.50	0.707
812.68	0.696
812.85	0.644
813.03	0.647
813.21	0.616
813.38	0.611
813.56	0.614
813.74	0.622
813.91	0.629
814.09	0.657
814.26	0.652
814.44	0.654
814.62	0.645
814.79	0.648
814.97	0.650
815.14	0.654
815.32	0.658
815.50	0.674
815.67	0.675
815.85	0.667
816.02	0.656
816.20	0.662
816.38	0.676
816.55	0.681
816.73	0.681
816.90	0.692
817.08	0.720
817.26	0.726
817.43	0.708
817.61	0.732
817.78	0.749
817.96	0.730
818.13	0.720
818.31	0.718
818.49	0.729
818.66	0.719
818.84	0.708
819.01	0.689
819.19	0.693
819.36	0.694
819.54	0.669
819.71	0.705
819.89	0.718
820.07	0.730
820.24	0.728
820.42	0.730
820.59	0.747
820.77	0.769
820.94	0.761
821.12	0.777
821.29	0.791
821.47	0.790
821.64	0.734
821.82	0.745
822.00	0.747
822.17	0.743
822.35	0.734
822.52	0.737
822.70	0.724
822.87	0.734
823.05	0.716
823.22	0.724
823.40	0.748
823.57	0.771
823.75	0.753
823.92	0.770
824.10	0.787
824.27	0.826
824.45	0.816
824.62	0.876
824.80	0.887
824.97	0.900
825.15	0.893
825.32	0.909
825.50	0.907
825.67	0.917
825.85	0.897
826.02	0.909
826.20	0.927
826.37	1.033
826.55	0.953
826.72	1.115
826.90	1.163
827.07	1.200
827.25	1.154
827.42	1.282
827.60	1.364
827.77	1.489
827.95	1.483
828.12	1.551
828.30	1.300
828.47	1.415
828.65	1.127
828.82	1.170
829.00	1.214
829.17	1.272
829.34	1.268
829.52	1.304
829.69	-0.000
829.87	-0.000
830.04	-0.000
830.22	-0.000
830.39	-0.000
830.57	-0.000
830.74	-0.000
830.92	-0.000
831.09	-0.000
831.26	-0.000
831.44	-0.000
831.61	-0.000
831.79	-0.000
831.96	-0.000
832.14	-0.000
832.31	-0.000
832.49	-0.000
832.66	-0.000
832.83	-0.000
833.01	-0.000
833.18	-0.000
833.36	-0.000
833.53	-0.000
833.70	-0.000
833.88	-0.000
834.05	-0.000
834.23	-0.000
834.40	-0.000
834.58	-0.000
834.75	-0.000
834.92	-0.000
835.10	-0.000
835.27	-0.000
835.45	-0.000
835.62	-0.000
835.79	-0.000
835.97	-0.000
836.14	-0.000
836.32	-0.000
836.49	-0.000
836.66	-0.000
836.84	-0.000
837.01	-0.000
837.18	-0.000
837.36	-0.000
837.53	-0.000
837.71	-0.000
837.88	-0.000
838.05	-0.000
838.23	-0.000
838.40	-0.000
838.58	-0.000
838.75	-0.000
838.92	-0.000
839.10	-0.000
839.27	-0.000
839.44	-0.000
839.62	-0.000
839.79	-0.000
839.96	-0.000
840.14	-0.000
840.31	-0.000
840.48	-0.000
840.66	-0.000
840.83	-0.000
841.01	-0.000
841.18	-0.000
841.35	-0.000
841.53	-0.000
841.70	-0.000
841.87	-0.000
842.05	-0.000
842.22	-0.000
842.39	-0.000
842.57	-0.000
842.74	-0.000
842.91	-0.000
843.09	-0.000
843.26	-0.000
843.43	-0.000
843.60	-0.000
843.78	-0.000
843.95	-0.000
844.12	-0.000
844.30	-0.000
844.47	-0.000
844.64	-0.000
844.82	-0.000
844.99	-0.000
845.16	-0.000
845.34	-0.000
845.51	-0.000
845.68	-0.000
845.85	-0.000
846.03	-0.000
846.20	-0.000
846.37	-0.000
846.55	-0.000
846.72	-0.000
846.89	-0.000
847.06	-0.000
847.24	-0.000
847.41	-0.000
847.58	-0.000
847.76	-0.000
847.93	-0.000
848.10	-0.000
848.27	-0.000
848.45	-0.000
848.62	-0.000
848.79	-0.000
848.97	-0.000
849.14	-0.000
849.31	-0.000
849.48	-0.000
849.66	-0.000
849.83	-0.000
850.00	-0.000
850.17	-0.000
850.35	-0.000
850.52	-0.000
850.69	-0.000
850.86	-0.000
851.04	-0.000
851.21	-0.000
851.38	-0.000
851.55	-0.000
851.72	-0.000
851.90	-0.000
852.07	-0.000
852.24	-0.000
852.41	-0.000
852.59	-0.000
852.76	-0.000
852.93	-0.000
853.10	-0.000
853.28	-0.000
853.45	-0.000
853.62	-0.000
853.79	-0.000
853.96	-0.000
854.14	-0.000
854.31	-0.000
854.48	-0.000
854.65	-0.000
854.82	-0.000
855.00	-0.000
855.17	-0.000
855.34	-0.000
855.51	-0.000
855.68	-0.000
855.86	-0.000
856.03	-0.000
856.20	-0.000
856.37	-0.000
856.54	-0.000
856.72	-0.000
856.89	-0.000
857.06	-0.000
857.23	-0.000
857.40	-0.000
857.57	-0.000
857.75	-0.000
857.92	-0.000
858.09	-0.000
858.26	-0.000
858.43	-0.000
858.60	-0.000
858.78	-0.000
858.95	-0.000
859.12	-0.000
859.29	-0.000
859.46	-0.000
859.63	-0.000
859.81	-0.000
859.98	-0.000
860.15	-0.000
860.32	-0.000
860.49	-0.000
860.66	-0.000
860.83	-0.000
861.01	-0.000
861.18	-0.000
861.35	-0.000
861.52	-0.000
861.69	-0.000
861.86	-0.000
862.03	-0.000
862.21	-0.000
862.38	-0.000
862.55	-0.000
862.72	-0.000
862.89	-0.000
863.06	-0.000
863.23	-0.000
863.40	-0.000
863.58	-0.000
863.75	-0.000
863.92	-0.000
864.09	-0.000
864.26	-0.000
864.43	-0.000
864.60	-0.000
864.77	-0.000
864.94	-0.000
865.11	-0.000
865.29	-0.000
865.46	-0.000
865.63	-0.000
865.80	-0.000
865.97	-0.000
866.14	-0.000
866.31	-0.000
866.48	-0.000
866.65	-0.000
866.82	-0.000
866.99	-0.000
867.16	-0.000
867.34	-0.000
867.51	-0.000
867.68	-0.000
867.85	-0.000
868.02	-0.000
868.19	-0.000
868.36	-0.000
868.53	-0.000
868.70	-0.000
868.87	-0.000
869.04	-0.000
869.21	-0.000
869.38	-0.000
869.55	-0.000
869.72	-0.000
869.89	-0.000
870.06	-0.000
870.24	-0.000
870.41	-0.000
870.58	-0.000
870.75	-0.000
870.92	-0.000
871.09	-0.000
871.26	-0.000
871.43	-0.000
871.60	-0.000
871.77	-0.000
871.94	-0.000
872.11	-0.000
872.28	-0.000
872.45	-0.000
872.62	-0.000
872.79	-0.000
872.96	-0.000
873.13	-0.000
873.30	-0.000
873.47	-0.000
873.64	-0.000
873.81	-0.000
873.98	-0.000
874.15	-0.000
874.32	-0.000
874.49	-0.000
874.66	-0.000
874.83	-0.000
875.00	-0.000
875.17	-0.000
875.34	-0.000
875.51	-0.000
875.68	-0.000
875.85	-0.000
876.02	-0.000
876.19	-0.000
876.36	-0.000
876.53	-0.000
876.70	-0.000
876.87	-0.000
877.04	-0.000
877.21	-0.000
877.38	-0.000
877.55	-0.000
877.72	-0.000
877.89	-0.000
878.06	-0.000
878.23	-0.000
878.39	-0.000
878.56	-0.000
878.73	-0.000
878.90	-0.000
879.07	-0.000
879.24	-0.000
879.41	-0.000
879.58	-0.000
879.75	-0.000
879.92	-0.000
880.09	-0.000
880.26	-0.000
880.43	-0.000
880.60	-0.000
880.77	-0.000
880.94	-0.000
881.11	-0.000
881.27	-0.000
881.44	-0.000
881.61	-0.000
881.78	-0.000
881.95	-0.000
882.12	-0.000
882.29	-0.000
882.46	-0.000
882.63	-0.000
882.80	-0.000
882.97	-0.000
883.14	-0.000
883.30	-0.000
883.47	-0.000
883.64	-0.000
883.81	-0.000
883.98	-0.000
884.15	-0.000
884.32	-0.000
884.49	-0.000
884.66	-0.000
884.82	-0.000
884.99	-0.000
885.16	-0.000
885.33	-0.000
885.50	-0.000
885.67	-0.000
885.84	-0.000
886.01	-0.000
886.17	-0.000
886.34	-0.000
886.51	-0.000
886.68	-0.000
886.85	-0.000
887.02	-0.000
887.19	-0.000
887.36	-0.000
887.52	-0.000
887.69	-0.000
887.86	-0.000
888.03	-0.000
888.20	-0.000
888.37	-0.000
888.54	-0.000
888.70	-0.000
888.87	-0.000
889.04	-0.000
889.21	-0.000
889.38	-0.000
889.55	-0.000
889.71	-0.000
889.88	-0.000
890.05	-0.000
890.22	-0.000
890.39	-0.000
>>>>>End Processed Spectral Data<<<<<
