SpectraSuite Data File
++++++++++++++++++++++++++++++++++++
Date: Fri Jun 19 14:58:54 CEST 2015
User: introlabs
Dark Spectrum Present: Yes
Reference Spectrum Present: Yes
Number of Sampled Component Spectra: 1
Spectrometers: USB4H08886
Integration Time (usec): 745692 (USB4H08886)
Spectra Averaged: 5 (USB4H08886)
Boxcar Smoothing: 5 (USB4H08886)
Correct for Electrical Dark: Yes (USB4H08886)
Strobe/Lamp Enabled: No (USB4H08886)
Correct for Detector Non-linearity: Yes (USB4H08886)
Correct for Stray Light: Yes (USB4H08886)
Number of Pixels in Processed Spectrum: 3648
>>>>>Begin Processed Spectral Data<<<<<
178.14	-0.000
178.36	-0.000
178.57	-0.000
178.79	-0.000
179.01	-0.000
179.22	-0.000
179.44	-0.000
179.65	-0.000
179.87	-0.000
180.08	-0.000
180.30	-0.000
180.52	-0.000
180.73	-0.000
180.95	-0.000
181.16	-0.000
181.38	-0.000
181.59	-0.000
181.81	-0.000
182.03	-0.000
182.24	-0.000
182.46	-0.000
182.67	-0.000
182.89	-0.000
183.10	-0.000
183.32	-0.000
183.54	-0.000
183.75	-0.000
183.97	-0.000
184.18	-0.000
184.40	-0.000
184.61	-0.000
184.83	-0.000
185.04	-0.000
185.26	-0.000
185.48	-0.000
185.69	-0.000
185.91	-0.000
186.12	-0.000
186.34	-0.000
186.55	-0.000
186.77	-0.000
186.98	-0.000
187.20	-0.000
187.42	-0.000
187.63	-0.000
187.85	-0.000
188.06	-0.000
188.28	-0.000
188.49	-0.000
188.71	-0.000
188.92	-0.000
189.14	-0.000
189.36	-0.000
189.57	-0.000
189.79	-0.000
190.00	-0.000
190.22	-0.000
190.43	-0.000
190.65	-0.000
190.86	-0.000
191.08	-0.000
191.29	-0.000
191.51	-0.000
191.72	-0.000
191.94	-0.000
192.16	-0.000
192.37	-0.000
192.59	-0.000
192.80	-0.000
193.02	-0.000
193.23	-0.000
193.45	-0.000
193.66	-0.000
193.88	-0.000
194.09	-0.000
194.31	-0.000
194.52	-0.000
194.74	-0.000
194.95	-0.000
195.17	-0.000
195.38	-0.000
195.60	-0.000
195.81	-0.000
196.03	-0.000
196.25	-0.000
196.46	-0.000
196.68	-0.000
196.89	-0.000
197.11	-0.000
197.32	-0.000
197.54	-0.000
197.75	-0.000
197.97	-0.000
198.18	-0.000
198.40	-0.000
198.61	-0.000
198.83	-0.000
199.04	-0.000
199.26	-0.000
199.47	-0.000
199.69	-0.000
199.90	-0.000
200.12	-0.000
200.33	-0.000
200.55	-0.000
200.76	-0.000
200.98	-0.000
201.19	-0.000
201.41	-0.000
201.62	-0.000
201.84	-0.000
202.05	-0.000
202.27	-0.000
202.48	-0.000
202.70	-0.000
202.91	-0.000
203.13	-0.000
203.34	-0.000
203.56	-0.000
203.77	-0.000
203.99	-0.000
204.20	-0.000
204.42	-0.000
204.63	-0.000
204.85	-0.000
205.06	-0.000
205.28	-0.000
205.49	-0.000
205.71	-0.000
205.92	-0.000
206.14	-0.000
206.35	-0.000
206.56	-0.000
206.78	-0.000
206.99	-0.000
207.21	-0.000
207.42	-0.000
207.64	-0.000
207.85	-0.000
208.07	-0.000
208.28	-0.000
208.50	-0.000
208.71	-0.000
208.93	-0.000
209.14	-0.000
209.36	-0.000
209.57	-0.000
209.79	-0.000
210.00	-0.000
210.22	-0.000
210.43	-0.000
210.64	-0.000
210.86	-0.000
211.07	-0.000
211.29	-0.000
211.50	-0.000
211.72	-0.000
211.93	-0.000
212.15	-0.000
212.36	-0.000
212.58	-0.000
212.79	-0.000
213.01	-0.000
213.22	-0.000
213.43	-0.000
213.65	-0.000
213.86	-0.000
214.08	-0.000
214.29	-0.000
214.51	-0.000
214.72	-0.000
214.94	-0.000
215.15	-0.000
215.36	-0.000
215.58	-0.000
215.79	-0.000
216.01	-0.000
216.22	-0.000
216.44	-0.000
216.65	-0.000
216.87	-0.000
217.08	-0.000
217.29	-0.000
217.51	-0.000
217.72	-0.000
217.94	-0.000
218.15	-0.000
218.37	-0.000
218.58	-0.000
218.80	-0.000
219.01	-0.000
219.22	-0.000
219.44	-0.000
219.65	-0.000
219.87	-0.000
220.08	-0.000
220.30	-0.000
220.51	-0.000
220.72	-0.000
220.94	-0.000
221.15	-0.000
221.37	-0.000
221.58	-0.000
221.79	-0.000
222.01	-0.000
222.22	-0.000
222.44	-0.000
222.65	-0.000
222.87	-0.000
223.08	-0.000
223.29	-0.000
223.51	-0.000
223.72	-0.000
223.94	-0.000
224.15	-0.000
224.36	-0.000
224.58	-0.000
224.79	-0.000
225.01	-0.000
225.22	-0.000
225.44	-0.000
225.65	-0.000
225.86	-0.000
226.08	-0.000
226.29	-0.000
226.51	-0.000
226.72	-0.000
226.93	-0.000
227.15	-0.000
227.36	-0.000
227.58	-0.000
227.79	-0.000
228.00	-0.000
228.22	-0.000
228.43	-0.000
228.65	-0.000
228.86	-0.000
229.07	-0.000
229.29	-0.000
229.50	-0.000
229.72	-0.000
229.93	-0.000
230.14	-0.000
230.36	-0.000
230.57	-0.000
230.78	-0.000
231.00	-0.000
231.21	-0.000
231.43	-0.000
231.64	-0.000
231.85	-0.000
232.07	-0.000
232.28	-0.000
232.50	-0.000
232.71	-0.000
232.92	-0.000
233.14	-0.000
233.35	-0.000
233.56	-0.000
233.78	-0.000
233.99	-0.000
234.21	-0.000
234.42	-0.000
234.63	-0.000
234.85	-0.000
235.06	-0.000
235.27	-0.000
235.49	-0.000
235.70	-0.000
235.91	-0.000
236.13	-0.000
236.34	-0.000
236.56	-0.000
236.77	-0.000
236.98	-0.000
237.20	-0.000
237.41	-0.000
237.62	-0.000
237.84	-0.000
238.05	-0.000
238.26	-0.000
238.48	-0.000
238.69	-0.000
238.91	-0.000
239.12	-0.000
239.33	-0.000
239.55	-0.000
239.76	-0.000
239.97	-0.000
240.19	-0.000
240.40	-0.000
240.61	-0.000
240.83	-0.000
241.04	-0.000
241.25	-0.000
241.47	-0.000
241.68	-0.000
241.89	-0.000
242.11	-0.000
242.32	-0.000
242.53	-0.000
242.75	-0.000
242.96	-0.000
243.17	-0.000
243.39	-0.000
243.60	-0.000
243.81	-0.000
244.03	-0.000
244.24	-0.000
244.45	-0.000
244.67	-0.000
244.88	-0.000
245.09	-0.000
245.31	-0.000
245.52	-0.000
245.73	-0.000
245.95	-0.000
246.16	-0.000
246.37	-0.000
246.59	-0.000
246.80	-0.000
247.01	-0.000
247.23	-0.000
247.44	-0.000
247.65	-0.000
247.87	-0.000
248.08	-0.000
248.29	-0.000
248.51	-0.000
248.72	-0.000
248.93	-0.000
249.15	-0.000
249.36	-0.000
249.57	-0.000
249.78	-0.000
250.00	-0.000
250.21	-0.000
250.42	-0.000
250.64	-0.000
250.85	-0.000
251.06	-0.000
251.28	-0.000
251.49	-0.000
251.70	-0.000
251.92	-0.000
252.13	-0.000
252.34	-0.000
252.55	-0.000
252.77	-0.000
252.98	-0.000
253.19	-0.000
253.41	-0.000
253.62	-0.000
253.83	-0.000
254.05	-0.000
254.26	-0.000
254.47	-0.000
254.68	-0.000
254.90	-0.000
255.11	-0.000
255.32	-0.000
255.54	-0.000
255.75	-0.000
255.96	-0.000
256.17	-0.000
256.39	-0.000
256.60	-0.000
256.81	-0.000
257.03	-0.000
257.24	-0.000
257.45	-0.000
257.66	-0.000
257.88	-0.000
258.09	-0.000
258.30	-0.000
258.51	-0.000
258.73	-0.000
258.94	-0.000
259.15	-0.000
259.37	-0.000
259.58	-0.000
259.79	-0.000
260.00	-0.000
260.22	-0.000
260.43	-0.000
260.64	-0.000
260.85	-0.000
261.07	-0.000
261.28	-0.000
261.49	-0.000
261.71	-0.000
261.92	-0.000
262.13	-0.000
262.34	-0.000
262.56	-0.000
262.77	-0.000
262.98	-0.000
263.19	-0.000
263.41	-0.000
263.62	-0.000
263.83	-0.000
264.04	-0.000
264.26	-0.000
264.47	-0.000
264.68	-0.000
264.89	-0.000
265.11	-0.000
265.32	-0.000
265.53	-0.000
265.74	-0.000
265.96	-0.000
266.17	-0.000
266.38	-0.000
266.59	-0.000
266.81	-0.000
267.02	-0.000
267.23	-0.000
267.44	-0.000
267.65	-0.000
267.87	-0.000
268.08	-0.000
268.29	-0.000
268.50	-0.000
268.72	-0.000
268.93	-0.000
269.14	-0.000
269.35	-0.000
269.57	-0.000
269.78	-0.000
269.99	-0.000
270.20	-0.000
270.41	-0.000
270.63	-0.000
270.84	-0.000
271.05	-0.000
271.26	-0.000
271.48	-0.000
271.69	-0.000
271.90	-0.000
272.11	-0.000
272.32	-0.000
272.54	-0.000
272.75	-0.000
272.96	-0.000
273.17	-0.000
273.39	-0.000
273.60	-0.000
273.81	-0.000
274.02	-0.000
274.23	-0.000
274.45	-0.000
274.66	-0.000
274.87	-0.000
275.08	-0.000
275.29	-0.000
275.51	-0.000
275.72	-0.000
275.93	-0.000
276.14	-0.000
276.35	-0.000
276.57	-0.000
276.78	-0.000
276.99	-0.000
277.20	-0.000
277.41	-0.000
277.63	-0.000
277.84	-0.000
278.05	-0.000
278.26	-0.000
278.47	-0.000
278.69	-0.000
278.90	-0.000
279.11	-0.000
279.32	-0.000
279.53	-0.000
279.74	-0.000
279.96	-0.000
280.17	-0.000
280.38	-0.000
280.59	-0.000
280.80	-0.000
281.02	-0.000
281.23	-0.000
281.44	-0.000
281.65	-0.000
281.86	-0.000
282.07	-0.000
282.29	-0.000
282.50	-0.000
282.71	-0.000
282.92	-0.000
283.13	-0.000
283.35	-0.000
283.56	-0.000
283.77	-0.000
283.98	-0.000
284.19	-0.000
284.40	-0.000
284.62	-0.000
284.83	-0.000
285.04	-0.000
285.25	-0.000
285.46	-0.000
285.67	-0.000
285.88	-0.000
286.10	-0.000
286.31	-0.000
286.52	-0.000
286.73	-0.000
286.94	-0.000
287.15	-0.000
287.37	-0.000
287.58	-0.000
287.79	-0.000
288.00	-0.000
288.21	-0.000
288.42	-0.000
288.63	-0.000
288.85	-0.000
289.06	-0.000
289.27	-0.000
289.48	-0.000
289.69	-0.000
289.90	-0.000
290.11	-0.000
290.33	-0.000
290.54	-0.000
290.75	-0.000
290.96	-0.000
291.17	-0.000
291.38	-0.000
291.59	-0.000
291.81	-0.000
292.02	-0.000
292.23	-0.000
292.44	-0.000
292.65	-0.000
292.86	-0.000
293.07	-0.000
293.28	-0.000
293.50	-0.000
293.71	-0.000
293.92	-0.000
294.13	-0.000
294.34	-0.000
294.55	-0.000
294.76	-0.000
294.97	-0.000
295.19	-0.000
295.40	-0.000
295.61	-0.000
295.82	-0.000
296.03	-0.000
296.24	-0.000
296.45	2.248
296.66	1.823
296.87	1.850
297.09	1.925
297.30	2.153
297.51	1.741
297.72	1.698
297.93	1.773
298.14	1.735
298.35	1.691
298.56	1.678
298.77	1.805
298.99	1.776
299.20	1.758
299.41	1.728
299.62	1.674
299.83	1.668
300.04	1.606
300.25	1.598
300.46	1.645
300.67	1.618
300.88	1.567
301.10	1.571
301.31	1.645
301.52	1.575
301.73	1.523
301.94	1.530
302.15	1.541
302.36	1.496
302.57	1.433
302.78	1.436
302.99	1.475
303.20	1.497
303.41	1.406
303.63	1.391
303.84	1.398
304.05	1.395
304.26	1.336
304.47	1.342
304.68	1.342
304.89	1.333
305.10	1.293
305.31	1.275
305.52	1.315
305.73	1.308
305.94	1.268
306.15	1.260
306.37	1.279
306.58	1.288
306.79	1.258
307.00	1.283
307.21	1.322
307.42	1.318
307.63	1.286
307.84	1.253
308.05	1.287
308.26	1.286
308.47	1.265
308.68	1.261
308.89	1.256
309.10	1.254
309.31	1.215
309.52	1.206
309.73	1.217
309.95	1.216
310.16	1.187
310.37	1.178
310.58	1.196
310.79	1.197
311.00	1.195
311.21	1.199
311.42	1.200
311.63	1.196
311.84	1.177
312.05	1.175
312.26	1.195
312.47	1.208
312.68	1.182
312.89	1.163
313.10	1.168
313.31	1.140
313.52	1.142
313.73	1.144
313.94	1.143
314.15	1.126
314.36	1.107
314.57	1.100
314.78	1.087
314.99	1.081
315.21	1.071
315.42	1.075
315.63	1.088
315.84	1.064
316.05	1.052
316.26	1.061
316.47	1.079
316.68	1.076
316.89	1.057
317.10	1.077
317.31	1.081
317.52	1.082
317.73	1.061
317.94	1.060
318.15	1.102
318.36	1.102
318.57	1.086
318.78	1.074
318.99	1.106
319.20	1.105
319.41	1.072
319.62	1.075
319.83	1.091
320.04	1.085
320.25	1.074
320.46	1.039
320.67	1.041
320.88	1.036
321.09	1.022
321.30	1.008
321.51	1.023
321.72	1.021
321.93	1.006
322.14	0.998
322.35	1.026
322.56	1.028
322.77	1.018
322.98	1.030
323.19	1.039
323.40	1.046
323.61	1.027
323.82	1.020
324.03	1.025
324.24	1.024
324.45	1.011
324.66	0.991
324.87	0.985
325.08	0.985
325.29	0.965
325.50	0.956
325.71	0.962
325.92	0.969
326.13	0.956
326.34	0.957
326.55	0.963
326.76	0.961
326.97	0.950
327.18	0.945
327.39	0.970
327.60	0.971
327.80	0.973
328.01	0.971
328.22	0.970
328.43	0.973
328.64	0.961
328.85	0.966
329.06	0.968
329.27	0.969
329.48	0.964
329.69	0.945
329.90	0.954
330.11	0.949
330.32	0.943
330.53	0.935
330.74	0.934
330.95	0.932
331.16	0.919
331.37	0.926
331.58	0.926
331.79	0.926
332.00	0.919
332.21	0.913
332.42	0.914
332.63	0.904
332.83	0.901
333.04	0.905
333.25	0.915
333.46	0.912
333.67	0.899
333.88	0.902
334.09	0.911
334.30	0.906
334.51	0.898
334.72	0.895
334.93	0.896
335.14	0.895
335.35	0.888
335.56	0.885
335.77	0.893
335.98	0.892
336.18	0.885
336.39	0.878
336.60	0.883
336.81	0.882
337.02	0.881
337.23	0.886
337.44	0.889
337.65	0.890
337.86	0.880
338.07	0.875
338.28	0.879
338.49	0.877
338.70	0.870
338.91	0.877
339.11	0.883
339.32	0.880
339.53	0.869
339.74	0.866
339.95	0.862
340.16	0.861
340.37	0.854
340.58	0.852
340.79	0.855
341.00	0.854
341.21	0.844
341.41	0.843
341.62	0.844
341.83	0.846
342.04	0.841
342.25	0.852
342.46	0.855
342.67	0.854
342.88	0.848
343.09	0.846
343.30	0.854
343.50	0.857
343.71	0.848
343.92	0.845
344.13	0.849
344.34	0.848
344.55	0.832
344.76	0.831
344.97	0.835
345.18	0.834
345.38	0.832
345.59	0.826
345.80	0.825
346.01	0.824
346.22	0.821
346.43	0.815
346.64	0.823
346.85	0.822
347.06	0.816
347.26	0.816
347.47	0.819
347.68	0.814
347.89	0.810
348.10	0.806
348.31	0.811
348.52	0.810
348.73	0.807
348.93	0.805
349.14	0.807
349.35	0.806
349.56	0.801
349.77	0.796
349.98	0.802
350.19	0.800
350.39	0.794
350.60	0.791
350.81	0.807
351.02	0.805
351.23	0.800
351.44	0.802
351.65	0.804
351.86	0.803
352.06	0.802
352.27	0.801
352.48	0.803
352.69	0.803
352.90	0.797
353.11	0.784
353.31	0.791
353.52	0.788
353.73	0.781
353.94	0.783
354.15	0.787
354.36	0.787
354.57	0.778
354.77	0.780
354.98	0.779
355.19	0.780
355.40	0.780
355.61	0.785
355.82	0.789
356.02	0.788
356.23	0.782
356.44	0.783
356.65	0.786
356.86	0.787
357.07	0.780
357.27	0.784
357.48	0.786
357.69	0.781
357.90	0.767
358.11	0.763
358.32	0.766
358.52	0.768
358.73	0.759
358.94	0.762
359.15	0.766
359.36	0.766
359.56	0.761
359.77	0.758
359.98	0.765
360.19	0.764
360.40	0.762
360.61	0.762
360.81	0.761
361.02	0.761
361.23	0.753
361.44	0.751
361.65	0.752
361.85	0.751
362.06	0.749
362.27	0.751
362.48	0.751
362.69	0.754
362.89	0.748
363.10	0.749
363.31	0.754
363.52	0.757
363.73	0.752
363.93	0.751
364.14	0.754
364.35	0.755
364.56	0.746
364.77	0.747
364.97	0.750
365.18	0.750
365.39	0.746
365.60	0.743
365.81	0.744
366.01	0.744
366.22	0.742
366.43	0.741
366.64	0.743
366.84	0.748
367.05	0.746
367.26	0.745
367.47	0.747
367.68	0.747
367.88	0.745
368.09	0.741
368.30	0.743
368.51	0.742
368.71	0.742
368.92	0.747
369.13	0.744
369.34	0.743
369.55	0.742
369.75	0.741
369.96	0.748
370.17	0.747
370.38	0.745
370.58	0.744
370.79	0.749
371.00	0.747
371.21	0.738
371.41	0.742
371.62	0.747
371.83	0.742
372.04	0.740
372.24	0.733
372.45	0.735
372.66	0.735
372.87	0.732
373.07	0.729
373.28	0.730
373.49	0.734
373.70	0.726
373.90	0.725
374.11	0.733
374.32	0.732
374.53	0.732
374.73	0.732
374.94	0.734
375.15	0.735
375.36	0.733
375.56	0.741
375.77	0.742
375.98	0.741
376.19	0.739
376.39	0.733
376.60	0.736
376.81	0.736
377.02	0.734
377.22	0.732
377.43	0.732
377.64	0.732
377.84	0.723
378.05	0.727
378.26	0.733
378.47	0.731
378.67	0.729
378.88	0.727
379.09	0.728
379.30	0.728
379.50	0.726
379.71	0.728
379.92	0.731
380.12	0.731
380.33	0.723
380.54	0.718
380.75	0.726
380.95	0.726
381.16	0.724
381.37	0.724
381.57	0.726
381.78	0.726
381.99	0.725
382.20	0.725
382.40	0.728
382.61	0.729
382.82	0.726
383.02	0.719
383.23	0.721
383.44	0.721
383.64	0.720
383.85	0.723
384.06	0.726
384.27	0.724
384.47	0.722
384.68	0.722
384.89	0.727
385.09	0.726
385.30	0.725
385.51	0.725
385.71	0.728
385.92	0.729
386.13	0.727
386.33	0.729
386.54	0.729
386.75	0.729
386.95	0.725
387.16	0.720
387.37	0.723
387.58	0.723
387.78	0.721
387.99	0.719
388.20	0.720
388.40	0.718
388.61	0.714
388.82	0.717
389.02	0.719
389.23	0.720
389.44	0.719
389.64	0.720
389.85	0.730
390.06	0.730
390.26	0.731
390.47	0.730
390.68	0.732
390.88	0.730
391.09	0.726
391.30	0.726
391.50	0.725
391.71	0.725
391.92	0.721
392.12	0.714
392.33	0.715
392.53	0.715
392.74	0.715
392.95	0.715
393.15	0.717
393.36	0.719
393.57	0.717
393.77	0.720
393.98	0.723
394.19	0.723
394.39	0.722
394.60	0.724
394.81	0.725
395.01	0.723
395.22	0.721
395.43	0.722
395.63	0.727
395.84	0.728
396.04	0.724
396.25	0.726
396.46	0.728
396.66	0.726
396.87	0.724
397.08	0.722
397.28	0.724
397.49	0.726
397.69	0.722
397.90	0.717
398.11	0.718
398.31	0.719
398.52	0.716
398.73	0.717
398.93	0.716
399.14	0.715
399.34	0.714
399.55	0.715
399.76	0.715
399.96	0.716
400.17	0.714
400.37	0.713
400.58	0.719
400.79	0.721
400.99	0.718
401.20	0.723
401.41	0.725
401.61	0.726
401.82	0.731
402.02	0.731
402.23	0.731
402.44	0.731
402.64	0.731
402.85	0.726
403.05	0.725
403.26	0.724
403.47	0.718
403.67	0.717
403.88	0.718
404.08	0.712
404.29	0.711
404.50	0.710
404.70	0.711
404.91	0.710
405.11	0.708
405.32	0.709
405.52	0.709
405.73	0.709
405.94	0.708
406.14	0.710
406.35	0.712
406.55	0.712
406.76	0.710
406.97	0.711
407.17	0.713
407.38	0.713
407.58	0.711
407.79	0.714
407.99	0.716
408.20	0.717
408.41	0.713
408.61	0.712
408.82	0.713
409.02	0.712
409.23	0.710
409.43	0.709
409.64	0.711
409.84	0.710
410.05	0.707
410.26	0.706
410.46	0.705
410.67	0.704
410.87	0.706
411.08	0.708
411.28	0.709
411.49	0.711
411.69	0.708
411.90	0.710
412.11	0.711
412.31	0.712
412.52	0.711
412.72	0.711
412.93	0.712
413.13	0.710
413.34	0.706
413.54	0.708
413.75	0.709
413.95	0.709
414.16	0.705
414.37	0.708
414.57	0.708
414.78	0.710
414.98	0.708
415.19	0.710
415.39	0.707
415.60	0.709
415.80	0.708
416.01	0.707
416.21	0.708
416.42	0.708
416.62	0.703
416.83	0.703
417.03	0.703
417.24	0.703
417.44	0.701
417.65	0.700
417.86	0.701
418.06	0.699
418.27	0.698
418.47	0.700
418.68	0.700
418.88	0.700
419.09	0.698
419.29	0.699
419.50	0.699
419.70	0.699
419.91	0.698
420.11	0.696
420.32	0.699
420.52	0.699
420.73	0.698
420.93	0.699
421.14	0.700
421.34	0.699
421.55	0.695
421.75	0.695
421.96	0.696
422.16	0.696
422.37	0.695
422.57	0.692
422.78	0.693
422.98	0.689
423.19	0.687
423.39	0.686
423.60	0.690
423.80	0.692
424.01	0.690
424.21	0.692
424.42	0.693
424.62	0.692
424.83	0.691
425.03	0.691
425.23	0.693
425.44	0.693
425.64	0.693
425.85	0.691
426.05	0.692
426.26	0.693
426.46	0.690
426.67	0.689
426.87	0.694
427.08	0.695
427.28	0.693
427.49	0.694
427.69	0.694
427.90	0.693
428.10	0.691
428.31	0.691
428.51	0.692
428.71	0.691
428.92	0.692
429.12	0.689
429.33	0.690
429.53	0.694
429.74	0.698
429.94	0.698
430.15	0.697
430.35	0.697
430.56	0.694
430.76	0.694
430.96	0.694
431.17	0.692
431.37	0.689
431.58	0.687
431.78	0.684
431.99	0.677
432.19	0.679
432.40	0.681
432.60	0.681
432.80	0.683
433.01	0.682
433.21	0.681
433.42	0.683
433.62	0.684
433.83	0.684
434.03	0.686
434.23	0.689
434.44	0.688
434.64	0.685
434.85	0.691
435.05	0.692
435.26	0.692
435.46	0.691
435.66	0.690
435.87	0.690
436.07	0.690
436.28	0.686
436.48	0.683
436.69	0.683
436.89	0.683
437.09	0.677
437.30	0.675
437.50	0.675
437.71	0.687
437.91	0.687
438.11	0.688
438.32	0.692
438.52	0.693
438.73	0.692
438.93	0.690
439.13	0.690
439.34	0.693
439.54	0.690
439.75	0.691
439.95	0.681
440.15	0.684
440.36	0.683
440.56	0.681
440.77	0.682
440.97	0.681
441.17	0.680
441.38	0.681
441.58	0.679
441.79	0.677
441.99	0.676
442.19	0.675
442.40	0.673
442.60	0.671
442.81	0.669
443.01	0.669
443.21	0.669
443.42	0.669
443.62	0.667
443.82	0.667
444.03	0.668
444.23	0.668
444.44	0.668
444.64	0.667
444.84	0.669
445.05	0.668
445.25	0.666
445.45	0.666
445.66	0.668
445.86	0.668
446.06	0.669
446.27	0.669
446.47	0.672
446.68	0.670
446.88	0.669
447.08	0.669
447.29	0.670
447.49	0.670
447.69	0.670
447.90	0.669
448.10	0.673
448.30	0.670
448.51	0.671
448.71	0.669
448.91	0.671
449.12	0.670
449.32	0.672
449.52	0.671
449.73	0.674
449.93	0.674
450.14	0.674
450.34	0.672
450.54	0.675
450.75	0.672
450.95	0.671
451.15	0.670
451.36	0.672
451.56	0.669
451.76	0.668
451.97	0.665
452.17	0.665
452.37	0.664
452.58	0.661
452.78	0.661
452.98	0.663
453.19	0.662
453.39	0.662
453.59	0.661
453.79	0.662
454.00	0.663
454.20	0.662
454.40	0.663
454.61	0.664
454.81	0.665
455.01	0.663
455.22	0.664
455.42	0.666
455.62	0.664
455.83	0.664
456.03	0.667
456.23	0.667
456.44	0.668
456.64	0.667
456.84	0.667
457.04	0.668
457.25	0.667
457.45	0.664
457.65	0.663
457.86	0.664
458.06	0.662
458.26	0.658
458.47	0.658
458.67	0.659
458.87	0.658
459.07	0.656
459.28	0.658
459.48	0.660
459.68	0.660
459.89	0.659
460.09	0.658
460.29	0.659
460.49	0.660
460.70	0.660
460.90	0.660
461.10	0.660
461.31	0.660
461.51	0.657
461.71	0.659
461.91	0.660
462.12	0.660
462.32	0.659
462.52	0.660
462.72	0.663
462.93	0.663
463.13	0.661
463.33	0.662
463.53	0.664
463.74	0.663
463.94	0.658
464.14	0.659
464.35	0.660
464.55	0.660
464.75	0.658
464.95	0.656
465.16	0.658
465.36	0.657
465.56	0.656
465.76	0.655
465.97	0.656
466.17	0.656
466.37	0.655
466.57	0.655
466.78	0.655
466.98	0.655
467.18	0.653
467.38	0.651
467.59	0.653
467.79	0.654
467.99	0.654
468.19	0.654
468.39	0.657
468.60	0.657
468.80	0.656
469.00	0.657
469.20	0.659
469.41	0.659
469.61	0.659
469.81	0.659
470.01	0.658
470.22	0.659
470.42	0.658
470.62	0.656
470.82	0.657
471.02	0.657
471.23	0.655
471.43	0.655
471.63	0.657
471.83	0.657
472.04	0.655
472.24	0.655
472.44	0.659
472.64	0.659
472.84	0.657
473.05	0.656
473.25	0.659
473.45	0.657
473.65	0.655
473.85	0.656
474.06	0.657
474.26	0.657
474.46	0.658
474.66	0.654
474.86	0.656
475.07	0.656
475.27	0.655
475.47	0.652
475.67	0.653
475.87	0.655
476.08	0.651
476.28	0.653
476.48	0.654
476.68	0.652
476.88	0.650
477.09	0.651
477.29	0.653
477.49	0.653
477.69	0.652
477.89	0.652
478.09	0.651
478.30	0.654
478.50	0.650
478.70	0.650
478.90	0.650
479.10	0.653
479.31	0.654
479.51	0.652
479.71	0.653
479.91	0.653
480.11	0.652
480.31	0.653
480.52	0.652
480.72	0.652
480.92	0.651
481.12	0.650
481.32	0.647
481.52	0.645
481.72	0.645
481.93	0.649
482.13	0.649
482.33	0.649
482.53	0.647
482.73	0.647
482.93	0.649
483.14	0.648
483.34	0.647
483.54	0.648
483.74	0.647
483.94	0.646
484.14	0.642
484.34	0.642
484.55	0.643
484.75	0.642
484.95	0.641
485.15	0.641
485.35	0.641
485.55	0.640
485.75	0.639
485.96	0.639
486.16	0.641
486.36	0.640
486.56	0.638
486.76	0.638
486.96	0.638
487.16	0.637
487.36	0.636
487.57	0.635
487.77	0.636
487.97	0.636
488.17	0.634
488.37	0.633
488.57	0.634
488.77	0.634
488.97	0.633
489.18	0.633
489.38	0.635
489.58	0.636
489.78	0.635
489.98	0.634
490.18	0.635
490.38	0.635
490.58	0.634
490.78	0.635
490.98	0.636
491.19	0.637
491.39	0.636
491.59	0.634
491.79	0.637
491.99	0.637
492.19	0.637
492.39	0.640
492.59	0.641
492.79	0.643
492.99	0.644
493.20	0.643
493.40	0.643
493.60	0.645
493.80	0.644
494.00	0.641
494.20	0.642
494.40	0.642
494.60	0.639
494.80	0.643
495.00	0.642
495.20	0.640
495.40	0.639
495.61	0.640
495.81	0.640
496.01	0.643
496.21	0.644
496.41	0.643
496.61	0.644
496.81	0.643
497.01	0.638
497.21	0.637
497.41	0.638
497.61	0.637
497.81	0.635
498.01	0.635
498.21	0.633
498.41	0.631
498.61	0.632
498.82	0.633
499.02	0.635
499.22	0.635
499.42	0.635
499.62	0.636
499.82	0.637
500.02	0.638
500.22	0.637
500.42	0.639
500.62	0.639
500.82	0.639
501.02	0.637
501.22	0.637
501.42	0.637
501.62	0.639
501.82	0.638
502.02	0.638
502.22	0.637
502.42	0.639
502.62	0.637
502.82	0.637
503.02	0.637
503.22	0.637
503.42	0.635
503.63	0.635
503.83	0.633
504.03	0.632
504.23	0.631
504.43	0.632
504.63	0.633
504.83	0.633
505.03	0.632
505.23	0.634
505.43	0.636
505.63	0.637
505.83	0.636
506.03	0.638
506.23	0.640
506.43	0.640
506.63	0.639
506.83	0.637
507.03	0.639
507.23	0.640
507.43	0.637
507.63	0.638
507.83	0.638
508.03	0.639
508.23	0.638
508.43	0.638
508.63	0.639
508.83	0.640
509.03	0.640
509.23	0.638
509.43	0.639
509.63	0.640
509.83	0.638
510.03	0.641
510.23	0.642
510.43	0.643
510.63	0.642
510.83	0.643
511.03	0.644
511.23	0.642
511.43	0.642
511.63	0.643
511.83	0.645
512.03	0.645
512.22	0.642
512.42	0.641
512.62	0.642
512.82	0.642
513.02	0.641
513.22	0.640
513.42	0.642
513.62	0.645
513.82	0.643
514.02	0.643
514.22	0.643
514.42	0.644
514.62	0.644
514.82	0.644
515.02	0.645
515.22	0.649
515.42	0.648
515.62	0.650
515.82	0.649
516.02	0.650
516.22	0.650
516.42	0.651
516.62	0.653
516.82	0.654
517.01	0.653
517.21	0.652
517.41	0.655
517.61	0.655
517.81	0.652
518.01	0.651
518.21	0.651
518.41	0.650
518.61	0.649
518.81	0.650
519.01	0.650
519.21	0.650
519.41	0.650
519.61	0.645
519.81	0.647
520.00	0.648
520.20	0.648
520.40	0.651
520.60	0.652
520.80	0.651
521.00	0.651
521.20	0.652
521.40	0.657
521.60	0.657
521.80	0.656
522.00	0.656
522.20	0.659
522.39	0.658
522.59	0.655
522.79	0.657
522.99	0.659
523.19	0.658
523.39	0.656
523.59	0.654
523.79	0.657
523.99	0.658
524.19	0.658
524.38	0.656
524.58	0.658
524.78	0.658
524.98	0.656
525.18	0.658
525.38	0.659
525.58	0.659
525.78	0.657
525.98	0.655
526.18	0.655
526.37	0.654
526.57	0.656
526.77	0.655
526.97	0.656
527.17	0.657
527.37	0.653
527.57	0.655
527.77	0.657
527.96	0.657
528.16	0.656
528.36	0.658
528.56	0.660
528.76	0.657
528.96	0.656
529.16	0.657
529.36	0.660
529.55	0.660
529.75	0.656
529.95	0.656
530.15	0.658
530.35	0.661
530.55	0.658
530.75	0.658
530.94	0.659
531.14	0.659
531.34	0.658
531.54	0.656
531.74	0.659
531.94	0.663
532.13	0.661
532.33	0.662
532.53	0.661
532.73	0.661
532.93	0.659
533.13	0.661
533.33	0.661
533.52	0.661
533.72	0.664
533.92	0.662
534.12	0.661
534.32	0.662
534.52	0.659
534.71	0.662
534.91	0.664
535.11	0.665
535.31	0.663
535.51	0.665
535.71	0.667
535.90	0.664
536.10	0.665
536.30	0.667
536.50	0.668
536.70	0.668
536.89	0.666
537.09	0.666
537.29	0.667
537.49	0.668
537.69	0.666
537.89	0.667
538.08	0.667
538.28	0.665
538.48	0.665
538.68	0.666
538.88	0.668
539.07	0.668
539.27	0.666
539.47	0.665
539.67	0.664
539.87	0.666
540.06	0.664
540.26	0.664
540.46	0.666
540.66	0.663
540.86	0.661
541.05	0.661
541.25	0.663
541.45	0.663
541.65	0.662
541.84	0.664
542.04	0.665
542.24	0.665
542.44	0.665
542.64	0.666
542.83	0.669
543.03	0.670
543.23	0.667
543.43	0.668
543.62	0.669
543.82	0.669
544.02	0.667
544.22	0.667
544.42	0.671
544.61	0.671
544.81	0.668
545.01	0.667
545.21	0.669
545.40	0.669
545.60	0.668
545.80	0.671
546.00	0.671
546.19	0.671
546.39	0.670
546.59	0.667
546.79	0.668
546.98	0.669
547.18	0.668
547.38	0.669
547.58	0.671
547.77	0.671
547.97	0.667
548.17	0.669
548.37	0.669
548.56	0.669
548.76	0.669
548.96	0.671
549.16	0.673
549.35	0.673
549.55	0.671
549.75	0.672
549.95	0.675
550.14	0.675
550.34	0.674
550.54	0.679
550.73	0.683
550.93	0.683
551.13	0.680
551.33	0.678
551.52	0.679
551.72	0.680
551.92	0.678
552.12	0.679
552.31	0.680
552.51	0.680
552.71	0.675
552.90	0.674
553.10	0.675
553.30	0.675
553.50	0.674
553.69	0.674
553.89	0.675
554.09	0.675
554.28	0.672
554.48	0.673
554.68	0.674
554.87	0.675
555.07	0.672
555.27	0.672
555.47	0.674
555.66	0.675
555.86	0.674
556.06	0.675
556.25	0.677
556.45	0.684
556.65	0.683
556.84	0.686
557.04	0.688
557.24	0.690
557.43	0.690
557.63	0.692
557.83	0.694
558.02	0.695
558.22	0.699
558.42	0.699
558.61	0.693
558.81	0.693
559.01	0.689
559.21	0.689
559.40	0.690
559.60	0.690
559.80	0.686
559.99	0.687
560.19	0.689
560.39	0.683
560.58	0.681
560.78	0.681
560.97	0.684
561.17	0.683
561.37	0.680
561.56	0.682
561.76	0.683
561.96	0.683
562.15	0.680
562.35	0.682
562.55	0.684
562.74	0.684
562.94	0.683
563.14	0.681
563.33	0.682
563.53	0.682
563.73	0.679
563.92	0.680
564.12	0.683
564.31	0.686
564.51	0.684
564.71	0.685
564.90	0.688
565.10	0.689
565.30	0.691
565.49	0.692
565.69	0.695
565.89	0.696
566.08	0.692
566.28	0.693
566.47	0.696
566.67	0.694
566.87	0.691
567.06	0.693
567.26	0.699
567.46	0.694
567.65	0.694
567.85	0.695
568.04	0.698
568.24	0.698
568.44	0.696
568.63	0.694
568.83	0.695
569.02	0.694
569.22	0.690
569.42	0.686
569.61	0.689
569.81	0.688
570.00	0.685
570.20	0.686
570.40	0.687
570.59	0.687
570.79	0.685
570.98	0.683
571.18	0.684
571.38	0.684
571.57	0.681
571.77	0.679
571.96	0.682
572.16	0.680
572.35	0.674
572.55	0.675
572.75	0.673
572.94	0.673
573.14	0.672
573.33	0.672
573.53	0.673
573.73	0.672
573.92	0.670
574.12	0.668
574.31	0.671
574.51	0.671
574.70	0.669
574.90	0.670
575.09	0.673
575.29	0.673
575.49	0.670
575.68	0.671
575.88	0.671
576.07	0.672
576.27	0.671
576.46	0.669
576.66	0.669
576.86	0.668
577.05	0.665
577.25	0.663
577.44	0.665
577.64	0.666
577.83	0.664
578.03	0.666
578.22	0.666
578.42	0.665
578.61	0.663
578.81	0.664
579.00	0.664
579.20	0.664
579.40	0.662
579.59	0.661
579.79	0.661
579.98	0.661
580.18	0.660
580.37	0.660
580.57	0.662
580.76	0.667
580.96	0.665
581.15	0.665
581.35	0.667
581.54	0.667
581.74	0.667
581.93	0.668
582.13	0.669
582.32	0.666
582.52	0.665
582.71	0.664
582.91	0.660
583.10	0.660
583.30	0.659
583.49	0.658
583.69	0.662
583.88	0.663
584.08	0.662
584.27	0.664
584.47	0.667
584.66	0.668
584.86	0.667
585.05	0.669
585.25	0.671
585.44	0.671
585.64	0.669
585.83	0.666
586.03	0.666
586.22	0.664
586.42	0.661
586.61	0.662
586.81	0.664
587.00	0.664
587.20	0.662
587.39	0.662
587.59	0.665
587.78	0.666
587.98	0.667
588.17	0.668
588.37	0.670
588.56	0.672
588.76	0.668
588.95	0.668
589.15	0.672
589.34	0.674
589.54	0.673
589.73	0.674
589.92	0.677
590.12	0.677
590.31	0.674
590.51	0.680
590.70	0.682
590.90	0.682
591.09	0.681
591.29	0.679
591.48	0.679
591.68	0.679
591.87	0.678
592.06	0.677
592.26	0.680
592.45	0.679
592.65	0.673
592.84	0.672
593.04	0.675
593.23	0.676
593.43	0.674
593.62	0.674
593.81	0.674
594.01	0.673
594.20	0.670
594.40	0.670
594.59	0.671
594.79	0.671
594.98	0.670
595.17	0.668
595.37	0.669
595.56	0.671
595.76	0.671
595.95	0.673
596.14	0.676
596.34	0.677
596.53	0.676
596.73	0.678
596.92	0.680
597.12	0.683
597.31	0.683
597.50	0.682
597.70	0.685
597.89	0.684
598.09	0.680
598.28	0.681
598.47	0.683
598.67	0.682
598.86	0.678
599.06	0.679
599.25	0.679
599.44	0.677
599.64	0.674
599.83	0.671
600.03	0.674
600.22	0.674
600.41	0.674
600.61	0.672
600.80	0.675
601.00	0.675
601.19	0.671
601.38	0.670
601.58	0.672
601.77	0.673
601.96	0.676
602.16	0.676
602.35	0.685
602.55	0.682
602.74	0.684
602.93	0.685
603.13	0.691
603.32	0.692
603.51	0.692
603.71	0.695
603.90	0.697
604.09	0.698
604.29	0.695
604.48	0.690
604.68	0.691
604.87	0.689
605.06	0.685
605.26	0.682
605.45	0.683
605.64	0.682
605.84	0.677
606.03	0.675
606.22	0.673
606.42	0.673
606.61	0.669
606.80	0.669
607.00	0.671
607.19	0.672
607.38	0.670
607.58	0.671
607.77	0.674
607.96	0.674
608.16	0.673
608.35	0.677
608.54	0.680
608.74	0.683
608.93	0.688
609.12	0.691
609.32	0.693
609.51	0.696
609.70	0.695
609.90	0.697
610.09	0.701
610.28	0.707
610.48	0.701
610.67	0.701
610.86	0.702
611.06	0.697
611.25	0.694
611.44	0.695
611.64	0.696
611.83	0.698
612.02	0.695
612.21	0.693
612.41	0.691
612.60	0.691
612.79	0.688
612.99	0.688
613.18	0.690
613.37	0.688
613.57	0.684
613.76	0.686
613.95	0.684
614.14	0.684
614.34	0.681
614.53	0.682
614.72	0.685
614.92	0.685
615.11	0.682
615.30	0.679
615.49	0.681
615.69	0.684
615.88	0.680
616.07	0.680
616.26	0.682
616.46	0.683
616.65	0.680
616.84	0.679
617.04	0.681
617.23	0.683
617.42	0.684
617.61	0.688
617.81	0.688
618.00	0.690
618.19	0.689
618.38	0.694
618.58	0.698
618.77	0.700
618.96	0.699
619.15	0.700
619.35	0.702
619.54	0.703
619.73	0.699
619.92	0.701
620.12	0.706
620.31	0.706
620.50	0.700
620.69	0.699
620.89	0.702
621.08	0.702
621.27	0.702
621.46	0.701
621.66	0.704
621.85	0.704
622.04	0.700
622.23	0.701
622.43	0.702
622.62	0.701
622.81	0.701
623.00	0.700
623.19	0.704
623.39	0.704
623.58	0.701
623.77	0.700
623.96	0.703
624.16	0.703
624.35	0.698
624.54	0.701
624.73	0.704
624.92	0.703
625.12	0.700
625.31	0.701
625.50	0.703
625.69	0.703
625.88	0.699
626.08	0.698
626.27	0.699
626.46	0.700
626.65	0.697
626.84	0.696
627.04	0.701
627.23	0.701
627.42	0.697
627.61	0.699
627.80	0.702
628.00	0.702
628.19	0.701
628.38	0.704
628.57	0.706
628.76	0.705
628.96	0.702
629.15	0.703
629.34	0.706
629.53	0.706
629.72	0.700
629.91	0.701
630.11	0.705
630.30	0.705
630.49	0.708
630.68	0.708
630.87	0.712
631.06	0.714
631.26	0.708
631.45	0.710
631.64	0.718
631.83	0.720
632.02	0.717
632.21	0.717
632.41	0.724
632.60	0.719
632.79	0.717
632.98	0.717
633.17	0.718
633.36	0.720
633.55	0.717
633.75	0.713
633.94	0.715
634.13	0.715
634.32	0.713
634.51	0.707
634.70	0.709
634.89	0.709
635.09	0.706
635.28	0.706
635.47	0.707
635.66	0.709
635.85	0.705
636.04	0.706
636.23	0.711
636.43	0.712
636.62	0.710
636.81	0.709
637.00	0.711
637.19	0.715
637.38	0.711
637.57	0.711
637.76	0.712
637.95	0.713
638.15	0.709
638.34	0.705
638.53	0.708
638.72	0.710
638.91	0.707
639.10	0.705
639.29	0.705
639.48	0.706
639.67	0.706
639.87	0.706
640.06	0.711
640.25	0.711
640.44	0.712
640.63	0.712
640.82	0.714
641.01	0.715
641.20	0.715
641.39	0.717
641.58	0.719
641.78	0.717
641.97	0.713
642.16	0.728
642.35	0.729
642.54	0.728
642.73	0.722
642.92	0.721
643.11	0.724
643.30	0.724
643.49	0.719
643.68	0.722
643.87	0.723
644.06	0.723
644.25	0.703
644.45	0.706
644.64	0.706
644.83	0.707
645.02	0.704
645.21	0.703
645.40	0.705
645.59	0.704
645.78	0.698
645.97	0.700
646.16	0.701
646.35	0.701
646.54	0.699
646.73	0.701
646.92	0.703
647.11	0.702
647.30	0.700
647.49	0.701
647.68	0.701
647.88	0.699
648.07	0.693
648.26	0.696
648.45	0.697
648.64	0.693
648.83	0.690
649.02	0.692
649.21	0.702
649.40	0.701
649.59	0.696
649.78	0.697
649.97	0.712
650.16	0.711
650.35	0.706
650.54	0.708
650.73	0.716
650.92	0.712
651.11	0.706
651.30	0.703
651.49	0.708
651.68	0.709
651.87	0.706
652.06	0.696
652.25	0.698
652.44	0.701
652.63	0.700
652.82	0.701
653.01	0.702
653.20	0.700
653.39	0.689
653.58	0.687
653.77	0.685
653.96	0.681
654.15	0.673
654.34	0.672
654.53	0.667
654.72	0.661
654.91	0.651
655.10	0.647
655.29	0.645
655.48	0.643
655.67	0.638
655.86	0.635
656.05	0.634
656.24	0.633
656.43	0.628
656.62	0.627
656.81	0.626
657.00	0.623
657.19	0.620
657.38	0.620
657.57	0.618
657.76	0.620
657.95	0.618
658.14	0.621
658.33	0.623
658.51	0.628
658.70	0.627
658.89	0.630
659.08	0.640
659.27	0.647
659.46	0.648
659.65	0.655
659.84	0.659
660.03	0.663
660.22	0.663
660.41	0.666
660.60	0.666
660.79	0.668
660.98	0.674
661.17	0.672
661.36	0.671
661.55	0.672
661.74	0.670
661.92	0.673
662.11	0.676
662.30	0.674
662.49	0.668
662.68	0.668
662.87	0.671
663.06	0.665
663.25	0.666
663.44	0.667
663.63	0.667
663.82	0.665
664.01	0.660
664.20	0.658
664.38	0.659
664.57	0.659
664.76	0.658
664.95	0.659
665.14	0.664
665.33	0.658
665.52	0.665
665.71	0.670
665.90	0.671
666.09	0.671
666.28	0.669
666.46	0.669
666.65	0.670
666.84	0.667
667.03	0.661
667.22	0.658
667.41	0.662
667.60	0.652
667.79	0.644
667.98	0.646
668.16	0.647
668.35	0.646
668.54	0.643
668.73	0.644
668.92	0.646
669.11	0.646
669.30	0.641
669.49	0.637
669.67	0.639
669.86	0.642
670.05	0.639
670.24	0.636
670.43	0.634
670.62	0.633
670.81	0.628
671.00	0.628
671.18	0.627
671.37	0.627
671.56	0.625
671.75	0.623
671.94	0.620
672.13	0.618
672.32	0.613
672.50	0.613
672.69	0.613
672.88	0.613
673.07	0.608
673.26	0.611
673.45	0.612
673.63	0.611
673.82	0.607
674.01	0.609
674.20	0.609
674.39	0.609
674.58	0.608
674.76	0.608
674.95	0.607
675.14	0.607
675.33	0.602
675.52	0.601
675.71	0.601
675.89	0.602
676.08	0.598
676.27	0.598
676.46	0.598
676.65	0.598
676.84	0.598
677.02	0.599
677.21	0.601
677.40	0.601
677.59	0.598
677.78	0.598
677.96	0.600
678.15	0.600
678.34	0.597
678.53	0.598
678.72	0.598
678.90	0.594
679.09	0.590
679.28	0.587
679.47	0.588
679.66	0.587
679.84	0.584
680.03	0.582
680.22	0.581
680.41	0.583
680.60	0.579
680.78	0.578
680.97	0.580
681.16	0.581
681.35	0.580
681.53	0.579
681.72	0.580
681.91	0.582
682.10	0.580
682.29	0.582
682.47	0.580
682.66	0.580
682.85	0.579
683.04	0.577
683.22	0.577
683.41	0.579
683.60	0.578
683.79	0.578
683.97	0.578
684.16	0.576
684.35	0.573
684.54	0.574
684.72	0.574
684.91	0.575
685.10	0.574
685.29	0.575
685.47	0.571
685.66	0.571
685.85	0.567
686.04	0.567
686.22	0.569
686.41	0.571
686.60	0.568
686.79	0.571
686.97	0.571
687.16	0.572
687.35	0.570
687.54	0.574
687.72	0.577
687.91	0.577
688.10	0.578
688.29	0.578
688.47	0.576
688.66	0.576
688.85	0.572
689.03	0.570
689.22	0.575
689.41	0.575
689.60	0.570
689.78	0.567
689.97	0.568
690.16	0.566
690.34	0.562
690.53	0.561
690.72	0.561
690.91	0.559
691.09	0.558
691.28	0.551
691.47	0.550
691.65	0.549
691.84	0.546
692.03	0.545
692.21	0.543
692.40	0.542
692.59	0.540
692.77	0.539
692.96	0.540
693.15	0.541
693.34	0.539
693.52	0.539
693.71	0.540
693.90	0.541
694.08	0.542
694.27	0.543
694.46	0.552
694.64	0.553
694.83	0.553
695.02	0.552
695.20	0.551
695.39	0.551
695.58	0.551
695.76	0.552
695.95	0.551
696.14	0.550
696.32	0.547
696.51	0.538
696.70	0.537
696.88	0.539
697.07	0.538
697.26	0.539
697.44	0.540
697.63	0.539
697.81	0.537
698.00	0.536
698.19	0.536
698.37	0.536
698.56	0.536
698.75	0.535
698.93	0.535
699.12	0.534
699.31	0.533
699.49	0.532
699.68	0.533
699.87	0.535
700.05	0.535
700.24	0.535
700.42	0.536
700.61	0.535
700.80	0.534
700.98	0.534
701.17	0.536
701.36	0.535
701.54	0.535
701.73	0.536
701.91	0.533
702.10	0.533
702.29	0.530
702.47	0.530
702.66	0.531
702.84	0.532
703.03	0.530
703.22	0.532
703.40	0.531
703.59	0.532
703.77	0.532
703.96	0.532
704.15	0.532
704.33	0.533
704.52	0.532
704.70	0.531
704.89	0.531
705.08	0.530
705.26	0.526
705.45	0.526
705.63	0.524
705.82	0.522
706.00	0.520
706.19	0.520
706.38	0.520
706.56	0.519
706.75	0.517
706.93	0.516
707.12	0.518
707.30	0.518
707.49	0.517
707.68	0.515
707.86	0.514
708.05	0.515
708.23	0.512
708.42	0.512
708.60	0.514
708.79	0.514
708.98	0.512
709.16	0.511
709.35	0.514
709.53	0.517
709.72	0.516
709.90	0.517
710.09	0.519
710.27	0.521
710.46	0.525
710.64	0.524
710.83	0.526
711.02	0.527
711.20	0.526
711.39	0.524
711.57	0.522
711.76	0.522
711.94	0.521
712.13	0.521
712.31	0.520
712.50	0.516
712.68	0.513
712.87	0.514
713.05	0.514
713.24	0.515
713.42	0.515
713.61	0.516
713.79	0.516
713.98	0.517
714.16	0.518
714.35	0.518
714.54	0.519
714.72	0.519
714.91	0.516
715.09	0.523
715.28	0.525
715.46	0.525
715.65	0.522
715.83	0.522
716.02	0.524
716.20	0.521
716.39	0.520
716.57	0.522
716.76	0.523
716.94	0.523
717.12	0.515
717.31	0.516
717.49	0.519
717.68	0.521
717.86	0.521
718.05	0.523
718.23	0.525
718.42	0.528
718.60	0.528
718.79	0.536
718.97	0.538
719.16	0.539
719.34	0.537
719.53	0.536
719.71	0.536
719.90	0.537
720.08	0.535
720.27	0.534
720.45	0.534
720.63	0.533
720.82	0.527
721.00	0.530
721.19	0.534
721.37	0.533
721.56	0.534
721.74	0.536
721.93	0.545
722.11	0.552
722.30	0.552
722.48	0.557
722.66	0.558
722.85	0.558
723.03	0.557
723.22	0.556
723.40	0.559
723.59	0.559
723.77	0.563
723.95	0.556
724.14	0.557
724.32	0.559
724.51	0.559
724.69	0.560
724.88	0.560
725.06	0.560
725.24	0.560
725.43	0.561
725.61	0.563
725.80	0.558
725.98	0.557
726.16	0.553
726.35	0.559
726.53	0.558
726.72	0.557
726.90	0.566
727.09	0.567
727.27	0.572
727.45	0.569
727.64	0.578
727.82	0.585
728.01	0.589
728.19	0.587
728.37	0.591
728.56	0.594
728.74	0.600
728.92	0.588
729.11	0.590
729.29	0.589
729.48	0.591
729.66	0.580
729.84	0.581
730.03	0.583
730.21	0.584
730.40	0.576
730.58	0.577
730.76	0.576
730.95	0.579
731.13	0.579
731.31	0.592
731.50	0.602
731.68	0.604
731.86	0.601
732.05	0.615
732.23	0.618
732.42	0.620
732.60	0.624
732.78	0.629
732.97	0.647
733.15	0.652
733.33	0.641
733.52	0.647
733.70	0.658
733.88	0.668
734.07	0.654
734.25	0.681
734.43	0.686
734.62	0.688
734.80	0.684
734.98	0.674
735.17	0.681
735.35	0.687
735.53	0.676
735.72	0.677
735.90	0.696
736.08	0.715
736.27	0.692
736.45	0.703
736.63	0.714
736.82	0.723
737.00	0.723
737.18	0.733
737.37	0.764
737.55	0.786
737.73	0.782
737.92	0.784
738.10	0.778
738.28	0.800
738.46	0.790
738.65	0.804
738.83	0.828
739.01	0.882
739.20	0.870
739.38	0.849
739.56	0.837
739.75	0.843
739.93	0.815
740.11	0.838
740.29	0.833
740.48	0.837
740.66	0.814
740.84	0.806
741.03	0.772
741.21	0.784
741.39	0.769
741.57	0.783
741.76	0.797
741.94	0.803
742.12	0.772
742.31	0.777
742.49	0.795
742.67	0.821
742.85	0.834
743.04	0.836
743.22	0.843
743.40	0.890
743.58	0.873
743.77	0.886
743.95	0.911
744.13	0.952
744.31	0.937
744.50	0.932
744.68	0.928
744.86	0.904
745.04	0.916
745.23	0.971
745.41	0.959
745.59	0.960
745.77	0.929
745.96	0.922
746.14	0.931
746.32	0.930
746.50	0.926
746.69	0.911
746.87	0.925
747.05	0.911
747.23	0.844
747.42	0.829
747.60	0.854
747.78	0.858
747.96	0.886
748.14	0.848
748.33	0.872
748.51	0.859
748.69	0.852
748.87	0.867
749.06	0.861
749.24	0.859
749.42	0.851
749.60	0.833
749.78	0.842
749.97	0.798
750.15	0.792
750.33	0.794
750.51	0.816
750.69	0.821
750.88	0.829
751.06	0.839
751.24	0.864
751.42	0.856
751.60	0.854
751.79	0.918
751.97	0.961
752.15	0.960
752.33	0.931
752.51	0.994
752.69	1.007
752.88	0.978
753.06	1.020
753.24	0.993
753.42	1.022
753.60	1.162
753.78	1.036
753.97	1.053
754.15	1.065
754.33	1.101
754.51	0.986
754.69	0.978
754.87	1.001
755.06	0.941
755.24	0.947
755.42	0.955
755.60	0.865
755.78	0.873
755.96	0.822
756.15	0.822
756.33	0.819
756.51	0.836
756.69	0.822
756.87	0.793
757.05	0.812
757.23	0.799
757.42	0.770
757.60	0.770
757.78	0.763
757.96	0.761
758.14	0.747
758.32	0.736
758.50	0.748
758.69	0.747
758.87	0.738
759.05	0.739
759.23	0.745
759.41	0.746
759.59	0.739
759.77	0.758
759.95	0.784
760.13	0.830
760.32	0.828
760.50	0.824
760.68	0.844
760.86	0.848
761.04	0.825
761.22	0.830
761.40	0.875
761.58	0.875
761.76	0.852
761.95	0.835
762.13	0.790
762.31	0.792
762.49	0.764
762.67	0.782
762.85	0.791
763.03	0.788
763.21	0.769
763.39	0.749
763.57	0.752
763.75	0.745
763.94	0.731
764.12	0.734
764.30	0.754
764.48	0.758
764.66	0.725
764.84	0.723
765.02	0.754
765.20	0.764
765.38	0.746
765.56	0.752
765.74	0.787
765.92	0.788
766.10	0.794
766.28	0.788
766.46	0.813
766.65	0.813
766.83	0.804
767.01	0.790
767.19	0.791
767.37	0.788
767.55	0.775
767.73	0.756
767.91	0.756
768.09	0.746
768.27	0.737
768.45	0.729
768.63	0.733
768.81	0.735
768.99	0.714
769.17	0.739
769.35	0.753
769.53	0.752
769.71	0.737
769.89	0.746
770.07	0.750
770.25	0.733
770.43	0.713
770.61	0.735
770.79	0.740
770.97	0.747
771.15	0.719
771.33	0.722
771.51	0.725
771.69	0.734
771.87	0.744
772.05	0.748
772.24	0.757
772.42	0.764
772.60	0.745
772.78	0.802
772.96	0.827
773.14	0.820
773.32	0.799
773.49	0.804
773.67	0.801
773.85	0.778
774.03	0.769
774.21	0.798
774.39	0.805
774.57	0.823
774.75	0.755
774.93	0.750
775.11	0.773
775.29	0.780
775.47	0.782
775.65	0.793
775.83	0.811
776.01	0.833
776.19	0.790
776.37	0.798
776.55	0.799
776.73	0.796
776.91	0.791
777.09	0.774
777.27	0.770
777.45	0.761
777.63	0.739
777.81	0.735
777.99	0.719
778.17	0.719
778.35	0.696
778.53	0.686
778.71	0.691
778.89	0.681
779.07	0.671
779.24	0.676
779.42	0.676
779.60	0.695
779.78	0.693
779.96	0.697
780.14	0.702
780.32	0.723
780.50	0.708
780.68	0.708
780.86	0.699
781.04	0.717
781.22	0.721
781.40	0.730
781.58	0.719
781.75	0.713
781.93	0.697
782.11	0.697
782.29	0.681
782.47	0.680
782.65	0.669
782.83	0.695
783.01	0.686
783.19	0.681
783.37	0.669
783.55	0.672
783.72	0.687
783.90	0.700
784.08	0.693
784.26	0.705
784.44	0.723
784.62	0.724
784.80	0.697
784.98	0.703
785.16	0.707
785.33	0.719
785.51	0.707
785.69	0.693
785.87	0.690
786.05	0.700
786.23	0.697
786.41	0.696
786.59	0.701
786.77	0.699
786.94	0.689
787.12	0.694
787.30	0.696
787.48	0.695
787.66	0.685
787.84	0.688
788.02	0.679
788.19	0.679
788.37	0.667
788.55	0.669
788.73	0.670
788.91	0.664
789.09	0.648
789.27	0.638
789.44	0.648
789.62	0.653
789.80	0.661
789.98	0.682
790.16	0.668
790.34	0.662
790.51	0.650
790.69	0.668
790.87	0.673
791.05	0.671
791.23	0.664
791.41	0.664
791.58	0.671
791.76	0.652
791.94	0.626
792.12	0.634
792.30	0.639
792.48	0.637
792.65	0.629
792.83	0.637
793.01	0.644
793.19	0.642
793.37	0.628
793.54	0.624
793.72	0.632
793.90	0.630
794.08	0.622
794.26	0.622
794.43	0.630
794.61	0.616
794.79	0.604
794.97	0.602
795.15	0.607
795.32	0.612
795.50	0.602
795.68	0.598
795.86	0.602
796.04	0.602
796.21	0.598
796.39	0.596
796.57	0.609
796.75	0.617
796.92	0.618
797.10	0.624
797.28	0.625
797.46	0.630
797.64	0.631
797.81	0.638
797.99	0.641
798.17	0.644
798.35	0.640
798.52	0.644
798.70	0.639
798.88	0.647
799.06	0.646
799.23	0.648
799.41	0.656
799.59	0.651
799.77	0.640
799.94	0.648
800.12	0.657
800.30	0.672
800.48	0.669
800.65	0.670
800.83	0.658
801.01	0.649
801.19	0.649
801.36	0.645
801.54	0.646
801.72	0.657
801.90	0.644
802.07	0.638
802.25	0.626
802.43	0.613
802.60	0.608
802.78	0.614
802.96	0.619
803.14	0.614
803.31	0.613
803.49	0.614
803.67	0.609
803.84	0.611
804.02	0.605
804.20	0.606
804.38	0.611
804.55	0.611
804.73	0.598
804.91	0.599
805.08	0.612
805.26	0.608
805.44	0.669
805.61	0.674
805.79	0.674
805.97	0.673
806.15	0.665
806.32	0.660
806.50	0.665
806.68	0.666
806.85	0.659
807.03	0.650
807.21	0.665
807.38	0.599
807.56	0.589
807.74	0.599
807.91	0.605
808.09	0.608
808.27	0.626
808.44	0.650
808.62	0.658
808.80	0.660
808.97	0.653
809.15	0.648
809.33	0.665
809.50	0.673
809.68	0.662
809.86	0.668
810.03	0.696
810.21	0.676
810.39	0.661
810.56	0.665
810.74	0.687
810.91	0.759
811.09	0.748
811.27	0.768
811.44	0.771
811.62	0.772
811.80	0.758
811.97	0.730
812.15	0.732
812.33	0.728
812.50	0.715
812.68	0.704
812.85	0.648
813.03	0.650
813.21	0.621
813.38	0.615
813.56	0.618
813.74	0.628
813.91	0.635
814.09	0.663
814.26	0.655
814.44	0.660
814.62	0.651
814.79	0.654
814.97	0.658
815.14	0.660
815.32	0.663
815.50	0.679
815.67	0.679
815.85	0.669
816.02	0.658
816.20	0.667
816.38	0.679
816.55	0.684
816.73	0.683
816.90	0.693
817.08	0.721
817.26	0.726
817.43	0.707
817.61	0.731
817.78	0.748
817.96	0.730
818.13	0.719
818.31	0.720
818.49	0.731
818.66	0.723
818.84	0.713
819.01	0.695
819.19	0.699
819.36	0.702
819.54	0.673
819.71	0.712
819.89	0.723
820.07	0.733
820.24	0.725
820.42	0.727
820.59	0.744
820.77	0.766
820.94	0.758
821.12	0.777
821.29	0.789
821.47	0.792
821.64	0.734
821.82	0.746
822.00	0.745
822.17	0.747
822.35	0.739
822.52	0.741
822.70	0.730
822.87	0.735
823.05	0.715
823.22	0.727
823.40	0.750
823.57	0.776
823.75	0.760
823.92	0.784
824.10	0.799
824.27	0.837
824.45	0.829
824.62	0.881
824.80	0.901
824.97	0.914
825.15	0.900
825.32	0.909
825.50	0.904
825.67	0.910
825.85	0.887
826.02	0.900
826.20	0.914
826.37	1.018
826.55	0.945
826.72	1.092
826.90	1.134
827.07	1.178
827.25	1.135
827.42	1.258
827.60	1.367
827.77	1.496
827.95	1.474
828.12	1.548
828.30	1.301
828.47	1.401
828.65	1.127
828.82	1.180
829.00	1.221
829.17	1.298
829.34	1.283
829.52	1.301
829.69	-0.000
829.87	-0.000
830.04	-0.000
830.22	-0.000
830.39	-0.000
830.57	-0.000
830.74	-0.000
830.92	-0.000
831.09	-0.000
831.26	-0.000
831.44	-0.000
831.61	-0.000
831.79	-0.000
831.96	-0.000
832.14	-0.000
832.31	-0.000
832.49	-0.000
832.66	-0.000
832.83	-0.000
833.01	-0.000
833.18	-0.000
833.36	-0.000
833.53	-0.000
833.70	-0.000
833.88	-0.000
834.05	-0.000
834.23	-0.000
834.40	-0.000
834.58	-0.000
834.75	-0.000
834.92	-0.000
835.10	-0.000
835.27	-0.000
835.45	-0.000
835.62	-0.000
835.79	-0.000
835.97	-0.000
836.14	-0.000
836.32	-0.000
836.49	-0.000
836.66	-0.000
836.84	-0.000
837.01	-0.000
837.18	-0.000
837.36	-0.000
837.53	-0.000
837.71	-0.000
837.88	-0.000
838.05	-0.000
838.23	-0.000
838.40	-0.000
838.58	-0.000
838.75	-0.000
838.92	-0.000
839.10	-0.000
839.27	-0.000
839.44	-0.000
839.62	-0.000
839.79	-0.000
839.96	-0.000
840.14	-0.000
840.31	-0.000
840.48	-0.000
840.66	-0.000
840.83	-0.000
841.01	-0.000
841.18	-0.000
841.35	-0.000
841.53	-0.000
841.70	-0.000
841.87	-0.000
842.05	-0.000
842.22	-0.000
842.39	-0.000
842.57	-0.000
842.74	-0.000
842.91	-0.000
843.09	-0.000
843.26	-0.000
843.43	-0.000
843.60	-0.000
843.78	-0.000
843.95	-0.000
844.12	-0.000
844.30	-0.000
844.47	-0.000
844.64	-0.000
844.82	-0.000
844.99	-0.000
845.16	-0.000
845.34	-0.000
845.51	-0.000
845.68	-0.000
845.85	-0.000
846.03	-0.000
846.20	-0.000
846.37	-0.000
846.55	-0.000
846.72	-0.000
846.89	-0.000
847.06	-0.000
847.24	-0.000
847.41	-0.000
847.58	-0.000
847.76	-0.000
847.93	-0.000
848.10	-0.000
848.27	-0.000
848.45	-0.000
848.62	-0.000
848.79	-0.000
848.97	-0.000
849.14	-0.000
849.31	-0.000
849.48	-0.000
849.66	-0.000
849.83	-0.000
850.00	-0.000
850.17	-0.000
850.35	-0.000
850.52	-0.000
850.69	-0.000
850.86	-0.000
851.04	-0.000
851.21	-0.000
851.38	-0.000
851.55	-0.000
851.72	-0.000
851.90	-0.000
852.07	-0.000
852.24	-0.000
852.41	-0.000
852.59	-0.000
852.76	-0.000
852.93	-0.000
853.10	-0.000
853.28	-0.000
853.45	-0.000
853.62	-0.000
853.79	-0.000
853.96	-0.000
854.14	-0.000
854.31	-0.000
854.48	-0.000
854.65	-0.000
854.82	-0.000
855.00	-0.000
855.17	-0.000
855.34	-0.000
855.51	-0.000
855.68	-0.000
855.86	-0.000
856.03	-0.000
856.20	-0.000
856.37	-0.000
856.54	-0.000
856.72	-0.000
856.89	-0.000
857.06	-0.000
857.23	-0.000
857.40	-0.000
857.57	-0.000
857.75	-0.000
857.92	-0.000
858.09	-0.000
858.26	-0.000
858.43	-0.000
858.60	-0.000
858.78	-0.000
858.95	-0.000
859.12	-0.000
859.29	-0.000
859.46	-0.000
859.63	-0.000
859.81	-0.000
859.98	-0.000
860.15	-0.000
860.32	-0.000
860.49	-0.000
860.66	-0.000
860.83	-0.000
861.01	-0.000
861.18	-0.000
861.35	-0.000
861.52	-0.000
861.69	-0.000
861.86	-0.000
862.03	-0.000
862.21	-0.000
862.38	-0.000
862.55	-0.000
862.72	-0.000
862.89	-0.000
863.06	-0.000
863.23	-0.000
863.40	-0.000
863.58	-0.000
863.75	-0.000
863.92	-0.000
864.09	-0.000
864.26	-0.000
864.43	-0.000
864.60	-0.000
864.77	-0.000
864.94	-0.000
865.11	-0.000
865.29	-0.000
865.46	-0.000
865.63	-0.000
865.80	-0.000
865.97	-0.000
866.14	-0.000
866.31	-0.000
866.48	-0.000
866.65	-0.000
866.82	-0.000
866.99	-0.000
867.16	-0.000
867.34	-0.000
867.51	-0.000
867.68	-0.000
867.85	-0.000
868.02	-0.000
868.19	-0.000
868.36	-0.000
868.53	-0.000
868.70	-0.000
868.87	-0.000
869.04	-0.000
869.21	-0.000
869.38	-0.000
869.55	-0.000
869.72	-0.000
869.89	-0.000
870.06	-0.000
870.24	-0.000
870.41	-0.000
870.58	-0.000
870.75	-0.000
870.92	-0.000
871.09	-0.000
871.26	-0.000
871.43	-0.000
871.60	-0.000
871.77	-0.000
871.94	-0.000
872.11	-0.000
872.28	-0.000
872.45	-0.000
872.62	-0.000
872.79	-0.000
872.96	-0.000
873.13	-0.000
873.30	-0.000
873.47	-0.000
873.64	-0.000
873.81	-0.000
873.98	-0.000
874.15	-0.000
874.32	-0.000
874.49	-0.000
874.66	-0.000
874.83	-0.000
875.00	-0.000
875.17	-0.000
875.34	-0.000
875.51	-0.000
875.68	-0.000
875.85	-0.000
876.02	-0.000
876.19	-0.000
876.36	-0.000
876.53	-0.000
876.70	-0.000
876.87	-0.000
877.04	-0.000
877.21	-0.000
877.38	-0.000
877.55	-0.000
877.72	-0.000
877.89	-0.000
878.06	-0.000
878.23	-0.000
878.39	-0.000
878.56	-0.000
878.73	-0.000
878.90	-0.000
879.07	-0.000
879.24	-0.000
879.41	-0.000
879.58	-0.000
879.75	-0.000
879.92	-0.000
880.09	-0.000
880.26	-0.000
880.43	-0.000
880.60	-0.000
880.77	-0.000
880.94	-0.000
881.11	-0.000
881.27	-0.000
881.44	-0.000
881.61	-0.000
881.78	-0.000
881.95	-0.000
882.12	-0.000
882.29	-0.000
882.46	-0.000
882.63	-0.000
882.80	-0.000
882.97	-0.000
883.14	-0.000
883.30	-0.000
883.47	-0.000
883.64	-0.000
883.81	-0.000
883.98	-0.000
884.15	-0.000
884.32	-0.000
884.49	-0.000
884.66	-0.000
884.82	-0.000
884.99	-0.000
885.16	-0.000
885.33	-0.000
885.50	-0.000
885.67	-0.000
885.84	-0.000
886.01	-0.000
886.17	-0.000
886.34	-0.000
886.51	-0.000
886.68	-0.000
886.85	-0.000
887.02	-0.000
887.19	-0.000
887.36	-0.000
887.52	-0.000
887.69	-0.000
887.86	-0.000
888.03	-0.000
888.20	-0.000
888.37	-0.000
888.54	-0.000
888.70	-0.000
888.87	-0.000
889.04	-0.000
889.21	-0.000
889.38	-0.000
889.55	-0.000
889.71	-0.000
889.88	-0.000
890.05	-0.000
890.22	-0.000
890.39	-0.000
>>>>>End Processed Spectral Data<<<<<
