SpectraSuite Data File
++++++++++++++++++++++++++++++++++++
Date: Fri Jun 19 13:41:20 CEST 2015
User: introlabs
Dark Spectrum Present: Yes
Reference Spectrum Present: Yes
Number of Sampled Component Spectra: 1
Spectrometers: USB4H08886
Integration Time (usec): 745692 (USB4H08886)
Spectra Averaged: 5 (USB4H08886)
Boxcar Smoothing: 5 (USB4H08886)
Correct for Electrical Dark: Yes (USB4H08886)
Strobe/Lamp Enabled: No (USB4H08886)
Correct for Detector Non-linearity: Yes (USB4H08886)
Correct for Stray Light: Yes (USB4H08886)
Number of Pixels in Processed Spectrum: 3648
>>>>>Begin Processed Spectral Data<<<<<
178.14	-0.000
178.36	-0.000
178.57	-0.000
178.79	-0.000
179.01	-0.000
179.22	-0.000
179.44	-0.000
179.65	-0.000
179.87	-0.000
180.08	-0.000
180.30	-0.000
180.52	-0.000
180.73	-0.000
180.95	-0.000
181.16	-0.000
181.38	-0.000
181.59	-0.000
181.81	-0.000
182.03	-0.000
182.24	-0.000
182.46	-0.000
182.67	-0.000
182.89	-0.000
183.10	-0.000
183.32	-0.000
183.54	-0.000
183.75	-0.000
183.97	-0.000
184.18	-0.000
184.40	-0.000
184.61	-0.000
184.83	-0.000
185.04	-0.000
185.26	-0.000
185.48	-0.000
185.69	-0.000
185.91	-0.000
186.12	-0.000
186.34	-0.000
186.55	-0.000
186.77	-0.000
186.98	-0.000
187.20	-0.000
187.42	-0.000
187.63	-0.000
187.85	-0.000
188.06	-0.000
188.28	-0.000
188.49	-0.000
188.71	-0.000
188.92	-0.000
189.14	-0.000
189.36	-0.000
189.57	-0.000
189.79	-0.000
190.00	-0.000
190.22	-0.000
190.43	-0.000
190.65	-0.000
190.86	-0.000
191.08	-0.000
191.29	-0.000
191.51	-0.000
191.72	-0.000
191.94	-0.000
192.16	-0.000
192.37	-0.000
192.59	-0.000
192.80	-0.000
193.02	-0.000
193.23	-0.000
193.45	-0.000
193.66	-0.000
193.88	-0.000
194.09	-0.000
194.31	-0.000
194.52	-0.000
194.74	-0.000
194.95	-0.000
195.17	-0.000
195.38	-0.000
195.60	-0.000
195.81	-0.000
196.03	-0.000
196.25	-0.000
196.46	-0.000
196.68	-0.000
196.89	-0.000
197.11	-0.000
197.32	-0.000
197.54	-0.000
197.75	-0.000
197.97	-0.000
198.18	-0.000
198.40	-0.000
198.61	-0.000
198.83	-0.000
199.04	-0.000
199.26	-0.000
199.47	-0.000
199.69	-0.000
199.90	-0.000
200.12	-0.000
200.33	-0.000
200.55	-0.000
200.76	-0.000
200.98	-0.000
201.19	-0.000
201.41	-0.000
201.62	-0.000
201.84	-0.000
202.05	-0.000
202.27	-0.000
202.48	-0.000
202.70	-0.000
202.91	-0.000
203.13	-0.000
203.34	-0.000
203.56	-0.000
203.77	-0.000
203.99	-0.000
204.20	-0.000
204.42	-0.000
204.63	-0.000
204.85	-0.000
205.06	-0.000
205.28	-0.000
205.49	-0.000
205.71	-0.000
205.92	-0.000
206.14	-0.000
206.35	-0.000
206.56	-0.000
206.78	-0.000
206.99	-0.000
207.21	-0.000
207.42	-0.000
207.64	-0.000
207.85	-0.000
208.07	-0.000
208.28	-0.000
208.50	-0.000
208.71	-0.000
208.93	-0.000
209.14	-0.000
209.36	-0.000
209.57	-0.000
209.79	-0.000
210.00	-0.000
210.22	-0.000
210.43	-0.000
210.64	-0.000
210.86	-0.000
211.07	-0.000
211.29	-0.000
211.50	-0.000
211.72	-0.000
211.93	-0.000
212.15	-0.000
212.36	-0.000
212.58	-0.000
212.79	-0.000
213.01	-0.000
213.22	-0.000
213.43	-0.000
213.65	-0.000
213.86	-0.000
214.08	-0.000
214.29	-0.000
214.51	-0.000
214.72	-0.000
214.94	-0.000
215.15	-0.000
215.36	-0.000
215.58	-0.000
215.79	-0.000
216.01	-0.000
216.22	-0.000
216.44	-0.000
216.65	-0.000
216.87	-0.000
217.08	-0.000
217.29	-0.000
217.51	-0.000
217.72	-0.000
217.94	-0.000
218.15	-0.000
218.37	-0.000
218.58	-0.000
218.80	-0.000
219.01	-0.000
219.22	-0.000
219.44	-0.000
219.65	-0.000
219.87	-0.000
220.08	-0.000
220.30	-0.000
220.51	-0.000
220.72	-0.000
220.94	-0.000
221.15	-0.000
221.37	-0.000
221.58	-0.000
221.79	-0.000
222.01	-0.000
222.22	-0.000
222.44	-0.000
222.65	-0.000
222.87	-0.000
223.08	-0.000
223.29	-0.000
223.51	-0.000
223.72	-0.000
223.94	-0.000
224.15	-0.000
224.36	-0.000
224.58	-0.000
224.79	-0.000
225.01	-0.000
225.22	-0.000
225.44	-0.000
225.65	-0.000
225.86	-0.000
226.08	-0.000
226.29	-0.000
226.51	-0.000
226.72	-0.000
226.93	-0.000
227.15	-0.000
227.36	-0.000
227.58	-0.000
227.79	-0.000
228.00	-0.000
228.22	-0.000
228.43	-0.000
228.65	-0.000
228.86	-0.000
229.07	-0.000
229.29	-0.000
229.50	-0.000
229.72	-0.000
229.93	-0.000
230.14	-0.000
230.36	-0.000
230.57	-0.000
230.78	-0.000
231.00	-0.000
231.21	-0.000
231.43	-0.000
231.64	-0.000
231.85	-0.000
232.07	-0.000
232.28	-0.000
232.50	-0.000
232.71	-0.000
232.92	-0.000
233.14	-0.000
233.35	-0.000
233.56	-0.000
233.78	-0.000
233.99	-0.000
234.21	-0.000
234.42	-0.000
234.63	-0.000
234.85	-0.000
235.06	-0.000
235.27	-0.000
235.49	-0.000
235.70	-0.000
235.91	-0.000
236.13	-0.000
236.34	-0.000
236.56	-0.000
236.77	-0.000
236.98	-0.000
237.20	-0.000
237.41	-0.000
237.62	-0.000
237.84	-0.000
238.05	-0.000
238.26	-0.000
238.48	-0.000
238.69	-0.000
238.91	-0.000
239.12	-0.000
239.33	-0.000
239.55	-0.000
239.76	-0.000
239.97	-0.000
240.19	-0.000
240.40	-0.000
240.61	-0.000
240.83	-0.000
241.04	-0.000
241.25	-0.000
241.47	-0.000
241.68	-0.000
241.89	-0.000
242.11	-0.000
242.32	-0.000
242.53	-0.000
242.75	-0.000
242.96	-0.000
243.17	-0.000
243.39	-0.000
243.60	-0.000
243.81	-0.000
244.03	-0.000
244.24	-0.000
244.45	-0.000
244.67	-0.000
244.88	-0.000
245.09	-0.000
245.31	-0.000
245.52	-0.000
245.73	-0.000
245.95	-0.000
246.16	-0.000
246.37	-0.000
246.59	-0.000
246.80	-0.000
247.01	-0.000
247.23	-0.000
247.44	-0.000
247.65	-0.000
247.87	-0.000
248.08	-0.000
248.29	-0.000
248.51	-0.000
248.72	-0.000
248.93	-0.000
249.15	-0.000
249.36	-0.000
249.57	-0.000
249.78	-0.000
250.00	-0.000
250.21	-0.000
250.42	-0.000
250.64	-0.000
250.85	-0.000
251.06	-0.000
251.28	-0.000
251.49	-0.000
251.70	-0.000
251.92	-0.000
252.13	-0.000
252.34	-0.000
252.55	-0.000
252.77	-0.000
252.98	-0.000
253.19	-0.000
253.41	-0.000
253.62	-0.000
253.83	-0.000
254.05	-0.000
254.26	-0.000
254.47	-0.000
254.68	-0.000
254.90	-0.000
255.11	-0.000
255.32	-0.000
255.54	-0.000
255.75	-0.000
255.96	-0.000
256.17	-0.000
256.39	-0.000
256.60	-0.000
256.81	-0.000
257.03	-0.000
257.24	-0.000
257.45	-0.000
257.66	-0.000
257.88	-0.000
258.09	-0.000
258.30	-0.000
258.51	-0.000
258.73	-0.000
258.94	-0.000
259.15	-0.000
259.37	-0.000
259.58	-0.000
259.79	-0.000
260.00	-0.000
260.22	-0.000
260.43	-0.000
260.64	-0.000
260.85	-0.000
261.07	-0.000
261.28	-0.000
261.49	-0.000
261.71	-0.000
261.92	-0.000
262.13	-0.000
262.34	-0.000
262.56	-0.000
262.77	-0.000
262.98	-0.000
263.19	-0.000
263.41	-0.000
263.62	-0.000
263.83	-0.000
264.04	-0.000
264.26	-0.000
264.47	-0.000
264.68	-0.000
264.89	-0.000
265.11	-0.000
265.32	-0.000
265.53	-0.000
265.74	-0.000
265.96	-0.000
266.17	-0.000
266.38	-0.000
266.59	-0.000
266.81	-0.000
267.02	-0.000
267.23	-0.000
267.44	-0.000
267.65	-0.000
267.87	-0.000
268.08	-0.000
268.29	-0.000
268.50	-0.000
268.72	-0.000
268.93	-0.000
269.14	-0.000
269.35	-0.000
269.57	-0.000
269.78	-0.000
269.99	-0.000
270.20	-0.000
270.41	-0.000
270.63	-0.000
270.84	-0.000
271.05	-0.000
271.26	-0.000
271.48	-0.000
271.69	-0.000
271.90	-0.000
272.11	-0.000
272.32	-0.000
272.54	-0.000
272.75	-0.000
272.96	-0.000
273.17	-0.000
273.39	-0.000
273.60	-0.000
273.81	-0.000
274.02	-0.000
274.23	-0.000
274.45	-0.000
274.66	-0.000
274.87	-0.000
275.08	-0.000
275.29	-0.000
275.51	-0.000
275.72	-0.000
275.93	-0.000
276.14	-0.000
276.35	-0.000
276.57	-0.000
276.78	-0.000
276.99	-0.000
277.20	-0.000
277.41	-0.000
277.63	-0.000
277.84	-0.000
278.05	-0.000
278.26	-0.000
278.47	-0.000
278.69	-0.000
278.90	-0.000
279.11	-0.000
279.32	-0.000
279.53	-0.000
279.74	-0.000
279.96	-0.000
280.17	-0.000
280.38	-0.000
280.59	-0.000
280.80	-0.000
281.02	-0.000
281.23	-0.000
281.44	-0.000
281.65	-0.000
281.86	-0.000
282.07	-0.000
282.29	-0.000
282.50	-0.000
282.71	-0.000
282.92	-0.000
283.13	-0.000
283.35	-0.000
283.56	-0.000
283.77	-0.000
283.98	-0.000
284.19	-0.000
284.40	-0.000
284.62	-0.000
284.83	-0.000
285.04	-0.000
285.25	-0.000
285.46	-0.000
285.67	-0.000
285.88	-0.000
286.10	-0.000
286.31	-0.000
286.52	-0.000
286.73	-0.000
286.94	-0.000
287.15	-0.000
287.37	-0.000
287.58	-0.000
287.79	-0.000
288.00	-0.000
288.21	-0.000
288.42	-0.000
288.63	-0.000
288.85	-0.000
289.06	-0.000
289.27	-0.000
289.48	-0.000
289.69	-0.000
289.90	-0.000
290.11	-0.000
290.33	-0.000
290.54	-0.000
290.75	-0.000
290.96	-0.000
291.17	-0.000
291.38	-0.000
291.59	-0.000
291.81	-0.000
292.02	-0.000
292.23	-0.000
292.44	-0.000
292.65	-0.000
292.86	-0.000
293.07	-0.000
293.28	-0.000
293.50	-0.000
293.71	-0.000
293.92	-0.000
294.13	-0.000
294.34	-0.000
294.55	-0.000
294.76	-0.000
294.97	-0.000
295.19	-0.000
295.40	-0.000
295.61	-0.000
295.82	-0.000
296.03	-0.000
296.24	-0.000
296.45	-0.000
296.66	3.210
296.87	-0.000
297.09	-0.000
297.30	-0.000
297.51	2.486
297.72	2.295
297.93	2.919
298.14	2.544
298.35	2.318
298.56	2.219
298.77	3.039
298.99	2.680
299.20	2.453
299.41	2.358
299.62	2.161
299.83	2.111
300.04	1.942
300.25	1.912
300.46	2.021
300.67	1.941
300.88	1.804
301.10	1.824
301.31	1.976
301.52	1.842
301.73	1.725
301.94	1.734
302.15	1.772
302.36	1.689
302.57	1.589
302.78	1.596
302.99	1.662
303.20	1.702
303.41	1.557
303.63	1.528
303.84	1.539
304.05	1.535
304.26	1.443
304.47	1.442
304.68	1.445
304.89	1.433
305.10	1.381
305.31	1.365
305.52	1.415
305.73	1.405
305.94	1.352
306.15	1.341
306.37	1.368
306.58	1.381
306.79	1.347
307.00	1.379
307.21	1.423
307.42	1.413
307.63	1.366
307.84	1.326
308.05	1.370
308.26	1.368
308.47	1.338
308.68	1.331
308.89	1.332
309.10	1.329
309.31	1.274
309.52	1.266
309.73	1.282
309.95	1.273
310.16	1.241
310.37	1.229
310.58	1.252
310.79	1.247
311.00	1.241
311.21	1.241
311.42	1.242
311.63	1.240
311.84	1.217
312.05	1.215
312.26	1.241
312.47	1.252
312.68	1.225
312.89	1.204
313.10	1.214
313.31	1.185
313.52	1.187
313.73	1.187
313.94	1.190
314.15	1.169
314.36	1.146
314.57	1.139
314.78	1.125
314.99	1.118
315.21	1.106
315.42	1.111
315.63	1.125
315.84	1.099
316.05	1.085
316.26	1.094
316.47	1.116
316.68	1.112
316.89	1.089
317.10	1.112
317.31	1.117
317.52	1.117
317.73	1.094
317.94	1.091
318.15	1.141
318.36	1.138
318.57	1.116
318.78	1.102
318.99	1.138
319.20	1.137
319.41	1.100
319.62	1.104
319.83	1.120
320.04	1.115
320.25	1.100
320.46	1.063
320.67	1.065
320.88	1.061
321.09	1.048
321.30	1.033
321.51	1.048
321.72	1.045
321.93	1.027
322.14	1.018
322.35	1.045
322.56	1.048
322.77	1.032
322.98	1.044
323.19	1.055
323.40	1.059
323.61	1.034
323.82	1.028
324.03	1.035
324.24	1.032
324.45	1.017
324.66	0.996
324.87	0.992
325.08	0.993
325.29	0.973
325.50	0.964
325.71	0.969
325.92	0.979
326.13	0.964
326.34	0.964
326.55	0.973
326.76	0.972
326.97	0.961
327.18	0.955
327.39	0.981
327.60	0.982
327.80	0.982
328.01	0.981
328.22	0.982
328.43	0.984
328.64	0.973
328.85	0.976
329.06	0.979
329.27	0.979
329.48	0.972
329.69	0.953
329.90	0.965
330.11	0.958
330.32	0.951
330.53	0.943
330.74	0.943
330.95	0.943
331.16	0.928
331.37	0.936
331.58	0.937
331.79	0.938
332.00	0.927
332.21	0.920
332.42	0.924
332.63	0.915
332.83	0.910
333.04	0.912
333.25	0.926
333.46	0.924
333.67	0.908
333.88	0.911
334.09	0.922
334.30	0.918
334.51	0.910
334.72	0.903
334.93	0.907
335.14	0.907
335.35	0.899
335.56	0.893
335.77	0.903
335.98	0.901
336.18	0.892
336.39	0.885
336.60	0.890
336.81	0.887
337.02	0.886
337.23	0.891
337.44	0.892
337.65	0.893
337.86	0.882
338.07	0.877
338.28	0.884
338.49	0.883
338.70	0.875
338.91	0.881
339.11	0.890
339.32	0.886
339.53	0.874
339.74	0.871
339.95	0.868
340.16	0.866
340.37	0.858
340.58	0.855
340.79	0.859
341.00	0.860
341.21	0.849
341.41	0.848
341.62	0.850
341.83	0.851
342.04	0.845
342.25	0.856
342.46	0.860
342.67	0.859
342.88	0.852
343.09	0.850
343.30	0.856
343.50	0.860
343.71	0.849
343.92	0.848
344.13	0.852
344.34	0.852
344.55	0.837
344.76	0.837
344.97	0.843
345.18	0.842
345.38	0.839
345.59	0.834
345.80	0.833
346.01	0.833
346.22	0.828
346.43	0.822
346.64	0.831
346.85	0.830
347.06	0.822
347.26	0.821
347.47	0.824
347.68	0.820
347.89	0.815
348.10	0.810
348.31	0.816
348.52	0.815
348.73	0.812
348.93	0.808
349.14	0.811
349.35	0.811
349.56	0.805
349.77	0.801
349.98	0.806
350.19	0.804
350.39	0.799
350.60	0.795
350.81	0.812
351.02	0.810
351.23	0.805
351.44	0.807
351.65	0.810
351.86	0.807
352.06	0.806
352.27	0.806
352.48	0.807
352.69	0.807
352.90	0.801
353.11	0.787
353.31	0.794
353.52	0.790
353.73	0.781
353.94	0.782
354.15	0.788
354.36	0.788
354.57	0.778
354.77	0.781
354.98	0.781
355.19	0.780
355.40	0.779
355.61	0.785
355.82	0.790
356.02	0.790
356.23	0.784
356.44	0.787
356.65	0.791
356.86	0.791
357.07	0.785
357.27	0.788
357.48	0.791
357.69	0.788
357.90	0.772
358.11	0.769
358.32	0.773
358.52	0.775
358.73	0.765
358.94	0.766
359.15	0.771
359.36	0.771
359.56	0.765
359.77	0.763
359.98	0.769
360.19	0.769
360.40	0.766
360.61	0.767
360.81	0.764
361.02	0.764
361.23	0.756
361.44	0.755
361.65	0.756
361.85	0.756
362.06	0.753
362.27	0.755
362.48	0.755
362.69	0.757
362.89	0.750
363.10	0.752
363.31	0.757
363.52	0.760
363.73	0.755
363.93	0.755
364.14	0.758
364.35	0.760
364.56	0.749
364.77	0.751
364.97	0.754
365.18	0.755
365.39	0.749
365.60	0.746
365.81	0.746
366.01	0.746
366.22	0.743
366.43	0.742
366.64	0.744
366.84	0.750
367.05	0.746
367.26	0.747
367.47	0.748
367.68	0.749
367.88	0.745
368.09	0.743
368.30	0.745
368.51	0.745
368.71	0.744
368.92	0.748
369.13	0.746
369.34	0.745
369.55	0.744
369.75	0.744
369.96	0.751
370.17	0.751
370.38	0.748
370.58	0.747
370.79	0.753
371.00	0.752
371.21	0.743
371.41	0.748
371.62	0.753
371.83	0.748
372.04	0.745
372.24	0.737
372.45	0.739
372.66	0.740
372.87	0.736
373.07	0.733
373.28	0.733
373.49	0.737
373.70	0.727
373.90	0.726
374.11	0.736
374.32	0.736
374.53	0.736
374.73	0.737
374.94	0.739
375.15	0.739
375.36	0.736
375.56	0.745
375.77	0.745
375.98	0.745
376.19	0.742
376.39	0.735
376.60	0.739
376.81	0.739
377.02	0.737
377.22	0.735
377.43	0.735
377.64	0.735
377.84	0.725
378.05	0.730
378.26	0.737
378.47	0.736
378.67	0.732
378.88	0.729
379.09	0.730
379.30	0.730
379.50	0.728
379.71	0.730
379.92	0.733
380.12	0.732
380.33	0.723
380.54	0.720
380.75	0.728
380.95	0.728
381.16	0.725
381.37	0.725
381.57	0.727
381.78	0.727
381.99	0.727
382.20	0.726
382.40	0.729
382.61	0.730
382.82	0.726
383.02	0.719
383.23	0.722
383.44	0.723
383.64	0.721
383.85	0.723
384.06	0.727
384.27	0.725
384.47	0.722
384.68	0.722
384.89	0.728
385.09	0.728
385.30	0.727
385.51	0.726
385.71	0.729
385.92	0.729
386.13	0.727
386.33	0.729
386.54	0.729
386.75	0.729
386.95	0.725
387.16	0.720
387.37	0.723
387.58	0.723
387.78	0.720
387.99	0.717
388.20	0.720
388.40	0.717
388.61	0.712
388.82	0.716
389.02	0.717
389.23	0.717
389.44	0.716
389.64	0.716
389.85	0.727
390.06	0.727
390.26	0.728
390.47	0.726
390.68	0.729
390.88	0.728
391.09	0.723
391.30	0.721
391.50	0.721
391.71	0.721
391.92	0.718
392.12	0.710
392.33	0.711
392.53	0.710
392.74	0.709
392.95	0.708
393.15	0.710
393.36	0.713
393.57	0.711
393.77	0.714
393.98	0.716
394.19	0.716
394.39	0.715
394.60	0.716
394.81	0.719
395.01	0.717
395.22	0.715
395.43	0.716
395.63	0.720
395.84	0.721
396.04	0.717
396.25	0.720
396.46	0.722
396.66	0.719
396.87	0.717
397.08	0.714
397.28	0.717
397.49	0.718
397.69	0.714
397.90	0.709
398.11	0.711
398.31	0.711
398.52	0.707
398.73	0.708
398.93	0.708
399.14	0.707
399.34	0.705
399.55	0.706
399.76	0.706
399.96	0.707
400.17	0.705
400.37	0.703
400.58	0.710
400.79	0.712
400.99	0.709
401.20	0.715
401.41	0.717
401.61	0.718
401.82	0.723
402.02	0.723
402.23	0.724
402.44	0.723
402.64	0.723
402.85	0.718
403.05	0.716
403.26	0.715
403.47	0.708
403.67	0.707
403.88	0.708
404.08	0.702
404.29	0.700
404.50	0.699
404.70	0.700
404.91	0.699
405.11	0.696
405.32	0.697
405.52	0.697
405.73	0.697
405.94	0.695
406.14	0.697
406.35	0.700
406.55	0.699
406.76	0.698
406.97	0.698
407.17	0.701
407.38	0.701
407.58	0.699
407.79	0.702
407.99	0.705
408.20	0.706
408.41	0.701
408.61	0.699
408.82	0.700
409.02	0.700
409.23	0.698
409.43	0.696
409.64	0.698
409.84	0.697
410.05	0.693
410.26	0.691
410.46	0.691
410.67	0.690
410.87	0.692
411.08	0.694
411.28	0.695
411.49	0.696
411.69	0.694
411.90	0.695
412.11	0.697
412.31	0.698
412.52	0.696
412.72	0.697
412.93	0.698
413.13	0.697
413.34	0.693
413.54	0.694
413.75	0.696
413.95	0.696
414.16	0.692
414.37	0.695
414.57	0.696
414.78	0.698
414.98	0.695
415.19	0.696
415.39	0.693
415.60	0.695
415.80	0.695
416.01	0.693
416.21	0.695
416.42	0.696
416.62	0.690
416.83	0.690
417.03	0.690
417.24	0.690
417.44	0.688
417.65	0.688
417.86	0.688
418.06	0.686
418.27	0.684
418.47	0.686
418.68	0.687
418.88	0.687
419.09	0.686
419.29	0.687
419.50	0.687
419.70	0.687
419.91	0.686
420.11	0.684
420.32	0.686
420.52	0.686
420.73	0.685
420.93	0.685
421.14	0.687
421.34	0.685
421.55	0.682
421.75	0.682
421.96	0.683
422.16	0.683
422.37	0.682
422.57	0.679
422.78	0.682
422.98	0.678
423.19	0.676
423.39	0.675
423.60	0.679
423.80	0.680
424.01	0.678
424.21	0.681
424.42	0.682
424.62	0.682
424.83	0.680
425.03	0.681
425.23	0.683
425.44	0.683
425.64	0.683
425.85	0.682
426.05	0.683
426.26	0.683
426.46	0.679
426.67	0.678
426.87	0.683
427.08	0.684
427.28	0.682
427.49	0.682
427.69	0.683
427.90	0.682
428.10	0.679
428.31	0.679
428.51	0.680
428.71	0.679
428.92	0.680
429.12	0.678
429.33	0.678
429.53	0.681
429.74	0.686
429.94	0.686
430.15	0.686
430.35	0.685
430.56	0.683
430.76	0.682
430.96	0.683
431.17	0.680
431.37	0.677
431.58	0.675
431.78	0.673
431.99	0.666
432.19	0.667
432.40	0.669
432.60	0.670
432.80	0.672
433.01	0.670
433.21	0.671
433.42	0.673
433.62	0.674
433.83	0.674
434.03	0.676
434.23	0.679
434.44	0.679
434.64	0.676
434.85	0.681
435.05	0.682
435.26	0.683
435.46	0.681
435.66	0.681
435.87	0.681
436.07	0.681
436.28	0.677
436.48	0.673
436.69	0.673
436.89	0.674
437.09	0.668
437.30	0.666
437.50	0.667
437.71	0.679
437.91	0.678
438.11	0.679
438.32	0.684
438.52	0.685
438.73	0.684
438.93	0.682
439.13	0.682
439.34	0.685
439.54	0.684
439.75	0.683
439.95	0.674
440.15	0.678
440.36	0.677
440.56	0.674
440.77	0.675
440.97	0.675
441.17	0.674
441.38	0.675
441.58	0.671
441.79	0.671
441.99	0.670
442.19	0.669
442.40	0.666
442.60	0.666
442.81	0.664
443.01	0.664
443.21	0.664
443.42	0.664
443.62	0.662
443.82	0.663
444.03	0.664
444.23	0.664
444.44	0.664
444.64	0.664
444.84	0.665
445.05	0.664
445.25	0.662
445.45	0.662
445.66	0.665
445.86	0.665
446.06	0.666
446.27	0.665
446.47	0.669
446.68	0.667
446.88	0.665
447.08	0.664
447.29	0.666
447.49	0.666
447.69	0.666
447.90	0.665
448.10	0.669
448.30	0.666
448.51	0.668
448.71	0.665
448.91	0.667
449.12	0.666
449.32	0.668
449.52	0.667
449.73	0.671
449.93	0.670
450.14	0.670
450.34	0.669
450.54	0.671
450.75	0.668
450.95	0.668
451.15	0.667
451.36	0.670
451.56	0.667
451.76	0.666
451.97	0.663
452.17	0.663
452.37	0.662
452.58	0.659
452.78	0.659
452.98	0.661
453.19	0.660
453.39	0.660
453.59	0.659
453.79	0.660
454.00	0.661
454.20	0.660
454.40	0.661
454.61	0.662
454.81	0.663
455.01	0.661
455.22	0.662
455.42	0.665
455.62	0.662
455.83	0.662
456.03	0.665
456.23	0.666
456.44	0.667
456.64	0.665
456.84	0.666
457.04	0.666
457.25	0.666
457.45	0.662
457.65	0.661
457.86	0.662
458.06	0.661
458.26	0.657
458.47	0.656
458.67	0.657
458.87	0.658
459.07	0.655
459.28	0.658
459.48	0.660
459.68	0.660
459.89	0.660
460.09	0.658
460.29	0.660
460.49	0.660
460.70	0.660
460.90	0.659
461.10	0.660
461.31	0.658
461.51	0.655
461.71	0.657
461.91	0.658
462.12	0.657
462.32	0.656
462.52	0.657
462.72	0.660
462.93	0.660
463.13	0.659
463.33	0.660
463.53	0.663
463.74	0.662
463.94	0.658
464.14	0.658
464.35	0.660
464.55	0.661
464.75	0.659
464.95	0.657
465.16	0.659
465.36	0.657
465.56	0.656
465.76	0.655
465.97	0.656
466.17	0.657
466.37	0.655
466.57	0.656
466.78	0.657
466.98	0.656
467.18	0.654
467.38	0.653
467.59	0.655
467.79	0.656
467.99	0.655
468.19	0.656
468.39	0.659
468.60	0.660
468.80	0.658
469.00	0.658
469.20	0.659
469.41	0.660
469.61	0.659
469.81	0.659
470.01	0.659
470.22	0.660
470.42	0.658
470.62	0.655
470.82	0.656
471.02	0.656
471.23	0.654
471.43	0.654
471.63	0.656
471.83	0.656
472.04	0.654
472.24	0.653
472.44	0.658
472.64	0.658
472.84	0.656
473.05	0.656
473.25	0.659
473.45	0.658
473.65	0.656
473.85	0.657
474.06	0.658
474.26	0.657
474.46	0.658
474.66	0.654
474.86	0.655
475.07	0.655
475.27	0.654
475.47	0.651
475.67	0.652
475.87	0.655
476.08	0.652
476.28	0.653
476.48	0.654
476.68	0.652
476.88	0.650
477.09	0.651
477.29	0.654
477.49	0.654
477.69	0.652
477.89	0.652
478.09	0.652
478.30	0.654
478.50	0.651
478.70	0.650
478.90	0.651
479.10	0.653
479.31	0.654
479.51	0.652
479.71	0.653
479.91	0.653
480.11	0.651
480.31	0.652
480.52	0.650
480.72	0.650
480.92	0.649
481.12	0.648
481.32	0.646
481.52	0.644
481.72	0.644
481.93	0.647
482.13	0.648
482.33	0.648
482.53	0.646
482.73	0.647
482.93	0.648
483.14	0.647
483.34	0.646
483.54	0.647
483.74	0.647
483.94	0.646
484.14	0.642
484.34	0.642
484.55	0.643
484.75	0.642
484.95	0.641
485.15	0.640
485.35	0.641
485.55	0.641
485.75	0.639
485.96	0.639
486.16	0.640
486.36	0.639
486.56	0.638
486.76	0.638
486.96	0.638
487.16	0.637
487.36	0.636
487.57	0.635
487.77	0.636
487.97	0.636
488.17	0.634
488.37	0.634
488.57	0.635
488.77	0.635
488.97	0.634
489.18	0.633
489.38	0.636
489.58	0.636
489.78	0.636
489.98	0.635
490.18	0.635
490.38	0.636
490.58	0.634
490.78	0.635
490.98	0.637
491.19	0.637
491.39	0.636
491.59	0.635
491.79	0.638
491.99	0.638
492.19	0.638
492.39	0.641
492.59	0.641
492.79	0.643
492.99	0.643
493.20	0.643
493.40	0.643
493.60	0.645
493.80	0.642
494.00	0.640
494.20	0.641
494.40	0.640
494.60	0.638
494.80	0.642
495.00	0.642
495.20	0.640
495.40	0.639
495.61	0.641
495.81	0.641
496.01	0.645
496.21	0.646
496.41	0.645
496.61	0.645
496.81	0.645
497.01	0.639
497.21	0.638
497.41	0.639
497.61	0.638
497.81	0.636
498.01	0.636
498.21	0.634
498.41	0.631
498.61	0.632
498.82	0.633
499.02	0.635
499.22	0.636
499.42	0.636
499.62	0.637
499.82	0.638
500.02	0.640
500.22	0.638
500.42	0.641
500.62	0.642
500.82	0.642
501.02	0.639
501.22	0.639
501.42	0.639
501.62	0.641
501.82	0.640
502.02	0.639
502.22	0.639
502.42	0.641
502.62	0.638
502.82	0.638
503.02	0.639
503.22	0.638
503.42	0.637
503.63	0.636
503.83	0.635
504.03	0.634
504.23	0.633
504.43	0.633
504.63	0.635
504.83	0.635
505.03	0.634
505.23	0.635
505.43	0.637
505.63	0.637
505.83	0.637
506.03	0.638
506.23	0.641
506.43	0.641
506.63	0.639
506.83	0.638
507.03	0.640
507.23	0.640
507.43	0.637
507.63	0.638
507.83	0.639
508.03	0.639
508.23	0.638
508.43	0.637
508.63	0.639
508.83	0.640
509.03	0.641
509.23	0.640
509.43	0.642
509.63	0.642
509.83	0.641
510.03	0.644
510.23	0.646
510.43	0.646
510.63	0.646
510.83	0.646
511.03	0.646
511.23	0.644
511.43	0.643
511.63	0.644
511.83	0.647
512.03	0.646
512.22	0.643
512.42	0.642
512.62	0.643
512.82	0.642
513.02	0.642
513.22	0.642
513.42	0.644
513.62	0.647
513.82	0.644
514.02	0.644
514.22	0.645
514.42	0.646
514.62	0.646
514.82	0.646
515.02	0.649
515.22	0.652
515.42	0.651
515.62	0.654
515.82	0.653
516.02	0.655
516.22	0.655
516.42	0.656
516.62	0.657
516.82	0.658
517.01	0.656
517.21	0.655
517.41	0.658
517.61	0.659
517.81	0.655
518.01	0.654
518.21	0.654
518.41	0.653
518.61	0.652
518.81	0.652
519.01	0.653
519.21	0.653
519.41	0.653
519.61	0.647
519.81	0.650
520.00	0.650
520.20	0.649
520.40	0.653
520.60	0.653
520.80	0.652
521.00	0.653
521.20	0.654
521.40	0.659
521.60	0.659
521.80	0.659
522.00	0.659
522.20	0.662
522.39	0.662
522.59	0.659
522.79	0.661
522.99	0.664
523.19	0.661
523.39	0.659
523.59	0.657
523.79	0.660
523.99	0.662
524.19	0.660
524.38	0.658
524.58	0.660
524.78	0.660
524.98	0.658
525.18	0.659
525.38	0.661
525.58	0.661
525.78	0.659
525.98	0.657
526.18	0.658
526.37	0.658
526.57	0.660
526.77	0.660
526.97	0.661
527.17	0.661
527.37	0.657
527.57	0.659
527.77	0.661
527.96	0.662
528.16	0.660
528.36	0.661
528.56	0.663
528.76	0.661
528.96	0.659
529.16	0.660
529.36	0.664
529.55	0.664
529.75	0.661
529.95	0.661
530.15	0.662
530.35	0.664
530.55	0.662
530.75	0.662
530.94	0.664
531.14	0.665
531.34	0.663
531.54	0.661
531.74	0.664
531.94	0.667
532.13	0.665
532.33	0.666
532.53	0.666
532.73	0.665
532.93	0.663
533.13	0.664
533.33	0.664
533.52	0.664
533.72	0.667
533.92	0.665
534.12	0.664
534.32	0.665
534.52	0.662
534.71	0.664
534.91	0.668
535.11	0.670
535.31	0.668
535.51	0.670
535.71	0.672
535.90	0.669
536.10	0.670
536.30	0.672
536.50	0.673
536.70	0.673
536.89	0.670
537.09	0.668
537.29	0.670
537.49	0.670
537.69	0.669
537.89	0.669
538.08	0.669
538.28	0.668
538.48	0.668
538.68	0.669
538.88	0.671
539.07	0.671
539.27	0.670
539.47	0.669
539.67	0.669
539.87	0.670
540.06	0.667
540.26	0.668
540.46	0.671
540.66	0.668
540.86	0.666
541.05	0.665
541.25	0.667
541.45	0.667
541.65	0.666
541.84	0.668
542.04	0.669
542.24	0.669
542.44	0.668
542.64	0.670
542.83	0.673
543.03	0.673
543.23	0.671
543.43	0.672
543.62	0.673
543.82	0.673
544.02	0.672
544.22	0.672
544.42	0.676
544.61	0.675
544.81	0.672
545.01	0.671
545.21	0.673
545.40	0.674
545.60	0.672
545.80	0.675
546.00	0.676
546.19	0.675
546.39	0.674
546.59	0.672
546.79	0.674
546.98	0.674
547.18	0.673
547.38	0.674
547.58	0.677
547.77	0.678
547.97	0.673
548.17	0.675
548.37	0.675
548.56	0.675
548.76	0.674
548.96	0.676
549.16	0.679
549.35	0.678
549.55	0.676
549.75	0.676
549.95	0.679
550.14	0.680
550.34	0.678
550.54	0.684
550.73	0.687
550.93	0.687
551.13	0.683
551.33	0.682
551.52	0.683
551.72	0.683
551.92	0.681
552.12	0.682
552.31	0.683
552.51	0.683
552.71	0.677
552.90	0.677
553.10	0.678
553.30	0.679
553.50	0.678
553.69	0.679
553.89	0.680
554.09	0.680
554.28	0.676
554.48	0.678
554.68	0.680
554.87	0.681
555.07	0.677
555.27	0.677
555.47	0.678
555.66	0.678
555.86	0.677
556.06	0.679
556.25	0.681
556.45	0.689
556.65	0.687
556.84	0.690
557.04	0.694
557.24	0.695
557.43	0.695
557.63	0.698
557.83	0.700
558.02	0.701
558.22	0.704
558.42	0.705
558.61	0.697
558.81	0.697
559.01	0.693
559.21	0.693
559.40	0.695
559.60	0.694
559.80	0.691
559.99	0.692
560.19	0.694
560.39	0.689
560.58	0.686
560.78	0.686
560.97	0.690
561.17	0.689
561.37	0.687
561.56	0.688
561.76	0.689
561.96	0.689
562.15	0.686
562.35	0.689
562.55	0.690
562.74	0.690
562.94	0.689
563.14	0.687
563.33	0.688
563.53	0.688
563.73	0.685
563.92	0.687
564.12	0.690
564.31	0.692
564.51	0.690
564.71	0.692
564.90	0.695
565.10	0.696
565.30	0.698
565.49	0.699
565.69	0.700
565.89	0.701
566.08	0.697
566.28	0.699
566.47	0.700
566.67	0.699
566.87	0.695
567.06	0.697
567.26	0.703
567.46	0.698
567.65	0.698
567.85	0.699
568.04	0.702
568.24	0.701
568.44	0.698
568.63	0.696
568.83	0.698
569.02	0.697
569.22	0.692
569.42	0.688
569.61	0.691
569.81	0.689
570.00	0.687
570.20	0.689
570.40	0.690
570.59	0.690
570.79	0.687
570.98	0.686
571.18	0.687
571.38	0.687
571.57	0.684
571.77	0.681
571.96	0.685
572.16	0.682
572.35	0.677
572.55	0.677
572.75	0.675
572.94	0.675
573.14	0.673
573.33	0.673
573.53	0.674
573.73	0.673
573.92	0.671
574.12	0.669
574.31	0.672
574.51	0.673
574.70	0.670
574.90	0.672
575.09	0.675
575.29	0.675
575.49	0.672
575.68	0.673
575.88	0.674
576.07	0.675
576.27	0.673
576.46	0.671
576.66	0.671
576.86	0.670
577.05	0.667
577.25	0.665
577.44	0.667
577.64	0.667
577.83	0.666
578.03	0.667
578.22	0.667
578.42	0.666
578.61	0.664
578.81	0.665
579.00	0.666
579.20	0.666
579.40	0.665
579.59	0.663
579.79	0.664
579.98	0.663
580.18	0.662
580.37	0.663
580.57	0.665
580.76	0.669
580.96	0.667
581.15	0.668
581.35	0.670
581.54	0.669
581.74	0.668
581.93	0.670
582.13	0.671
582.32	0.669
582.52	0.667
582.71	0.666
582.91	0.663
583.10	0.663
583.30	0.661
583.49	0.661
583.69	0.665
583.88	0.666
584.08	0.665
584.27	0.667
584.47	0.670
584.66	0.671
584.86	0.670
585.05	0.672
585.25	0.674
585.44	0.674
585.64	0.672
585.83	0.669
586.03	0.669
586.22	0.668
586.42	0.664
586.61	0.666
586.81	0.668
587.00	0.668
587.20	0.666
587.39	0.666
587.59	0.669
587.78	0.670
587.98	0.671
588.17	0.671
588.37	0.675
588.56	0.677
588.76	0.673
588.95	0.672
589.15	0.676
589.34	0.679
589.54	0.677
589.73	0.677
589.92	0.681
590.12	0.680
590.31	0.678
590.51	0.683
590.70	0.685
590.90	0.685
591.09	0.683
591.29	0.682
591.48	0.682
591.68	0.683
591.87	0.681
592.06	0.680
592.26	0.683
592.45	0.683
592.65	0.676
592.84	0.676
593.04	0.678
593.23	0.680
593.43	0.677
593.62	0.677
593.81	0.678
594.01	0.677
594.20	0.675
594.40	0.674
594.59	0.676
594.79	0.677
594.98	0.676
595.17	0.675
595.37	0.676
595.56	0.679
595.76	0.678
595.95	0.680
596.14	0.683
596.34	0.684
596.53	0.681
596.73	0.683
596.92	0.684
597.12	0.686
597.31	0.686
597.50	0.685
597.70	0.687
597.89	0.686
598.09	0.682
598.28	0.684
598.47	0.686
598.67	0.685
598.86	0.681
599.06	0.684
599.25	0.684
599.44	0.682
599.64	0.680
599.83	0.677
600.03	0.680
600.22	0.681
600.41	0.680
600.61	0.678
600.80	0.680
601.00	0.681
601.19	0.676
601.38	0.675
601.58	0.678
601.77	0.679
601.96	0.681
602.16	0.682
602.35	0.691
602.55	0.688
602.74	0.689
602.93	0.691
603.13	0.697
603.32	0.698
603.51	0.697
603.71	0.700
603.90	0.703
604.09	0.702
604.29	0.700
604.48	0.694
604.68	0.696
604.87	0.694
605.06	0.690
605.26	0.687
605.45	0.687
605.64	0.686
605.84	0.681
606.03	0.680
606.22	0.679
606.42	0.679
606.61	0.675
606.80	0.675
607.00	0.677
607.19	0.677
607.38	0.675
607.58	0.677
607.77	0.680
607.96	0.681
608.16	0.679
608.35	0.684
608.54	0.687
608.74	0.691
608.93	0.696
609.12	0.698
609.32	0.701
609.51	0.704
609.70	0.703
609.90	0.704
610.09	0.708
610.28	0.713
610.48	0.706
610.67	0.708
610.86	0.709
611.06	0.704
611.25	0.701
611.44	0.702
611.64	0.702
611.83	0.705
612.02	0.701
612.21	0.700
612.41	0.699
612.60	0.698
612.79	0.693
612.99	0.693
613.18	0.695
613.37	0.693
613.57	0.690
613.76	0.692
613.95	0.690
614.14	0.689
614.34	0.687
614.53	0.688
614.72	0.691
614.92	0.691
615.11	0.688
615.30	0.685
615.49	0.687
615.69	0.688
615.88	0.685
616.07	0.686
616.26	0.688
616.46	0.689
616.65	0.686
616.84	0.685
617.04	0.687
617.23	0.690
617.42	0.690
617.61	0.694
617.81	0.694
618.00	0.696
618.19	0.695
618.38	0.699
618.58	0.703
618.77	0.705
618.96	0.705
619.15	0.706
619.35	0.708
619.54	0.710
619.73	0.705
619.92	0.708
620.12	0.713
620.31	0.713
620.50	0.707
620.69	0.707
620.89	0.709
621.08	0.709
621.27	0.709
621.46	0.707
621.66	0.712
621.85	0.712
622.04	0.708
622.23	0.709
622.43	0.709
622.62	0.709
622.81	0.708
623.00	0.708
623.19	0.712
623.39	0.711
623.58	0.708
623.77	0.706
623.96	0.710
624.16	0.711
624.35	0.705
624.54	0.709
624.73	0.714
624.92	0.711
625.12	0.709
625.31	0.709
625.50	0.712
625.69	0.712
625.88	0.708
626.08	0.707
626.27	0.708
626.46	0.709
626.65	0.705
626.84	0.705
627.04	0.711
627.23	0.711
627.42	0.705
627.61	0.708
627.80	0.712
628.00	0.712
628.19	0.710
628.38	0.713
628.57	0.716
628.76	0.715
628.96	0.712
629.15	0.712
629.34	0.715
629.53	0.716
629.72	0.710
629.91	0.711
630.11	0.716
630.30	0.716
630.49	0.718
630.68	0.719
630.87	0.723
631.06	0.724
631.26	0.719
631.45	0.721
631.64	0.730
631.83	0.732
632.02	0.728
632.21	0.728
632.41	0.735
632.60	0.730
632.79	0.728
632.98	0.728
633.17	0.731
633.36	0.732
633.55	0.728
633.75	0.724
633.94	0.727
634.13	0.726
634.32	0.723
634.51	0.718
634.70	0.720
634.89	0.720
635.09	0.716
635.28	0.716
635.47	0.718
635.66	0.720
635.85	0.716
636.04	0.719
636.23	0.725
636.43	0.725
636.62	0.724
636.81	0.723
637.00	0.726
637.19	0.730
637.38	0.726
637.57	0.725
637.76	0.727
637.95	0.728
638.15	0.724
638.34	0.721
638.53	0.724
638.72	0.726
638.91	0.723
639.10	0.721
639.29	0.721
639.48	0.722
639.67	0.722
639.87	0.721
640.06	0.727
640.25	0.726
640.44	0.727
640.63	0.728
640.82	0.731
641.01	0.731
641.20	0.730
641.39	0.732
641.58	0.734
641.78	0.732
641.97	0.727
642.16	0.741
642.35	0.743
642.54	0.741
642.73	0.733
642.92	0.731
643.11	0.736
643.30	0.736
643.49	0.730
643.68	0.734
643.87	0.737
644.06	0.737
644.25	0.716
644.45	0.718
644.64	0.720
644.83	0.722
645.02	0.720
645.21	0.719
645.40	0.720
645.59	0.720
645.78	0.713
645.97	0.714
646.16	0.716
646.35	0.715
646.54	0.713
646.73	0.714
646.92	0.715
647.11	0.715
647.30	0.711
647.49	0.712
647.68	0.711
647.88	0.710
648.07	0.703
648.26	0.706
648.45	0.708
648.64	0.704
648.83	0.701
649.02	0.704
649.21	0.715
649.40	0.714
649.59	0.708
649.78	0.710
649.97	0.724
650.16	0.723
650.35	0.718
650.54	0.720
650.73	0.729
650.92	0.725
651.11	0.719
651.30	0.715
651.49	0.720
651.68	0.721
651.87	0.717
652.06	0.707
652.25	0.710
652.44	0.713
652.63	0.710
652.82	0.709
653.01	0.708
653.20	0.706
653.39	0.694
653.58	0.691
653.77	0.691
653.96	0.686
654.15	0.678
654.34	0.675
654.53	0.671
654.72	0.664
654.91	0.655
655.10	0.651
655.29	0.649
655.48	0.647
655.67	0.641
655.86	0.638
656.05	0.638
656.24	0.637
656.43	0.632
656.62	0.631
656.81	0.632
657.00	0.630
657.19	0.627
657.38	0.627
657.57	0.627
657.76	0.629
657.95	0.627
658.14	0.630
658.33	0.633
658.51	0.639
658.70	0.640
658.89	0.641
659.08	0.651
659.27	0.658
659.46	0.659
659.65	0.666
659.84	0.670
660.03	0.674
660.22	0.675
660.41	0.679
660.60	0.678
660.79	0.680
660.98	0.685
661.17	0.684
661.36	0.684
661.55	0.684
661.74	0.681
661.92	0.684
662.11	0.686
662.30	0.685
662.49	0.678
662.68	0.678
662.87	0.681
663.06	0.675
663.25	0.676
663.44	0.676
663.63	0.677
663.82	0.675
664.01	0.670
664.20	0.667
664.38	0.669
664.57	0.669
664.76	0.668
664.95	0.669
665.14	0.674
665.33	0.669
665.52	0.677
665.71	0.681
665.90	0.682
666.09	0.683
666.28	0.681
666.46	0.680
666.65	0.682
666.84	0.680
667.03	0.674
667.22	0.671
667.41	0.674
667.60	0.664
667.79	0.657
667.98	0.658
668.16	0.659
668.35	0.659
668.54	0.655
668.73	0.655
668.92	0.656
669.11	0.656
669.30	0.650
669.49	0.646
669.67	0.649
669.86	0.651
670.05	0.648
670.24	0.645
670.43	0.643
670.62	0.642
670.81	0.637
671.00	0.638
671.18	0.637
671.37	0.636
671.56	0.635
671.75	0.633
671.94	0.630
672.13	0.628
672.32	0.624
672.50	0.623
672.69	0.623
672.88	0.623
673.07	0.619
673.26	0.622
673.45	0.623
673.63	0.622
673.82	0.619
674.01	0.621
674.20	0.621
674.39	0.619
674.58	0.619
674.76	0.618
674.95	0.617
675.14	0.616
675.33	0.612
675.52	0.610
675.71	0.611
675.89	0.609
676.08	0.605
676.27	0.605
676.46	0.606
676.65	0.605
676.84	0.605
677.02	0.607
677.21	0.609
677.40	0.608
677.59	0.606
677.78	0.606
677.96	0.610
678.15	0.609
678.34	0.607
678.53	0.607
678.72	0.608
678.90	0.604
679.09	0.600
679.28	0.596
679.47	0.597
679.66	0.596
679.84	0.592
680.03	0.589
680.22	0.588
680.41	0.590
680.60	0.587
680.78	0.586
680.97	0.589
681.16	0.589
681.35	0.588
681.53	0.587
681.72	0.589
681.91	0.591
682.10	0.589
682.29	0.592
682.47	0.590
682.66	0.589
682.85	0.587
683.04	0.585
683.22	0.585
683.41	0.587
683.60	0.585
683.79	0.586
683.97	0.585
684.16	0.584
684.35	0.580
684.54	0.581
684.72	0.582
684.91	0.583
685.10	0.581
685.29	0.583
685.47	0.581
685.66	0.580
685.85	0.576
686.04	0.575
686.22	0.578
686.41	0.580
686.60	0.577
686.79	0.580
686.97	0.581
687.16	0.582
687.35	0.578
687.54	0.581
687.72	0.585
687.91	0.585
688.10	0.587
688.29	0.586
688.47	0.584
688.66	0.584
688.85	0.581
689.03	0.578
689.22	0.583
689.41	0.584
689.60	0.579
689.78	0.576
689.97	0.577
690.16	0.574
690.34	0.570
690.53	0.570
690.72	0.571
690.91	0.568
691.09	0.567
691.28	0.560
691.47	0.558
691.65	0.557
691.84	0.555
692.03	0.554
692.21	0.552
692.40	0.552
692.59	0.549
692.77	0.549
692.96	0.550
693.15	0.551
693.34	0.548
693.52	0.549
693.71	0.549
693.90	0.550
694.08	0.551
694.27	0.552
694.46	0.561
694.64	0.562
694.83	0.561
695.02	0.560
695.20	0.560
695.39	0.560
695.58	0.560
695.76	0.560
695.95	0.560
696.14	0.559
696.32	0.556
696.51	0.547
696.70	0.547
696.88	0.547
697.07	0.546
697.26	0.547
697.44	0.548
697.63	0.547
697.81	0.545
698.00	0.544
698.19	0.544
698.37	0.545
698.56	0.544
698.75	0.544
698.93	0.544
699.12	0.543
699.31	0.542
699.49	0.542
699.68	0.542
699.87	0.544
700.05	0.544
700.24	0.543
700.42	0.545
700.61	0.544
700.80	0.542
700.98	0.542
701.17	0.544
701.36	0.544
701.54	0.543
701.73	0.545
701.91	0.542
702.10	0.542
702.29	0.540
702.47	0.539
702.66	0.541
702.84	0.543
703.03	0.540
703.22	0.542
703.40	0.542
703.59	0.543
703.77	0.543
703.96	0.543
704.15	0.543
704.33	0.543
704.52	0.542
704.70	0.541
704.89	0.541
705.08	0.540
705.26	0.535
705.45	0.535
705.63	0.535
705.82	0.532
706.00	0.531
706.19	0.531
706.38	0.531
706.56	0.530
706.75	0.527
706.93	0.526
707.12	0.528
707.30	0.529
707.49	0.526
707.68	0.524
707.86	0.523
708.05	0.523
708.23	0.520
708.42	0.521
708.60	0.524
708.79	0.523
708.98	0.522
709.16	0.521
709.35	0.523
709.53	0.527
709.72	0.526
709.90	0.528
710.09	0.530
710.27	0.532
710.46	0.536
710.64	0.534
710.83	0.537
711.02	0.538
711.20	0.536
711.39	0.534
711.57	0.532
711.76	0.532
711.94	0.530
712.13	0.531
712.31	0.531
712.50	0.526
712.68	0.523
712.87	0.524
713.05	0.525
713.24	0.525
713.42	0.525
713.61	0.525
713.79	0.527
713.98	0.527
714.16	0.528
714.35	0.528
714.54	0.529
714.72	0.529
714.91	0.526
715.09	0.533
715.28	0.536
715.46	0.537
715.65	0.534
715.83	0.534
716.02	0.536
716.20	0.533
716.39	0.531
716.57	0.533
716.76	0.535
716.94	0.535
717.12	0.527
717.31	0.529
717.49	0.531
717.68	0.533
717.86	0.532
718.05	0.534
718.23	0.537
718.42	0.539
718.60	0.540
718.79	0.548
718.97	0.551
719.16	0.552
719.34	0.549
719.53	0.549
719.71	0.549
719.90	0.551
720.08	0.547
720.27	0.548
720.45	0.548
720.63	0.547
720.82	0.541
721.00	0.543
721.19	0.546
721.37	0.546
721.56	0.546
721.74	0.548
721.93	0.558
722.11	0.566
722.30	0.565
722.48	0.569
722.66	0.571
722.85	0.571
723.03	0.572
723.22	0.570
723.40	0.574
723.59	0.575
723.77	0.579
723.95	0.572
724.14	0.573
724.32	0.576
724.51	0.575
724.69	0.577
724.88	0.577
725.06	0.576
725.24	0.576
725.43	0.577
725.61	0.579
725.80	0.574
725.98	0.571
726.16	0.568
726.35	0.573
726.53	0.572
726.72	0.570
726.90	0.581
727.09	0.581
727.27	0.586
727.45	0.583
727.64	0.592
727.82	0.603
728.01	0.607
728.19	0.604
728.37	0.609
728.56	0.614
728.74	0.621
728.92	0.609
729.11	0.611
729.29	0.611
729.48	0.612
729.66	0.600
729.84	0.598
730.03	0.601
730.21	0.604
730.40	0.595
730.58	0.596
730.76	0.596
730.95	0.598
731.13	0.599
731.31	0.613
731.50	0.624
731.68	0.629
731.86	0.624
732.05	0.638
732.23	0.642
732.42	0.646
732.60	0.649
732.78	0.655
732.97	0.674
733.15	0.679
733.33	0.666
733.52	0.672
733.70	0.684
733.88	0.695
734.07	0.680
734.25	0.706
734.43	0.716
734.62	0.717
734.80	0.711
734.98	0.703
735.17	0.712
735.35	0.720
735.53	0.709
735.72	0.712
735.90	0.735
736.08	0.756
736.27	0.730
736.45	0.741
736.63	0.759
736.82	0.769
737.00	0.768
737.18	0.781
737.37	0.815
737.55	0.840
737.73	0.836
737.92	0.837
738.10	0.837
738.28	0.860
738.46	0.848
738.65	0.861
738.83	0.887
739.01	0.946
739.20	0.935
739.38	0.914
739.56	0.904
739.75	0.910
739.93	0.874
740.11	0.902
740.29	0.903
740.48	0.910
740.66	0.884
740.84	0.876
741.03	0.844
741.21	0.855
741.39	0.835
741.57	0.852
741.76	0.872
741.94	0.883
742.12	0.841
742.31	0.849
742.49	0.875
742.67	0.903
742.85	0.918
743.04	0.919
743.22	0.930
743.40	0.992
743.58	0.969
743.77	0.986
743.95	1.025
744.13	1.093
744.31	1.065
744.50	1.058
744.68	1.058
744.86	1.028
745.04	1.042
745.23	1.127
745.41	1.111
745.59	1.119
745.77	1.072
745.96	1.055
746.14	1.057
746.32	1.056
746.50	1.043
746.69	1.024
746.87	1.041
747.05	1.024
747.23	0.935
747.42	0.923
747.60	0.956
747.78	0.962
747.96	1.002
748.14	0.954
748.33	0.993
748.51	0.986
748.69	0.969
748.87	1.006
749.06	1.002
749.24	1.001
749.42	0.976
749.60	0.952
749.78	0.964
749.97	0.906
750.15	0.901
750.33	0.902
750.51	0.929
750.69	0.940
750.88	0.940
751.06	0.956
751.24	0.991
751.42	0.983
751.60	0.972
751.79	1.058
751.97	1.126
752.15	1.123
752.33	1.076
752.51	1.165
752.69	1.193
752.88	1.147
753.06	1.202
753.24	1.160
753.42	1.209
753.60	1.468
753.78	1.246
753.97	1.267
754.15	1.293
754.33	1.336
754.51	1.160
754.69	1.139
754.87	1.176
755.06	1.080
755.24	1.078
755.42	1.087
755.60	0.967
755.78	0.977
755.96	0.910
756.15	0.909
756.33	0.916
756.51	0.935
756.69	0.916
756.87	0.881
757.05	0.905
757.23	0.887
757.42	0.848
757.60	0.845
757.78	0.835
757.96	0.836
758.14	0.814
758.32	0.796
758.50	0.810
758.69	0.808
758.87	0.798
759.05	0.799
759.23	0.809
759.41	0.812
759.59	0.806
759.77	0.828
759.95	0.858
760.13	0.916
760.32	0.915
760.50	0.905
760.68	0.936
760.86	0.935
761.04	0.903
761.22	0.907
761.40	0.961
761.58	0.962
761.76	0.931
761.95	0.908
762.13	0.859
762.31	0.859
762.49	0.829
762.67	0.847
762.85	0.864
763.03	0.860
763.21	0.838
763.39	0.818
763.57	0.818
763.75	0.810
763.94	0.795
764.12	0.796
764.30	0.824
764.48	0.825
764.66	0.783
764.84	0.782
765.02	0.824
765.20	0.834
765.38	0.812
765.56	0.819
765.74	0.865
765.92	0.866
766.10	0.876
766.28	0.866
766.46	0.898
766.65	0.900
766.83	0.882
767.01	0.864
767.19	0.874
767.37	0.873
767.55	0.858
767.73	0.835
767.91	0.837
768.09	0.824
768.27	0.812
768.45	0.804
768.63	0.811
768.81	0.814
768.99	0.786
769.17	0.810
769.35	0.828
769.53	0.826
769.71	0.803
769.89	0.813
770.07	0.819
770.25	0.802
770.43	0.776
770.61	0.803
770.79	0.811
770.97	0.823
771.15	0.786
771.33	0.787
771.51	0.790
771.69	0.804
771.87	0.811
772.05	0.816
772.24	0.824
772.42	0.834
772.60	0.807
772.78	0.870
772.96	0.898
773.14	0.896
773.32	0.873
773.49	0.882
773.67	0.880
773.85	0.858
774.03	0.844
774.21	0.877
774.39	0.891
774.57	0.920
774.75	0.841
774.93	0.835
775.11	0.861
775.29	0.867
775.47	0.865
775.65	0.876
775.83	0.896
776.01	0.924
776.19	0.873
776.37	0.873
776.55	0.872
776.73	0.866
776.91	0.861
777.09	0.843
777.27	0.843
777.45	0.832
777.63	0.807
777.81	0.804
777.99	0.789
778.17	0.787
778.35	0.766
778.53	0.755
778.71	0.761
778.89	0.749
779.07	0.737
779.24	0.739
779.42	0.742
779.60	0.763
779.78	0.757
779.96	0.766
780.14	0.775
780.32	0.794
780.50	0.776
780.68	0.775
780.86	0.767
781.04	0.786
781.22	0.791
781.40	0.803
781.58	0.791
781.75	0.782
781.93	0.760
782.11	0.760
782.29	0.747
782.47	0.743
782.65	0.731
782.83	0.760
783.01	0.752
783.19	0.747
783.37	0.731
783.55	0.734
783.72	0.758
783.90	0.768
784.08	0.759
784.26	0.773
784.44	0.795
784.62	0.798
784.80	0.760
784.98	0.770
785.16	0.777
785.33	0.793
785.51	0.777
785.69	0.761
785.87	0.762
786.05	0.774
786.23	0.765
786.41	0.763
786.59	0.771
786.77	0.771
786.94	0.754
787.12	0.755
787.30	0.754
787.48	0.752
787.66	0.738
787.84	0.737
788.02	0.727
788.19	0.726
788.37	0.710
788.55	0.712
788.73	0.712
788.91	0.705
789.09	0.688
789.27	0.677
789.44	0.688
789.62	0.696
789.80	0.707
789.98	0.731
790.16	0.718
790.34	0.714
790.51	0.700
790.69	0.722
790.87	0.729
791.05	0.727
791.23	0.721
791.41	0.720
791.58	0.727
791.76	0.705
791.94	0.676
792.12	0.686
792.30	0.689
792.48	0.686
792.65	0.679
792.83	0.687
793.01	0.694
793.19	0.692
793.37	0.678
793.54	0.675
793.72	0.686
793.90	0.684
794.08	0.670
794.26	0.670
794.43	0.681
794.61	0.664
794.79	0.651
794.97	0.649
795.15	0.654
795.32	0.656
795.50	0.645
795.68	0.639
795.86	0.643
796.04	0.646
796.21	0.640
796.39	0.637
796.57	0.653
796.75	0.661
796.92	0.661
797.10	0.666
797.28	0.670
797.46	0.673
797.64	0.675
797.81	0.683
797.99	0.688
798.17	0.690
798.35	0.685
798.52	0.687
798.70	0.683
798.88	0.694
799.06	0.693
799.23	0.696
799.41	0.706
799.59	0.699
799.77	0.687
799.94	0.697
800.12	0.708
800.30	0.727
800.48	0.725
800.65	0.724
800.83	0.713
801.01	0.704
801.19	0.703
801.36	0.699
801.54	0.702
801.72	0.712
801.90	0.698
802.07	0.692
802.25	0.676
802.43	0.660
802.60	0.657
802.78	0.665
802.96	0.671
803.14	0.664
803.31	0.662
803.49	0.663
803.67	0.660
803.84	0.663
804.02	0.655
804.20	0.659
804.38	0.665
804.55	0.663
804.73	0.647
804.91	0.646
805.08	0.658
805.26	0.653
805.44	0.721
805.61	0.724
805.79	0.726
805.97	0.725
806.15	0.714
806.32	0.709
806.50	0.716
806.68	0.717
806.85	0.707
807.03	0.700
807.21	0.721
807.38	0.648
807.56	0.639
807.74	0.648
807.91	0.657
808.09	0.661
808.27	0.681
808.44	0.709
808.62	0.721
808.80	0.724
808.97	0.716
809.15	0.707
809.33	0.726
809.50	0.732
809.68	0.717
809.86	0.724
810.03	0.758
810.21	0.735
810.39	0.715
810.56	0.721
810.74	0.747
810.91	0.828
811.09	0.817
811.27	0.840
811.44	0.848
811.62	0.851
811.80	0.830
811.97	0.796
812.15	0.797
812.33	0.791
812.50	0.776
812.68	0.763
812.85	0.701
813.03	0.703
813.21	0.667
813.38	0.662
813.56	0.665
813.74	0.676
813.91	0.685
814.09	0.716
814.26	0.708
814.44	0.712
814.62	0.699
814.79	0.705
814.97	0.712
815.14	0.719
815.32	0.721
815.50	0.738
815.67	0.742
815.85	0.733
816.02	0.720
816.20	0.730
816.38	0.746
816.55	0.755
816.73	0.754
816.90	0.763
817.08	0.797
817.26	0.805
817.43	0.784
817.61	0.811
817.78	0.836
817.96	0.813
818.13	0.803
818.31	0.806
818.49	0.820
818.66	0.805
818.84	0.791
819.01	0.768
819.19	0.775
819.36	0.778
819.54	0.747
819.71	0.792
819.89	0.808
820.07	0.821
820.24	0.811
820.42	0.810
820.59	0.837
820.77	0.861
820.94	0.852
821.12	0.874
821.29	0.889
821.47	0.885
821.64	0.813
821.82	0.827
822.00	0.824
822.17	0.825
822.35	0.818
822.52	0.821
822.70	0.811
822.87	0.824
823.05	0.799
823.22	0.815
823.40	0.850
823.57	0.878
823.75	0.862
823.92	0.897
824.10	0.917
824.27	0.967
824.45	0.953
824.62	1.032
824.80	1.056
824.97	1.077
825.15	1.062
825.32	1.080
825.50	1.080
825.67	1.084
825.85	1.044
826.02	1.080
826.20	1.113
826.37	1.307
826.55	1.183
826.72	1.502
826.90	1.672
827.07	1.835
827.25	1.696
827.42	2.716
827.60	-0.000
827.77	-0.000
827.95	-0.000
828.12	-0.000
828.30	-0.000
828.47	-0.000
828.65	1.844
828.82	2.347
829.00	-0.000
829.17	-0.000
829.34	-0.000
829.52	-0.000
829.69	-0.000
829.87	-0.000
830.04	-0.000
830.22	-0.000
830.39	-0.000
830.57	-0.000
830.74	-0.000
830.92	-0.000
831.09	-0.000
831.26	-0.000
831.44	-0.000
831.61	-0.000
831.79	-0.000
831.96	-0.000
832.14	-0.000
832.31	-0.000
832.49	-0.000
832.66	-0.000
832.83	-0.000
833.01	-0.000
833.18	-0.000
833.36	-0.000
833.53	-0.000
833.70	-0.000
833.88	-0.000
834.05	-0.000
834.23	-0.000
834.40	-0.000
834.58	-0.000
834.75	-0.000
834.92	-0.000
835.10	-0.000
835.27	-0.000
835.45	-0.000
835.62	-0.000
835.79	-0.000
835.97	-0.000
836.14	-0.000
836.32	-0.000
836.49	-0.000
836.66	-0.000
836.84	-0.000
837.01	-0.000
837.18	-0.000
837.36	-0.000
837.53	-0.000
837.71	-0.000
837.88	-0.000
838.05	-0.000
838.23	-0.000
838.40	-0.000
838.58	-0.000
838.75	-0.000
838.92	-0.000
839.10	-0.000
839.27	-0.000
839.44	-0.000
839.62	-0.000
839.79	-0.000
839.96	-0.000
840.14	-0.000
840.31	-0.000
840.48	-0.000
840.66	-0.000
840.83	-0.000
841.01	-0.000
841.18	-0.000
841.35	-0.000
841.53	-0.000
841.70	-0.000
841.87	-0.000
842.05	-0.000
842.22	-0.000
842.39	-0.000
842.57	-0.000
842.74	-0.000
842.91	-0.000
843.09	-0.000
843.26	-0.000
843.43	-0.000
843.60	-0.000
843.78	-0.000
843.95	-0.000
844.12	-0.000
844.30	-0.000
844.47	-0.000
844.64	-0.000
844.82	-0.000
844.99	-0.000
845.16	-0.000
845.34	-0.000
845.51	-0.000
845.68	-0.000
845.85	-0.000
846.03	-0.000
846.20	-0.000
846.37	-0.000
846.55	-0.000
846.72	-0.000
846.89	-0.000
847.06	-0.000
847.24	-0.000
847.41	-0.000
847.58	-0.000
847.76	-0.000
847.93	-0.000
848.10	-0.000
848.27	-0.000
848.45	-0.000
848.62	-0.000
848.79	-0.000
848.97	-0.000
849.14	-0.000
849.31	-0.000
849.48	-0.000
849.66	-0.000
849.83	-0.000
850.00	-0.000
850.17	-0.000
850.35	-0.000
850.52	-0.000
850.69	-0.000
850.86	-0.000
851.04	-0.000
851.21	-0.000
851.38	-0.000
851.55	-0.000
851.72	-0.000
851.90	-0.000
852.07	-0.000
852.24	-0.000
852.41	-0.000
852.59	-0.000
852.76	-0.000
852.93	-0.000
853.10	-0.000
853.28	-0.000
853.45	-0.000
853.62	-0.000
853.79	-0.000
853.96	-0.000
854.14	-0.000
854.31	-0.000
854.48	-0.000
854.65	-0.000
854.82	-0.000
855.00	-0.000
855.17	-0.000
855.34	-0.000
855.51	-0.000
855.68	-0.000
855.86	-0.000
856.03	-0.000
856.20	-0.000
856.37	-0.000
856.54	-0.000
856.72	-0.000
856.89	-0.000
857.06	-0.000
857.23	-0.000
857.40	-0.000
857.57	-0.000
857.75	-0.000
857.92	-0.000
858.09	-0.000
858.26	-0.000
858.43	-0.000
858.60	-0.000
858.78	-0.000
858.95	-0.000
859.12	-0.000
859.29	-0.000
859.46	-0.000
859.63	-0.000
859.81	-0.000
859.98	-0.000
860.15	-0.000
860.32	-0.000
860.49	-0.000
860.66	-0.000
860.83	-0.000
861.01	-0.000
861.18	-0.000
861.35	-0.000
861.52	-0.000
861.69	-0.000
861.86	-0.000
862.03	-0.000
862.21	-0.000
862.38	-0.000
862.55	-0.000
862.72	-0.000
862.89	-0.000
863.06	-0.000
863.23	-0.000
863.40	-0.000
863.58	-0.000
863.75	-0.000
863.92	-0.000
864.09	-0.000
864.26	-0.000
864.43	-0.000
864.60	-0.000
864.77	-0.000
864.94	-0.000
865.11	-0.000
865.29	-0.000
865.46	-0.000
865.63	-0.000
865.80	-0.000
865.97	-0.000
866.14	-0.000
866.31	-0.000
866.48	-0.000
866.65	-0.000
866.82	-0.000
866.99	-0.000
867.16	-0.000
867.34	-0.000
867.51	-0.000
867.68	-0.000
867.85	-0.000
868.02	-0.000
868.19	-0.000
868.36	-0.000
868.53	-0.000
868.70	-0.000
868.87	-0.000
869.04	-0.000
869.21	-0.000
869.38	-0.000
869.55	-0.000
869.72	-0.000
869.89	-0.000
870.06	-0.000
870.24	-0.000
870.41	-0.000
870.58	-0.000
870.75	-0.000
870.92	-0.000
871.09	-0.000
871.26	-0.000
871.43	-0.000
871.60	-0.000
871.77	-0.000
871.94	-0.000
872.11	-0.000
872.28	-0.000
872.45	-0.000
872.62	-0.000
872.79	-0.000
872.96	-0.000
873.13	-0.000
873.30	-0.000
873.47	-0.000
873.64	-0.000
873.81	-0.000
873.98	-0.000
874.15	-0.000
874.32	-0.000
874.49	-0.000
874.66	-0.000
874.83	-0.000
875.00	-0.000
875.17	-0.000
875.34	-0.000
875.51	-0.000
875.68	-0.000
875.85	-0.000
876.02	-0.000
876.19	-0.000
876.36	-0.000
876.53	-0.000
876.70	-0.000
876.87	-0.000
877.04	-0.000
877.21	-0.000
877.38	-0.000
877.55	-0.000
877.72	-0.000
877.89	-0.000
878.06	-0.000
878.23	-0.000
878.39	-0.000
878.56	-0.000
878.73	-0.000
878.90	-0.000
879.07	-0.000
879.24	-0.000
879.41	-0.000
879.58	-0.000
879.75	-0.000
879.92	-0.000
880.09	-0.000
880.26	-0.000
880.43	-0.000
880.60	-0.000
880.77	-0.000
880.94	-0.000
881.11	-0.000
881.27	-0.000
881.44	-0.000
881.61	-0.000
881.78	-0.000
881.95	-0.000
882.12	-0.000
882.29	-0.000
882.46	-0.000
882.63	-0.000
882.80	-0.000
882.97	-0.000
883.14	-0.000
883.30	-0.000
883.47	-0.000
883.64	-0.000
883.81	-0.000
883.98	-0.000
884.15	-0.000
884.32	-0.000
884.49	-0.000
884.66	-0.000
884.82	-0.000
884.99	-0.000
885.16	-0.000
885.33	-0.000
885.50	-0.000
885.67	-0.000
885.84	-0.000
886.01	-0.000
886.17	-0.000
886.34	-0.000
886.51	-0.000
886.68	-0.000
886.85	-0.000
887.02	-0.000
887.19	-0.000
887.36	-0.000
887.52	-0.000
887.69	-0.000
887.86	-0.000
888.03	-0.000
888.20	-0.000
888.37	-0.000
888.54	-0.000
888.70	-0.000
888.87	-0.000
889.04	-0.000
889.21	-0.000
889.38	-0.000
889.55	-0.000
889.71	-0.000
889.88	-0.000
890.05	-0.000
890.22	-0.000
890.39	-0.000
>>>>>End Processed Spectral Data<<<<<
