SpectraSuite Data File
++++++++++++++++++++++++++++++++++++
Date: Fri Jun 19 13:37:02 CEST 2015
User: introlabs
Dark Spectrum Present: Yes
Reference Spectrum Present: Yes
Number of Sampled Component Spectra: 1
Spectrometers: USB4H08886
Integration Time (usec): 745692 (USB4H08886)
Spectra Averaged: 5 (USB4H08886)
Boxcar Smoothing: 5 (USB4H08886)
Correct for Electrical Dark: Yes (USB4H08886)
Strobe/Lamp Enabled: No (USB4H08886)
Correct for Detector Non-linearity: Yes (USB4H08886)
Correct for Stray Light: Yes (USB4H08886)
Number of Pixels in Processed Spectrum: 3648
>>>>>Begin Processed Spectral Data<<<<<
178.14	-0.000
178.36	-0.000
178.57	-0.000
178.79	-0.000
179.01	-0.000
179.22	-0.000
179.44	-0.000
179.65	-0.000
179.87	-0.000
180.08	-0.000
180.30	-0.000
180.52	-0.000
180.73	-0.000
180.95	-0.000
181.16	-0.000
181.38	-0.000
181.59	-0.000
181.81	-0.000
182.03	-0.000
182.24	-0.000
182.46	-0.000
182.67	-0.000
182.89	-0.000
183.10	-0.000
183.32	-0.000
183.54	-0.000
183.75	-0.000
183.97	-0.000
184.18	-0.000
184.40	-0.000
184.61	-0.000
184.83	-0.000
185.04	-0.000
185.26	-0.000
185.48	-0.000
185.69	-0.000
185.91	-0.000
186.12	-0.000
186.34	-0.000
186.55	-0.000
186.77	-0.000
186.98	-0.000
187.20	-0.000
187.42	-0.000
187.63	-0.000
187.85	-0.000
188.06	-0.000
188.28	-0.000
188.49	-0.000
188.71	-0.000
188.92	-0.000
189.14	-0.000
189.36	-0.000
189.57	-0.000
189.79	-0.000
190.00	-0.000
190.22	-0.000
190.43	-0.000
190.65	-0.000
190.86	-0.000
191.08	-0.000
191.29	-0.000
191.51	-0.000
191.72	-0.000
191.94	-0.000
192.16	-0.000
192.37	-0.000
192.59	-0.000
192.80	-0.000
193.02	-0.000
193.23	-0.000
193.45	-0.000
193.66	-0.000
193.88	-0.000
194.09	-0.000
194.31	-0.000
194.52	-0.000
194.74	-0.000
194.95	-0.000
195.17	-0.000
195.38	-0.000
195.60	-0.000
195.81	-0.000
196.03	-0.000
196.25	-0.000
196.46	-0.000
196.68	-0.000
196.89	-0.000
197.11	-0.000
197.32	-0.000
197.54	-0.000
197.75	-0.000
197.97	-0.000
198.18	-0.000
198.40	-0.000
198.61	-0.000
198.83	-0.000
199.04	-0.000
199.26	-0.000
199.47	-0.000
199.69	-0.000
199.90	-0.000
200.12	-0.000
200.33	-0.000
200.55	-0.000
200.76	-0.000
200.98	-0.000
201.19	-0.000
201.41	-0.000
201.62	-0.000
201.84	-0.000
202.05	-0.000
202.27	-0.000
202.48	-0.000
202.70	-0.000
202.91	-0.000
203.13	-0.000
203.34	-0.000
203.56	-0.000
203.77	-0.000
203.99	-0.000
204.20	-0.000
204.42	-0.000
204.63	-0.000
204.85	-0.000
205.06	-0.000
205.28	-0.000
205.49	-0.000
205.71	-0.000
205.92	-0.000
206.14	-0.000
206.35	-0.000
206.56	-0.000
206.78	-0.000
206.99	-0.000
207.21	-0.000
207.42	-0.000
207.64	-0.000
207.85	-0.000
208.07	-0.000
208.28	-0.000
208.50	-0.000
208.71	-0.000
208.93	-0.000
209.14	-0.000
209.36	-0.000
209.57	-0.000
209.79	-0.000
210.00	-0.000
210.22	-0.000
210.43	-0.000
210.64	-0.000
210.86	-0.000
211.07	-0.000
211.29	-0.000
211.50	-0.000
211.72	-0.000
211.93	-0.000
212.15	-0.000
212.36	-0.000
212.58	-0.000
212.79	-0.000
213.01	-0.000
213.22	-0.000
213.43	-0.000
213.65	-0.000
213.86	-0.000
214.08	-0.000
214.29	-0.000
214.51	-0.000
214.72	-0.000
214.94	-0.000
215.15	-0.000
215.36	-0.000
215.58	-0.000
215.79	-0.000
216.01	-0.000
216.22	-0.000
216.44	-0.000
216.65	-0.000
216.87	-0.000
217.08	-0.000
217.29	-0.000
217.51	-0.000
217.72	-0.000
217.94	-0.000
218.15	-0.000
218.37	-0.000
218.58	-0.000
218.80	-0.000
219.01	-0.000
219.22	-0.000
219.44	-0.000
219.65	-0.000
219.87	-0.000
220.08	-0.000
220.30	-0.000
220.51	-0.000
220.72	-0.000
220.94	-0.000
221.15	-0.000
221.37	-0.000
221.58	-0.000
221.79	-0.000
222.01	-0.000
222.22	-0.000
222.44	-0.000
222.65	-0.000
222.87	-0.000
223.08	-0.000
223.29	-0.000
223.51	-0.000
223.72	-0.000
223.94	-0.000
224.15	-0.000
224.36	-0.000
224.58	-0.000
224.79	-0.000
225.01	-0.000
225.22	-0.000
225.44	-0.000
225.65	-0.000
225.86	-0.000
226.08	-0.000
226.29	-0.000
226.51	-0.000
226.72	-0.000
226.93	-0.000
227.15	-0.000
227.36	-0.000
227.58	-0.000
227.79	-0.000
228.00	-0.000
228.22	-0.000
228.43	-0.000
228.65	-0.000
228.86	-0.000
229.07	-0.000
229.29	-0.000
229.50	-0.000
229.72	-0.000
229.93	-0.000
230.14	-0.000
230.36	-0.000
230.57	-0.000
230.78	-0.000
231.00	-0.000
231.21	-0.000
231.43	-0.000
231.64	-0.000
231.85	-0.000
232.07	-0.000
232.28	-0.000
232.50	-0.000
232.71	-0.000
232.92	-0.000
233.14	-0.000
233.35	-0.000
233.56	-0.000
233.78	-0.000
233.99	-0.000
234.21	-0.000
234.42	-0.000
234.63	-0.000
234.85	-0.000
235.06	-0.000
235.27	-0.000
235.49	-0.000
235.70	-0.000
235.91	-0.000
236.13	-0.000
236.34	-0.000
236.56	-0.000
236.77	-0.000
236.98	-0.000
237.20	-0.000
237.41	-0.000
237.62	-0.000
237.84	-0.000
238.05	-0.000
238.26	-0.000
238.48	-0.000
238.69	-0.000
238.91	-0.000
239.12	-0.000
239.33	-0.000
239.55	-0.000
239.76	-0.000
239.97	-0.000
240.19	-0.000
240.40	-0.000
240.61	-0.000
240.83	-0.000
241.04	-0.000
241.25	-0.000
241.47	-0.000
241.68	-0.000
241.89	-0.000
242.11	-0.000
242.32	-0.000
242.53	-0.000
242.75	-0.000
242.96	-0.000
243.17	-0.000
243.39	-0.000
243.60	-0.000
243.81	-0.000
244.03	-0.000
244.24	-0.000
244.45	-0.000
244.67	-0.000
244.88	-0.000
245.09	-0.000
245.31	-0.000
245.52	-0.000
245.73	-0.000
245.95	-0.000
246.16	-0.000
246.37	-0.000
246.59	-0.000
246.80	-0.000
247.01	-0.000
247.23	-0.000
247.44	-0.000
247.65	-0.000
247.87	-0.000
248.08	-0.000
248.29	-0.000
248.51	-0.000
248.72	-0.000
248.93	-0.000
249.15	-0.000
249.36	-0.000
249.57	-0.000
249.78	-0.000
250.00	-0.000
250.21	-0.000
250.42	-0.000
250.64	-0.000
250.85	-0.000
251.06	-0.000
251.28	-0.000
251.49	-0.000
251.70	-0.000
251.92	-0.000
252.13	-0.000
252.34	-0.000
252.55	-0.000
252.77	-0.000
252.98	-0.000
253.19	-0.000
253.41	-0.000
253.62	-0.000
253.83	-0.000
254.05	-0.000
254.26	-0.000
254.47	-0.000
254.68	-0.000
254.90	-0.000
255.11	-0.000
255.32	-0.000
255.54	-0.000
255.75	-0.000
255.96	-0.000
256.17	-0.000
256.39	-0.000
256.60	-0.000
256.81	-0.000
257.03	-0.000
257.24	-0.000
257.45	-0.000
257.66	-0.000
257.88	-0.000
258.09	-0.000
258.30	-0.000
258.51	-0.000
258.73	-0.000
258.94	-0.000
259.15	-0.000
259.37	-0.000
259.58	-0.000
259.79	-0.000
260.00	-0.000
260.22	-0.000
260.43	-0.000
260.64	-0.000
260.85	-0.000
261.07	-0.000
261.28	-0.000
261.49	-0.000
261.71	-0.000
261.92	-0.000
262.13	-0.000
262.34	-0.000
262.56	-0.000
262.77	-0.000
262.98	-0.000
263.19	-0.000
263.41	-0.000
263.62	-0.000
263.83	-0.000
264.04	-0.000
264.26	-0.000
264.47	-0.000
264.68	-0.000
264.89	-0.000
265.11	-0.000
265.32	-0.000
265.53	-0.000
265.74	-0.000
265.96	-0.000
266.17	-0.000
266.38	-0.000
266.59	-0.000
266.81	-0.000
267.02	-0.000
267.23	-0.000
267.44	-0.000
267.65	-0.000
267.87	-0.000
268.08	-0.000
268.29	-0.000
268.50	-0.000
268.72	-0.000
268.93	-0.000
269.14	-0.000
269.35	-0.000
269.57	-0.000
269.78	-0.000
269.99	-0.000
270.20	-0.000
270.41	-0.000
270.63	-0.000
270.84	-0.000
271.05	-0.000
271.26	-0.000
271.48	-0.000
271.69	-0.000
271.90	-0.000
272.11	-0.000
272.32	-0.000
272.54	-0.000
272.75	-0.000
272.96	-0.000
273.17	-0.000
273.39	-0.000
273.60	-0.000
273.81	-0.000
274.02	-0.000
274.23	-0.000
274.45	-0.000
274.66	-0.000
274.87	-0.000
275.08	-0.000
275.29	-0.000
275.51	-0.000
275.72	-0.000
275.93	-0.000
276.14	-0.000
276.35	-0.000
276.57	-0.000
276.78	-0.000
276.99	-0.000
277.20	-0.000
277.41	-0.000
277.63	-0.000
277.84	-0.000
278.05	-0.000
278.26	-0.000
278.47	-0.000
278.69	-0.000
278.90	-0.000
279.11	-0.000
279.32	-0.000
279.53	-0.000
279.74	-0.000
279.96	-0.000
280.17	-0.000
280.38	-0.000
280.59	-0.000
280.80	-0.000
281.02	-0.000
281.23	-0.000
281.44	-0.000
281.65	-0.000
281.86	-0.000
282.07	-0.000
282.29	-0.000
282.50	-0.000
282.71	-0.000
282.92	-0.000
283.13	-0.000
283.35	-0.000
283.56	-0.000
283.77	-0.000
283.98	-0.000
284.19	-0.000
284.40	-0.000
284.62	-0.000
284.83	-0.000
285.04	-0.000
285.25	-0.000
285.46	-0.000
285.67	-0.000
285.88	-0.000
286.10	-0.000
286.31	-0.000
286.52	-0.000
286.73	-0.000
286.94	-0.000
287.15	-0.000
287.37	-0.000
287.58	-0.000
287.79	-0.000
288.00	-0.000
288.21	-0.000
288.42	-0.000
288.63	-0.000
288.85	-0.000
289.06	-0.000
289.27	-0.000
289.48	-0.000
289.69	-0.000
289.90	-0.000
290.11	-0.000
290.33	-0.000
290.54	-0.000
290.75	-0.000
290.96	-0.000
291.17	-0.000
291.38	-0.000
291.59	-0.000
291.81	-0.000
292.02	-0.000
292.23	-0.000
292.44	-0.000
292.65	-0.000
292.86	-0.000
293.07	-0.000
293.28	-0.000
293.50	-0.000
293.71	-0.000
293.92	-0.000
294.13	-0.000
294.34	-0.000
294.55	-0.000
294.76	-0.000
294.97	-0.000
295.19	-0.000
295.40	-0.000
295.61	-0.000
295.82	-0.000
296.03	-0.000
296.24	-0.000
296.45	-0.000
296.66	3.803
296.87	-0.000
297.09	-0.000
297.30	-0.000
297.51	2.475
297.72	2.312
297.93	3.390
298.14	2.680
298.35	2.428
298.56	2.293
298.77	-0.000
298.99	3.519
299.20	2.827
299.41	2.544
299.62	2.313
299.83	2.247
300.04	2.017
300.25	1.992
300.46	2.138
300.67	2.047
300.88	1.893
301.10	1.887
301.31	2.075
301.52	1.909
301.73	1.782
301.94	1.783
302.15	1.810
302.36	1.714
302.57	1.598
302.78	1.601
302.99	1.664
303.20	1.695
303.41	1.551
303.63	1.515
303.84	1.521
304.05	1.515
304.26	1.433
304.47	1.443
304.68	1.454
304.89	1.441
305.10	1.390
305.31	1.382
305.52	1.434
305.73	1.426
305.94	1.381
306.15	1.368
306.37	1.399
306.58	1.407
306.79	1.366
307.00	1.392
307.21	1.447
307.42	1.438
307.63	1.382
307.84	1.336
308.05	1.379
308.26	1.377
308.47	1.347
308.68	1.340
308.89	1.343
309.10	1.336
309.31	1.285
309.52	1.274
309.73	1.290
309.95	1.283
310.16	1.251
310.37	1.239
310.58	1.260
310.79	1.257
311.00	1.250
311.21	1.251
311.42	1.256
311.63	1.249
311.84	1.225
312.05	1.223
312.26	1.248
312.47	1.260
312.68	1.233
312.89	1.216
313.10	1.225
313.31	1.195
313.52	1.196
313.73	1.196
313.94	1.201
314.15	1.182
314.36	1.156
314.57	1.148
314.78	1.136
314.99	1.127
315.21	1.111
315.42	1.117
315.63	1.133
315.84	1.107
316.05	1.091
316.26	1.098
316.47	1.121
316.68	1.119
316.89	1.098
317.10	1.120
317.31	1.130
317.52	1.129
317.73	1.104
317.94	1.103
318.15	1.149
318.36	1.149
318.57	1.130
318.78	1.116
318.99	1.153
319.20	1.149
319.41	1.110
319.62	1.108
319.83	1.125
320.04	1.119
320.25	1.103
320.46	1.069
320.67	1.072
320.88	1.068
321.09	1.053
321.30	1.036
321.51	1.053
321.72	1.050
321.93	1.032
322.14	1.024
322.35	1.054
322.56	1.055
322.77	1.039
322.98	1.051
323.19	1.058
323.40	1.063
323.61	1.040
323.82	1.035
324.03	1.042
324.24	1.040
324.45	1.025
324.66	1.005
324.87	1.003
325.08	1.002
325.29	0.981
325.50	0.975
325.71	0.980
325.92	0.988
326.13	0.974
326.34	0.974
326.55	0.983
326.76	0.981
326.97	0.968
327.18	0.964
327.39	0.991
327.60	0.992
327.80	0.992
328.01	0.990
328.22	0.990
328.43	0.992
328.64	0.979
328.85	0.984
329.06	0.986
329.27	0.986
329.48	0.979
329.69	0.958
329.90	0.969
330.11	0.962
330.32	0.954
330.53	0.947
330.74	0.949
330.95	0.946
331.16	0.930
331.37	0.939
331.58	0.938
331.79	0.938
332.00	0.927
332.21	0.921
332.42	0.925
332.63	0.915
332.83	0.910
333.04	0.911
333.25	0.925
333.46	0.924
333.67	0.909
333.88	0.912
334.09	0.923
334.30	0.920
334.51	0.910
334.72	0.906
334.93	0.910
335.14	0.909
335.35	0.901
335.56	0.896
335.77	0.905
335.98	0.904
336.18	0.897
336.39	0.890
336.60	0.895
336.81	0.893
337.02	0.892
337.23	0.897
337.44	0.901
337.65	0.903
337.86	0.893
338.07	0.888
338.28	0.893
338.49	0.891
338.70	0.883
338.91	0.891
339.11	0.899
339.32	0.894
339.53	0.881
339.74	0.878
339.95	0.874
340.16	0.872
340.37	0.863
340.58	0.861
340.79	0.865
341.00	0.865
341.21	0.853
341.41	0.854
341.62	0.856
341.83	0.857
342.04	0.852
342.25	0.864
342.46	0.869
342.67	0.868
342.88	0.861
343.09	0.859
343.30	0.868
343.50	0.871
343.71	0.860
343.92	0.858
344.13	0.863
344.34	0.863
344.55	0.844
344.76	0.843
344.97	0.848
345.18	0.847
345.38	0.844
345.59	0.838
345.80	0.838
346.01	0.836
346.22	0.830
346.43	0.823
346.64	0.832
346.85	0.832
347.06	0.824
347.26	0.825
347.47	0.829
347.68	0.823
347.89	0.819
348.10	0.813
348.31	0.821
348.52	0.820
348.73	0.817
348.93	0.814
349.14	0.816
349.35	0.817
349.56	0.808
349.77	0.802
349.98	0.809
350.19	0.806
350.39	0.801
350.60	0.796
350.81	0.812
351.02	0.812
351.23	0.807
351.44	0.809
351.65	0.812
351.86	0.810
352.06	0.809
352.27	0.809
352.48	0.811
352.69	0.811
352.90	0.806
353.11	0.792
353.31	0.799
353.52	0.795
353.73	0.787
353.94	0.789
354.15	0.795
354.36	0.795
354.57	0.786
354.77	0.789
354.98	0.789
355.19	0.788
355.40	0.788
355.61	0.793
355.82	0.798
356.02	0.797
356.23	0.789
356.44	0.792
356.65	0.795
356.86	0.796
357.07	0.789
357.27	0.792
357.48	0.796
357.69	0.791
357.90	0.775
358.11	0.772
358.32	0.777
358.52	0.779
358.73	0.769
358.94	0.771
359.15	0.775
359.36	0.776
359.56	0.770
359.77	0.766
359.98	0.774
360.19	0.773
360.40	0.769
360.61	0.769
360.81	0.768
361.02	0.769
361.23	0.761
361.44	0.760
361.65	0.760
361.85	0.760
362.06	0.758
362.27	0.760
362.48	0.760
362.69	0.762
362.89	0.756
363.10	0.759
363.31	0.764
363.52	0.767
363.73	0.761
363.93	0.762
364.14	0.764
364.35	0.766
364.56	0.755
364.77	0.757
364.97	0.759
365.18	0.760
365.39	0.754
365.60	0.749
365.81	0.749
366.01	0.750
366.22	0.746
366.43	0.746
366.64	0.748
366.84	0.755
367.05	0.752
367.26	0.751
367.47	0.753
367.68	0.753
367.88	0.750
368.09	0.749
368.30	0.751
368.51	0.750
368.71	0.748
368.92	0.753
369.13	0.751
369.34	0.750
369.55	0.749
369.75	0.748
369.96	0.755
370.17	0.755
370.38	0.751
370.58	0.751
370.79	0.757
371.00	0.756
371.21	0.746
371.41	0.752
371.62	0.756
371.83	0.751
372.04	0.749
372.24	0.743
372.45	0.744
372.66	0.745
372.87	0.741
373.07	0.738
373.28	0.738
373.49	0.743
373.70	0.733
373.90	0.732
374.11	0.742
374.32	0.742
374.53	0.741
374.73	0.741
374.94	0.743
375.15	0.744
375.36	0.741
375.56	0.750
375.77	0.750
375.98	0.750
376.19	0.746
376.39	0.740
376.60	0.744
376.81	0.745
377.02	0.743
377.22	0.742
377.43	0.741
377.64	0.741
377.84	0.731
378.05	0.735
378.26	0.742
378.47	0.741
378.67	0.737
378.88	0.733
379.09	0.733
379.30	0.733
379.50	0.731
379.71	0.734
379.92	0.736
380.12	0.736
380.33	0.727
380.54	0.723
380.75	0.731
380.95	0.730
381.16	0.729
381.37	0.729
381.57	0.731
381.78	0.731
381.99	0.731
382.20	0.731
382.40	0.734
382.61	0.734
382.82	0.731
383.02	0.724
383.23	0.727
383.44	0.727
383.64	0.724
383.85	0.726
384.06	0.730
384.27	0.727
384.47	0.725
384.68	0.725
384.89	0.730
385.09	0.730
385.30	0.728
385.51	0.728
385.71	0.731
385.92	0.732
386.13	0.730
386.33	0.732
386.54	0.733
386.75	0.732
386.95	0.727
387.16	0.723
387.37	0.726
387.58	0.726
387.78	0.723
387.99	0.721
388.20	0.722
388.40	0.720
388.61	0.715
388.82	0.718
389.02	0.721
389.23	0.721
389.44	0.719
389.64	0.719
389.85	0.731
390.06	0.730
390.26	0.731
390.47	0.730
390.68	0.732
390.88	0.730
391.09	0.725
391.30	0.723
391.50	0.724
391.71	0.724
391.92	0.721
392.12	0.713
392.33	0.714
392.53	0.713
392.74	0.713
392.95	0.713
393.15	0.715
393.36	0.718
393.57	0.716
393.77	0.719
393.98	0.721
394.19	0.720
394.39	0.720
394.60	0.721
394.81	0.723
395.01	0.721
395.22	0.719
395.43	0.720
395.63	0.725
395.84	0.726
396.04	0.721
396.25	0.723
396.46	0.726
396.66	0.724
396.87	0.721
397.08	0.719
397.28	0.721
397.49	0.722
397.69	0.717
397.90	0.712
398.11	0.713
398.31	0.714
398.52	0.711
398.73	0.711
398.93	0.710
399.14	0.709
399.34	0.707
399.55	0.708
399.76	0.709
399.96	0.710
400.17	0.709
400.37	0.707
400.58	0.715
400.79	0.716
400.99	0.713
401.20	0.720
401.41	0.722
401.61	0.723
401.82	0.728
402.02	0.727
402.23	0.728
402.44	0.728
402.64	0.728
402.85	0.721
403.05	0.720
403.26	0.719
403.47	0.712
403.67	0.711
403.88	0.712
404.08	0.706
404.29	0.704
404.50	0.704
404.70	0.704
404.91	0.702
405.11	0.699
405.32	0.700
405.52	0.700
405.73	0.700
405.94	0.698
406.14	0.701
406.35	0.703
406.55	0.703
406.76	0.700
406.97	0.701
407.17	0.703
407.38	0.704
407.58	0.702
407.79	0.704
407.99	0.707
408.20	0.707
408.41	0.702
408.61	0.700
408.82	0.701
409.02	0.701
409.23	0.699
409.43	0.698
409.64	0.699
409.84	0.699
410.05	0.695
410.26	0.694
410.46	0.693
410.67	0.693
410.87	0.694
411.08	0.696
411.28	0.698
411.49	0.699
411.69	0.697
411.90	0.699
412.11	0.701
412.31	0.702
412.52	0.700
412.72	0.701
412.93	0.702
413.13	0.701
413.34	0.698
413.54	0.699
413.75	0.700
413.95	0.700
414.16	0.696
414.37	0.698
414.57	0.698
414.78	0.700
414.98	0.698
415.19	0.699
415.39	0.697
415.60	0.699
415.80	0.697
416.01	0.696
416.21	0.698
416.42	0.698
416.62	0.693
416.83	0.693
417.03	0.693
417.24	0.693
417.44	0.690
417.65	0.689
417.86	0.689
418.06	0.688
418.27	0.686
418.47	0.688
418.68	0.688
418.88	0.689
419.09	0.687
419.29	0.688
419.50	0.689
419.70	0.690
419.91	0.688
420.11	0.686
420.32	0.689
420.52	0.689
420.73	0.688
420.93	0.689
421.14	0.690
421.34	0.689
421.55	0.685
421.75	0.684
421.96	0.685
422.16	0.686
422.37	0.684
422.57	0.682
422.78	0.684
422.98	0.680
423.19	0.678
423.39	0.676
423.60	0.681
423.80	0.682
424.01	0.681
424.21	0.684
424.42	0.685
424.62	0.685
424.83	0.683
425.03	0.683
425.23	0.686
425.44	0.686
425.64	0.686
425.85	0.684
426.05	0.686
426.26	0.686
426.46	0.682
426.67	0.681
426.87	0.686
427.08	0.687
427.28	0.685
427.49	0.686
427.69	0.687
427.90	0.686
428.10	0.683
428.31	0.682
428.51	0.683
428.71	0.683
428.92	0.684
429.12	0.681
429.33	0.682
429.53	0.686
429.74	0.689
429.94	0.690
430.15	0.689
430.35	0.689
430.56	0.686
430.76	0.685
430.96	0.686
431.17	0.683
431.37	0.681
431.58	0.679
431.78	0.676
431.99	0.668
432.19	0.670
432.40	0.673
432.60	0.674
432.80	0.677
433.01	0.676
433.21	0.676
433.42	0.678
433.62	0.678
433.83	0.678
434.03	0.681
434.23	0.685
434.44	0.683
434.64	0.681
434.85	0.685
435.05	0.686
435.26	0.686
435.46	0.684
435.66	0.684
435.87	0.684
436.07	0.684
436.28	0.679
436.48	0.675
436.69	0.676
436.89	0.676
437.09	0.670
437.30	0.669
437.50	0.669
437.71	0.681
437.91	0.680
438.11	0.682
438.32	0.686
438.52	0.687
438.73	0.686
438.93	0.684
439.13	0.684
439.34	0.687
439.54	0.685
439.75	0.685
439.95	0.675
440.15	0.679
440.36	0.678
440.56	0.675
440.77	0.676
440.97	0.676
441.17	0.675
441.38	0.676
441.58	0.674
441.79	0.673
441.99	0.672
442.19	0.670
442.40	0.668
442.60	0.668
442.81	0.666
443.01	0.666
443.21	0.667
443.42	0.667
443.62	0.665
443.82	0.665
444.03	0.667
444.23	0.668
444.44	0.668
444.64	0.667
444.84	0.668
445.05	0.668
445.25	0.665
445.45	0.665
445.66	0.668
445.86	0.667
446.06	0.667
446.27	0.667
446.47	0.670
446.68	0.668
446.88	0.667
447.08	0.666
447.29	0.669
447.49	0.669
447.69	0.669
447.90	0.668
448.10	0.672
448.30	0.669
448.51	0.671
448.71	0.668
448.91	0.670
449.12	0.669
449.32	0.670
449.52	0.669
449.73	0.672
449.93	0.672
450.14	0.672
450.34	0.671
450.54	0.673
450.75	0.671
450.95	0.670
451.15	0.670
451.36	0.672
451.56	0.669
451.76	0.668
451.97	0.665
452.17	0.665
452.37	0.663
452.58	0.660
452.78	0.659
452.98	0.662
453.19	0.661
453.39	0.662
453.59	0.661
453.79	0.663
454.00	0.663
454.20	0.662
454.40	0.663
454.61	0.665
454.81	0.666
455.01	0.664
455.22	0.665
455.42	0.667
455.62	0.665
455.83	0.665
456.03	0.667
456.23	0.668
456.44	0.669
456.64	0.668
456.84	0.668
457.04	0.669
457.25	0.668
457.45	0.666
457.65	0.664
457.86	0.665
458.06	0.664
458.26	0.660
458.47	0.660
458.67	0.661
458.87	0.661
459.07	0.659
459.28	0.660
459.48	0.663
459.68	0.662
459.89	0.662
460.09	0.660
460.29	0.661
460.49	0.662
460.70	0.661
460.90	0.661
461.10	0.662
461.31	0.661
461.51	0.658
461.71	0.660
461.91	0.661
462.12	0.661
462.32	0.660
462.52	0.660
462.72	0.663
462.93	0.663
463.13	0.661
463.33	0.662
463.53	0.663
463.74	0.663
463.94	0.659
464.14	0.659
464.35	0.661
464.55	0.661
464.75	0.659
464.95	0.657
465.16	0.659
465.36	0.658
465.56	0.657
465.76	0.656
465.97	0.656
466.17	0.657
466.37	0.655
466.57	0.656
466.78	0.657
466.98	0.657
467.18	0.655
467.38	0.654
467.59	0.656
467.79	0.658
467.99	0.657
468.19	0.659
468.39	0.663
468.60	0.663
468.80	0.661
469.00	0.662
469.20	0.663
469.41	0.663
469.61	0.662
469.81	0.662
470.01	0.662
470.22	0.662
470.42	0.660
470.62	0.658
470.82	0.659
471.02	0.658
471.23	0.656
471.43	0.657
471.63	0.659
471.83	0.658
472.04	0.656
472.24	0.654
472.44	0.660
472.64	0.659
472.84	0.657
473.05	0.657
473.25	0.660
473.45	0.659
473.65	0.657
473.85	0.658
474.06	0.660
474.26	0.660
474.46	0.661
474.66	0.658
474.86	0.659
475.07	0.659
475.27	0.657
475.47	0.655
475.67	0.656
475.87	0.658
476.08	0.654
476.28	0.656
476.48	0.657
476.68	0.656
476.88	0.654
477.09	0.655
477.29	0.657
477.49	0.657
477.69	0.656
477.89	0.655
478.09	0.655
478.30	0.658
478.50	0.655
478.70	0.654
478.90	0.655
479.10	0.658
479.31	0.658
479.51	0.656
479.71	0.657
479.91	0.657
480.11	0.656
480.31	0.656
480.52	0.654
480.72	0.654
480.92	0.652
481.12	0.650
481.32	0.648
481.52	0.646
481.72	0.646
481.93	0.650
482.13	0.651
482.33	0.650
482.53	0.648
482.73	0.648
482.93	0.651
483.14	0.650
483.34	0.650
483.54	0.651
483.74	0.650
483.94	0.650
484.14	0.645
484.34	0.645
484.55	0.646
484.75	0.645
484.95	0.643
485.15	0.643
485.35	0.643
485.55	0.642
485.75	0.639
485.96	0.640
486.16	0.642
486.36	0.641
486.56	0.639
486.76	0.639
486.96	0.640
487.16	0.640
487.36	0.638
487.57	0.637
487.77	0.639
487.97	0.639
488.17	0.637
488.37	0.636
488.57	0.637
488.77	0.637
488.97	0.635
489.18	0.635
489.38	0.638
489.58	0.639
489.78	0.638
489.98	0.637
490.18	0.638
490.38	0.639
490.58	0.638
490.78	0.639
490.98	0.641
491.19	0.641
491.39	0.640
491.59	0.638
491.79	0.641
491.99	0.642
492.19	0.641
492.39	0.644
492.59	0.644
492.79	0.646
492.99	0.646
493.20	0.646
493.40	0.647
493.60	0.648
493.80	0.647
494.00	0.645
494.20	0.646
494.40	0.646
494.60	0.643
494.80	0.647
495.00	0.646
495.20	0.645
495.40	0.643
495.61	0.645
495.81	0.645
496.01	0.648
496.21	0.648
496.41	0.647
496.61	0.648
496.81	0.647
497.01	0.642
497.21	0.641
497.41	0.641
497.61	0.641
497.81	0.638
498.01	0.639
498.21	0.637
498.41	0.635
498.61	0.634
498.82	0.636
499.02	0.638
499.22	0.639
499.42	0.639
499.62	0.640
499.82	0.641
500.02	0.642
500.22	0.641
500.42	0.643
500.62	0.644
500.82	0.644
501.02	0.642
501.22	0.642
501.42	0.642
501.62	0.644
501.82	0.643
502.02	0.643
502.22	0.642
502.42	0.644
502.62	0.641
502.82	0.641
503.02	0.642
503.22	0.642
503.42	0.639
503.63	0.639
503.83	0.637
504.03	0.637
504.23	0.635
504.43	0.636
504.63	0.638
504.83	0.638
505.03	0.637
505.23	0.638
505.43	0.640
505.63	0.641
505.83	0.640
506.03	0.642
506.23	0.644
506.43	0.645
506.63	0.644
506.83	0.642
507.03	0.644
507.23	0.644
507.43	0.641
507.63	0.642
507.83	0.642
508.03	0.643
508.23	0.642
508.43	0.640
508.63	0.642
508.83	0.643
509.03	0.643
509.23	0.643
509.43	0.644
509.63	0.644
509.83	0.643
510.03	0.646
510.23	0.647
510.43	0.647
510.63	0.648
510.83	0.647
511.03	0.649
511.23	0.647
511.43	0.646
511.63	0.648
511.83	0.650
512.03	0.650
512.22	0.646
512.42	0.646
512.62	0.647
512.82	0.647
513.02	0.646
513.22	0.646
513.42	0.648
513.62	0.650
513.82	0.648
514.02	0.647
514.22	0.648
514.42	0.649
514.62	0.648
514.82	0.648
515.02	0.651
515.22	0.654
515.42	0.652
515.62	0.654
515.82	0.653
516.02	0.654
516.22	0.654
516.42	0.656
516.62	0.658
516.82	0.660
517.01	0.657
517.21	0.657
517.41	0.661
517.61	0.662
517.81	0.658
518.01	0.658
518.21	0.657
518.41	0.656
518.61	0.655
518.81	0.656
519.01	0.657
519.21	0.657
519.41	0.656
519.61	0.650
519.81	0.653
520.00	0.653
520.20	0.653
520.40	0.655
520.60	0.656
520.80	0.656
521.00	0.656
521.20	0.657
521.40	0.662
521.60	0.663
521.80	0.661
522.00	0.662
522.20	0.665
522.39	0.665
522.59	0.662
522.79	0.664
522.99	0.666
523.19	0.664
523.39	0.662
523.59	0.659
523.79	0.663
523.99	0.665
524.19	0.663
524.38	0.661
524.58	0.663
524.78	0.663
524.98	0.661
525.18	0.663
525.38	0.664
525.58	0.665
525.78	0.663
525.98	0.661
526.18	0.662
526.37	0.661
526.57	0.663
526.77	0.662
526.97	0.662
527.17	0.663
527.37	0.659
527.57	0.662
527.77	0.663
527.96	0.663
528.16	0.662
528.36	0.662
528.56	0.665
528.76	0.663
528.96	0.662
529.16	0.664
529.36	0.667
529.55	0.667
529.75	0.663
529.95	0.664
530.15	0.666
530.35	0.669
530.55	0.666
530.75	0.666
530.94	0.668
531.14	0.667
531.34	0.666
531.54	0.663
531.74	0.667
531.94	0.670
532.13	0.668
532.33	0.669
532.53	0.668
532.73	0.667
532.93	0.665
533.13	0.666
533.33	0.667
533.52	0.667
533.72	0.670
533.92	0.668
534.12	0.667
534.32	0.667
534.52	0.666
534.71	0.668
534.91	0.671
535.11	0.673
535.31	0.671
535.51	0.672
535.71	0.674
535.90	0.672
536.10	0.673
536.30	0.675
536.50	0.676
536.70	0.676
536.89	0.673
537.09	0.671
537.29	0.672
537.49	0.673
537.69	0.671
537.89	0.672
538.08	0.671
538.28	0.669
538.48	0.669
538.68	0.671
538.88	0.672
539.07	0.672
539.27	0.671
539.47	0.670
539.67	0.671
539.87	0.672
540.06	0.670
540.26	0.671
540.46	0.673
540.66	0.670
540.86	0.667
541.05	0.667
541.25	0.669
541.45	0.669
541.65	0.667
541.84	0.669
542.04	0.671
542.24	0.671
542.44	0.669
542.64	0.671
542.83	0.674
543.03	0.675
543.23	0.673
543.43	0.674
543.62	0.675
543.82	0.675
544.02	0.674
544.22	0.674
544.42	0.678
544.61	0.678
544.81	0.675
545.01	0.674
545.21	0.675
545.40	0.675
545.60	0.674
545.80	0.677
546.00	0.677
546.19	0.676
546.39	0.675
546.59	0.672
546.79	0.674
546.98	0.674
547.18	0.674
547.38	0.674
547.58	0.677
547.77	0.677
547.97	0.674
548.17	0.676
548.37	0.676
548.56	0.677
548.76	0.676
548.96	0.678
549.16	0.680
549.35	0.680
549.55	0.677
549.75	0.678
549.95	0.682
550.14	0.682
550.34	0.680
550.54	0.685
550.73	0.689
550.93	0.689
551.13	0.686
551.33	0.685
551.52	0.686
551.72	0.687
551.92	0.684
552.12	0.685
552.31	0.686
552.51	0.686
552.71	0.681
552.90	0.680
553.10	0.681
553.30	0.681
553.50	0.680
553.69	0.681
553.89	0.681
554.09	0.681
554.28	0.678
554.48	0.679
554.68	0.681
554.87	0.681
555.07	0.678
555.27	0.679
555.47	0.680
555.66	0.681
555.86	0.679
556.06	0.682
556.25	0.684
556.45	0.693
556.65	0.690
556.84	0.694
557.04	0.697
557.24	0.698
557.43	0.698
557.63	0.701
557.83	0.703
558.02	0.704
558.22	0.707
558.42	0.708
558.61	0.700
558.81	0.701
559.01	0.696
559.21	0.697
559.40	0.698
559.60	0.698
559.80	0.693
559.99	0.694
560.19	0.697
560.39	0.690
560.58	0.688
560.78	0.687
560.97	0.692
561.17	0.691
561.37	0.688
561.56	0.688
561.76	0.690
561.96	0.691
562.15	0.687
562.35	0.689
562.55	0.690
562.74	0.690
562.94	0.689
563.14	0.687
563.33	0.687
563.53	0.687
563.73	0.684
563.92	0.686
564.12	0.688
564.31	0.691
564.51	0.689
564.71	0.691
564.90	0.694
565.10	0.695
565.30	0.697
565.49	0.699
565.69	0.702
565.89	0.702
566.08	0.699
566.28	0.701
566.47	0.703
566.67	0.701
566.87	0.698
567.06	0.700
567.26	0.707
567.46	0.702
567.65	0.701
567.85	0.703
568.04	0.706
568.24	0.705
568.44	0.701
568.63	0.699
568.83	0.701
569.02	0.700
569.22	0.695
569.42	0.691
569.61	0.694
569.81	0.693
570.00	0.690
570.20	0.691
570.40	0.693
570.59	0.693
570.79	0.691
570.98	0.688
571.18	0.690
571.38	0.689
571.57	0.686
571.77	0.684
571.96	0.687
572.16	0.685
572.35	0.679
572.55	0.680
572.75	0.678
572.94	0.678
573.14	0.676
573.33	0.676
573.53	0.677
573.73	0.676
573.92	0.674
574.12	0.672
574.31	0.675
574.51	0.676
574.70	0.673
574.90	0.675
575.09	0.677
575.29	0.677
575.49	0.674
575.68	0.675
575.88	0.676
576.07	0.678
576.27	0.676
576.46	0.674
576.66	0.673
576.86	0.673
577.05	0.671
577.25	0.669
577.44	0.670
577.64	0.670
577.83	0.668
578.03	0.669
578.22	0.668
578.42	0.668
578.61	0.666
578.81	0.666
579.00	0.667
579.20	0.667
579.40	0.666
579.59	0.665
579.79	0.665
579.98	0.664
580.18	0.663
580.37	0.664
580.57	0.666
580.76	0.670
580.96	0.668
581.15	0.669
581.35	0.671
581.54	0.670
581.74	0.670
581.93	0.671
582.13	0.673
582.32	0.670
582.52	0.668
582.71	0.668
582.91	0.664
583.10	0.664
583.30	0.663
583.49	0.663
583.69	0.667
583.88	0.668
584.08	0.667
584.27	0.669
584.47	0.672
584.66	0.673
584.86	0.672
585.05	0.673
585.25	0.676
585.44	0.675
585.64	0.674
585.83	0.671
586.03	0.672
586.22	0.670
586.42	0.666
586.61	0.668
586.81	0.670
587.00	0.670
587.20	0.667
587.39	0.669
587.59	0.671
587.78	0.672
587.98	0.672
588.17	0.673
588.37	0.677
588.56	0.679
588.76	0.674
588.95	0.674
589.15	0.679
589.34	0.682
589.54	0.680
589.73	0.680
589.92	0.683
590.12	0.683
590.31	0.681
590.51	0.686
590.70	0.687
590.90	0.688
591.09	0.685
591.29	0.684
591.48	0.684
591.68	0.685
591.87	0.682
592.06	0.682
592.26	0.685
592.45	0.684
592.65	0.677
592.84	0.676
593.04	0.679
593.23	0.681
593.43	0.679
593.62	0.678
593.81	0.678
594.01	0.678
594.20	0.675
594.40	0.674
594.59	0.676
594.79	0.678
594.98	0.677
595.17	0.676
595.37	0.677
595.56	0.680
595.76	0.678
595.95	0.680
596.14	0.684
596.34	0.686
596.53	0.684
596.73	0.685
596.92	0.687
597.12	0.689
597.31	0.689
597.50	0.688
597.70	0.690
597.89	0.690
598.09	0.686
598.28	0.688
598.47	0.690
598.67	0.689
598.86	0.685
599.06	0.686
599.25	0.686
599.44	0.685
599.64	0.682
599.83	0.679
600.03	0.682
600.22	0.683
600.41	0.682
600.61	0.680
600.80	0.682
601.00	0.683
601.19	0.679
601.38	0.678
601.58	0.680
601.77	0.681
601.96	0.683
602.16	0.683
602.35	0.692
602.55	0.689
602.74	0.690
602.93	0.691
603.13	0.697
603.32	0.698
603.51	0.697
603.71	0.701
603.90	0.703
604.09	0.702
604.29	0.699
604.48	0.693
604.68	0.695
604.87	0.694
605.06	0.690
605.26	0.687
605.45	0.688
605.64	0.687
605.84	0.682
606.03	0.681
606.22	0.680
606.42	0.680
606.61	0.676
606.80	0.676
607.00	0.678
607.19	0.678
607.38	0.676
607.58	0.677
607.77	0.680
607.96	0.681
608.16	0.679
608.35	0.684
608.54	0.688
608.74	0.690
608.93	0.695
609.12	0.699
609.32	0.702
609.51	0.705
609.70	0.704
609.90	0.706
610.09	0.710
610.28	0.716
610.48	0.709
610.67	0.710
610.86	0.711
611.06	0.705
611.25	0.703
611.44	0.703
611.64	0.703
611.83	0.706
612.02	0.702
612.21	0.701
612.41	0.700
612.60	0.700
612.79	0.696
612.99	0.696
613.18	0.699
613.37	0.696
613.57	0.693
613.76	0.694
613.95	0.692
614.14	0.691
614.34	0.688
614.53	0.689
614.72	0.691
614.92	0.691
615.11	0.688
615.30	0.685
615.49	0.687
615.69	0.689
615.88	0.686
616.07	0.688
616.26	0.690
616.46	0.692
616.65	0.688
616.84	0.687
617.04	0.688
617.23	0.692
617.42	0.692
617.61	0.697
617.81	0.698
618.00	0.700
618.19	0.698
618.38	0.701
618.58	0.704
618.77	0.707
618.96	0.706
619.15	0.708
619.35	0.709
619.54	0.710
619.73	0.705
619.92	0.707
620.12	0.713
620.31	0.713
620.50	0.708
620.69	0.709
620.89	0.712
621.08	0.712
621.27	0.712
621.46	0.711
621.66	0.716
621.85	0.715
622.04	0.711
622.23	0.711
622.43	0.712
622.62	0.712
622.81	0.710
623.00	0.710
623.19	0.714
623.39	0.712
623.58	0.709
623.77	0.707
623.96	0.711
624.16	0.711
624.35	0.706
624.54	0.709
624.73	0.713
624.92	0.710
625.12	0.707
625.31	0.707
625.50	0.711
625.69	0.712
625.88	0.707
626.08	0.707
626.27	0.709
626.46	0.710
626.65	0.707
626.84	0.707
627.04	0.714
627.23	0.714
627.42	0.710
627.61	0.711
627.80	0.715
628.00	0.715
628.19	0.713
628.38	0.717
628.57	0.719
628.76	0.718
628.96	0.714
629.15	0.715
629.34	0.719
629.53	0.719
629.72	0.713
629.91	0.714
630.11	0.720
630.30	0.720
630.49	0.722
630.68	0.723
630.87	0.728
631.06	0.730
631.26	0.724
631.45	0.725
631.64	0.733
631.83	0.734
632.02	0.730
632.21	0.728
632.41	0.735
632.60	0.729
632.79	0.727
632.98	0.727
633.17	0.727
633.36	0.729
633.55	0.726
633.75	0.722
633.94	0.725
634.13	0.726
634.32	0.722
634.51	0.717
634.70	0.720
634.89	0.721
635.09	0.717
635.28	0.718
635.47	0.719
635.66	0.722
635.85	0.718
636.04	0.720
636.23	0.726
636.43	0.728
636.62	0.726
636.81	0.725
637.00	0.727
637.19	0.730
637.38	0.726
637.57	0.727
637.76	0.728
637.95	0.730
638.15	0.725
638.34	0.721
638.53	0.724
638.72	0.727
638.91	0.723
639.10	0.722
639.29	0.722
639.48	0.723
639.67	0.723
639.87	0.721
640.06	0.727
640.25	0.727
640.44	0.727
640.63	0.727
640.82	0.730
641.01	0.730
641.20	0.730
641.39	0.732
641.58	0.734
641.78	0.733
641.97	0.729
642.16	0.744
642.35	0.744
642.54	0.742
642.73	0.736
642.92	0.734
643.11	0.738
643.30	0.737
643.49	0.731
643.68	0.734
643.87	0.736
644.06	0.737
644.25	0.716
644.45	0.719
644.64	0.721
644.83	0.722
645.02	0.718
645.21	0.717
645.40	0.720
645.59	0.720
645.78	0.713
645.97	0.715
646.16	0.717
646.35	0.715
646.54	0.713
646.73	0.715
646.92	0.717
647.11	0.717
647.30	0.713
647.49	0.715
647.68	0.715
647.88	0.714
648.07	0.707
648.26	0.711
648.45	0.713
648.64	0.709
648.83	0.706
649.02	0.709
649.21	0.720
649.40	0.718
649.59	0.712
649.78	0.713
649.97	0.728
650.16	0.728
650.35	0.721
650.54	0.724
650.73	0.732
650.92	0.728
651.11	0.721
651.30	0.719
651.49	0.723
651.68	0.724
651.87	0.720
652.06	0.709
652.25	0.712
652.44	0.714
652.63	0.711
652.82	0.711
653.01	0.710
653.20	0.708
653.39	0.695
653.58	0.693
653.77	0.692
653.96	0.687
654.15	0.679
654.34	0.677
654.53	0.673
654.72	0.667
654.91	0.657
655.10	0.654
655.29	0.651
655.48	0.650
655.67	0.644
655.86	0.641
656.05	0.640
656.24	0.640
656.43	0.634
656.62	0.633
656.81	0.633
657.00	0.632
657.19	0.628
657.38	0.629
657.57	0.628
657.76	0.631
657.95	0.629
658.14	0.632
658.33	0.635
658.51	0.640
658.70	0.641
658.89	0.643
659.08	0.653
659.27	0.661
659.46	0.662
659.65	0.669
659.84	0.672
660.03	0.675
660.22	0.676
660.41	0.680
660.60	0.679
660.79	0.681
660.98	0.686
661.17	0.685
661.36	0.683
661.55	0.684
661.74	0.682
661.92	0.685
662.11	0.688
662.30	0.686
662.49	0.680
662.68	0.679
662.87	0.683
663.06	0.676
663.25	0.677
663.44	0.678
663.63	0.680
663.82	0.678
664.01	0.673
664.20	0.671
664.38	0.672
664.57	0.673
664.76	0.673
664.95	0.673
665.14	0.679
665.33	0.674
665.52	0.680
665.71	0.683
665.90	0.682
666.09	0.683
666.28	0.682
666.46	0.682
666.65	0.683
666.84	0.680
667.03	0.674
667.22	0.671
667.41	0.675
667.60	0.665
667.79	0.658
667.98	0.660
668.16	0.662
668.35	0.661
668.54	0.656
668.73	0.657
668.92	0.658
669.11	0.657
669.30	0.651
669.49	0.648
669.67	0.650
669.86	0.652
670.05	0.649
670.24	0.646
670.43	0.644
670.62	0.643
670.81	0.637
671.00	0.638
671.18	0.638
671.37	0.637
671.56	0.635
671.75	0.635
671.94	0.632
672.13	0.630
672.32	0.624
672.50	0.624
672.69	0.624
672.88	0.624
673.07	0.620
673.26	0.622
673.45	0.624
673.63	0.624
673.82	0.620
674.01	0.622
674.20	0.622
674.39	0.622
674.58	0.621
674.76	0.621
674.95	0.621
675.14	0.620
675.33	0.615
675.52	0.613
675.71	0.613
675.89	0.613
676.08	0.608
676.27	0.608
676.46	0.608
676.65	0.608
676.84	0.606
677.02	0.607
677.21	0.610
677.40	0.609
677.59	0.607
677.78	0.607
677.96	0.609
678.15	0.608
678.34	0.606
678.53	0.607
678.72	0.606
678.90	0.603
679.09	0.600
679.28	0.596
679.47	0.597
679.66	0.596
679.84	0.593
680.03	0.590
680.22	0.590
680.41	0.592
680.60	0.588
680.78	0.588
680.97	0.591
681.16	0.591
681.35	0.590
681.53	0.589
681.72	0.590
681.91	0.592
682.10	0.590
682.29	0.593
682.47	0.591
682.66	0.590
682.85	0.588
683.04	0.586
683.22	0.586
683.41	0.588
683.60	0.586
683.79	0.587
683.97	0.587
684.16	0.586
684.35	0.582
684.54	0.583
684.72	0.583
684.91	0.584
685.10	0.582
685.29	0.583
685.47	0.581
685.66	0.580
685.85	0.576
686.04	0.575
686.22	0.578
686.41	0.580
686.60	0.577
686.79	0.580
686.97	0.581
687.16	0.582
687.35	0.579
687.54	0.582
687.72	0.586
687.91	0.586
688.10	0.587
688.29	0.587
688.47	0.585
688.66	0.585
688.85	0.581
689.03	0.578
689.22	0.583
689.41	0.584
689.60	0.579
689.78	0.576
689.97	0.576
690.16	0.574
690.34	0.570
690.53	0.570
690.72	0.570
690.91	0.568
691.09	0.566
691.28	0.560
691.47	0.558
691.65	0.557
691.84	0.555
692.03	0.554
692.21	0.553
692.40	0.552
692.59	0.550
692.77	0.549
692.96	0.550
693.15	0.551
693.34	0.549
693.52	0.549
693.71	0.549
693.90	0.551
694.08	0.551
694.27	0.551
694.46	0.562
694.64	0.562
694.83	0.562
695.02	0.561
695.20	0.560
695.39	0.560
695.58	0.560
695.76	0.560
695.95	0.560
696.14	0.559
696.32	0.557
696.51	0.547
696.70	0.547
696.88	0.548
697.07	0.547
697.26	0.548
697.44	0.550
697.63	0.549
697.81	0.547
698.00	0.547
698.19	0.547
698.37	0.547
698.56	0.546
698.75	0.547
698.93	0.546
699.12	0.545
699.31	0.544
699.49	0.544
699.68	0.545
699.87	0.547
700.05	0.547
700.24	0.545
700.42	0.548
700.61	0.547
700.80	0.545
700.98	0.545
701.17	0.548
701.36	0.546
701.54	0.546
701.73	0.547
701.91	0.544
702.10	0.543
702.29	0.542
702.47	0.540
702.66	0.542
702.84	0.543
703.03	0.540
703.22	0.542
703.40	0.542
703.59	0.544
703.77	0.543
703.96	0.543
704.15	0.544
704.33	0.544
704.52	0.543
704.70	0.542
704.89	0.542
705.08	0.540
705.26	0.536
705.45	0.536
705.63	0.536
705.82	0.532
706.00	0.531
706.19	0.530
706.38	0.530
706.56	0.529
706.75	0.527
706.93	0.526
707.12	0.528
707.30	0.528
707.49	0.525
707.68	0.524
707.86	0.524
708.05	0.524
708.23	0.521
708.42	0.522
708.60	0.525
708.79	0.525
708.98	0.523
709.16	0.522
709.35	0.524
709.53	0.529
709.72	0.527
709.90	0.529
710.09	0.531
710.27	0.533
710.46	0.536
710.64	0.535
710.83	0.538
711.02	0.539
711.20	0.538
711.39	0.537
711.57	0.534
711.76	0.535
711.94	0.533
712.13	0.533
712.31	0.533
712.50	0.528
712.68	0.525
712.87	0.525
713.05	0.526
713.24	0.526
713.42	0.525
713.61	0.525
713.79	0.527
713.98	0.527
714.16	0.528
714.35	0.528
714.54	0.530
714.72	0.530
714.91	0.528
715.09	0.534
715.28	0.537
715.46	0.537
715.65	0.535
715.83	0.535
716.02	0.537
716.20	0.533
716.39	0.532
716.57	0.533
716.76	0.536
716.94	0.536
717.12	0.528
717.31	0.529
717.49	0.532
717.68	0.534
717.86	0.533
718.05	0.535
718.23	0.537
718.42	0.540
718.60	0.541
718.79	0.549
718.97	0.551
719.16	0.552
719.34	0.550
719.53	0.550
719.71	0.550
719.90	0.552
720.08	0.548
720.27	0.549
720.45	0.549
720.63	0.548
720.82	0.542
721.00	0.545
721.19	0.548
721.37	0.547
721.56	0.547
721.74	0.550
721.93	0.559
722.11	0.567
722.30	0.567
722.48	0.571
722.66	0.572
722.85	0.572
723.03	0.572
723.22	0.571
723.40	0.574
723.59	0.574
723.77	0.577
723.95	0.570
724.14	0.571
724.32	0.573
724.51	0.572
724.69	0.573
724.88	0.574
725.06	0.572
725.24	0.573
725.43	0.575
725.61	0.578
725.80	0.572
725.98	0.569
726.16	0.565
726.35	0.571
726.53	0.570
726.72	0.569
726.90	0.580
727.09	0.580
727.27	0.586
727.45	0.582
727.64	0.592
727.82	0.601
728.01	0.605
728.19	0.603
728.37	0.609
728.56	0.614
728.74	0.619
728.92	0.606
729.11	0.610
729.29	0.609
729.48	0.611
729.66	0.599
729.84	0.599
730.03	0.603
730.21	0.605
730.40	0.595
730.58	0.596
730.76	0.596
730.95	0.598
731.13	0.598
731.31	0.612
731.50	0.623
731.68	0.627
731.86	0.623
732.05	0.639
732.23	0.644
732.42	0.647
732.60	0.651
732.78	0.658
732.97	0.678
733.15	0.686
733.33	0.674
733.52	0.680
733.70	0.692
733.88	0.702
734.07	0.686
734.25	0.712
734.43	0.721
734.62	0.722
734.80	0.716
734.98	0.705
735.17	0.714
735.35	0.720
735.53	0.707
735.72	0.710
735.90	0.733
736.08	0.754
736.27	0.731
736.45	0.742
736.63	0.756
736.82	0.768
737.00	0.769
737.18	0.779
737.37	0.814
737.55	0.842
737.73	0.837
737.92	0.836
738.10	0.834
738.28	0.853
738.46	0.840
738.65	0.853
738.83	0.877
739.01	0.934
739.20	0.922
739.38	0.903
739.56	0.893
739.75	0.898
739.93	0.863
740.11	0.889
740.29	0.890
740.48	0.899
740.66	0.876
740.84	0.871
741.03	0.834
741.21	0.849
741.39	0.827
741.57	0.844
741.76	0.864
741.94	0.873
742.12	0.835
742.31	0.843
742.49	0.864
742.67	0.893
742.85	0.907
743.04	0.913
743.22	0.923
743.40	0.984
743.58	0.959
743.77	0.983
743.95	1.027
744.13	1.085
744.31	1.064
744.50	1.062
744.68	1.062
744.86	1.027
745.04	1.041
745.23	1.121
745.41	1.101
745.59	1.113
745.77	1.064
745.96	1.047
746.14	1.063
746.32	1.059
746.50	1.041
746.69	1.025
746.87	1.048
747.05	1.026
747.23	0.941
747.42	0.925
747.60	0.953
747.78	0.957
747.96	0.988
748.14	0.938
748.33	0.974
748.51	0.967
748.69	0.952
748.87	0.983
749.06	0.982
749.24	0.979
749.42	0.966
749.60	0.947
749.78	0.956
749.97	0.907
750.15	0.899
750.33	0.896
750.51	0.931
750.69	0.937
750.88	0.940
751.06	0.956
751.24	0.986
751.42	0.971
751.60	0.958
751.79	1.049
751.97	1.107
752.15	1.102
752.33	1.063
752.51	1.136
752.69	1.158
752.88	1.112
753.06	1.163
753.24	1.133
753.42	1.177
753.60	1.406
753.78	1.191
753.97	1.222
754.15	1.254
754.33	1.294
754.51	1.124
754.69	1.105
754.87	1.146
755.06	1.055
755.24	1.052
755.42	1.056
755.60	0.948
755.78	0.961
755.96	0.894
756.15	0.892
756.33	0.899
756.51	0.922
756.69	0.907
756.87	0.870
757.05	0.897
757.23	0.881
757.42	0.849
757.60	0.843
757.78	0.830
757.96	0.831
758.14	0.814
758.32	0.795
758.50	0.810
758.69	0.806
758.87	0.796
759.05	0.798
759.23	0.810
759.41	0.809
759.59	0.802
759.77	0.829
759.95	0.860
760.13	0.913
760.32	0.914
760.50	0.906
760.68	0.935
760.86	0.939
761.04	0.910
761.22	0.913
761.40	0.970
761.58	0.970
761.76	0.936
761.95	0.913
762.13	0.862
762.31	0.865
762.49	0.830
762.67	0.850
762.85	0.865
763.03	0.854
763.21	0.834
763.39	0.811
763.57	0.816
763.75	0.810
763.94	0.795
764.12	0.795
764.30	0.821
764.48	0.828
764.66	0.788
764.84	0.784
765.02	0.829
765.20	0.834
765.38	0.813
765.56	0.819
765.74	0.864
765.92	0.862
766.10	0.872
766.28	0.862
766.46	0.893
766.65	0.893
766.83	0.880
767.01	0.862
767.19	0.874
767.37	0.877
767.55	0.858
767.73	0.836
767.91	0.844
768.09	0.832
768.27	0.818
768.45	0.807
768.63	0.813
768.81	0.814
768.99	0.785
769.17	0.807
769.35	0.822
769.53	0.820
769.71	0.800
769.89	0.811
770.07	0.818
770.25	0.799
770.43	0.774
770.61	0.803
770.79	0.813
770.97	0.825
771.15	0.790
771.33	0.794
771.51	0.800
771.69	0.808
771.87	0.812
772.05	0.817
772.24	0.827
772.42	0.836
772.60	0.805
772.78	0.870
772.96	0.900
773.14	0.897
773.32	0.869
773.49	0.877
773.67	0.872
773.85	0.846
774.03	0.834
774.21	0.868
774.39	0.882
774.57	0.911
774.75	0.831
774.93	0.824
775.11	0.850
775.29	0.859
775.47	0.860
775.65	0.877
775.83	0.901
776.01	0.927
776.19	0.872
776.37	0.875
776.55	0.872
776.73	0.868
776.91	0.860
777.09	0.839
777.27	0.838
777.45	0.823
777.63	0.798
777.81	0.794
777.99	0.784
778.17	0.783
778.35	0.761
778.53	0.750
778.71	0.756
778.89	0.740
779.07	0.731
779.24	0.737
779.42	0.739
779.60	0.758
779.78	0.752
779.96	0.755
780.14	0.766
780.32	0.784
780.50	0.767
780.68	0.770
780.86	0.764
781.04	0.782
781.22	0.785
781.40	0.799
781.58	0.789
781.75	0.779
781.93	0.758
782.11	0.757
782.29	0.748
782.47	0.748
782.65	0.731
782.83	0.763
783.01	0.755
783.19	0.749
783.37	0.730
783.55	0.735
783.72	0.753
783.90	0.765
784.08	0.757
784.26	0.769
784.44	0.786
784.62	0.790
784.80	0.751
784.98	0.758
785.16	0.762
785.33	0.777
785.51	0.762
785.69	0.750
785.87	0.748
786.05	0.758
786.23	0.750
786.41	0.749
786.59	0.757
786.77	0.759
786.94	0.744
787.12	0.749
787.30	0.753
787.48	0.750
787.66	0.737
787.84	0.737
788.02	0.728
788.19	0.726
788.37	0.712
788.55	0.713
788.73	0.713
788.91	0.707
789.09	0.688
789.27	0.677
789.44	0.687
789.62	0.692
789.80	0.704
789.98	0.731
790.16	0.718
790.34	0.712
790.51	0.699
790.69	0.721
790.87	0.729
791.05	0.726
791.23	0.719
791.41	0.722
791.58	0.730
791.76	0.706
791.94	0.673
792.12	0.681
792.30	0.686
792.48	0.683
792.65	0.674
792.83	0.682
793.01	0.692
793.19	0.689
793.37	0.673
793.54	0.669
793.72	0.681
793.90	0.682
794.08	0.672
794.26	0.672
794.43	0.682
794.61	0.665
794.79	0.653
794.97	0.650
795.15	0.655
795.32	0.658
795.50	0.647
795.68	0.642
795.86	0.646
796.04	0.647
796.21	0.638
796.39	0.637
796.57	0.651
796.75	0.659
796.92	0.660
797.10	0.666
797.28	0.667
797.46	0.671
797.64	0.672
797.81	0.678
797.99	0.683
798.17	0.690
798.35	0.683
798.52	0.688
798.70	0.683
798.88	0.691
799.06	0.690
799.23	0.694
799.41	0.704
799.59	0.696
799.77	0.684
799.94	0.694
800.12	0.703
800.30	0.724
800.48	0.721
800.65	0.723
800.83	0.715
801.01	0.706
801.19	0.705
801.36	0.699
801.54	0.703
801.72	0.714
801.90	0.698
802.07	0.692
802.25	0.676
802.43	0.660
802.60	0.654
802.78	0.662
802.96	0.668
803.14	0.662
803.31	0.659
803.49	0.660
803.67	0.655
803.84	0.660
804.02	0.651
804.20	0.654
804.38	0.660
804.55	0.661
804.73	0.644
804.91	0.645
805.08	0.658
805.26	0.654
805.44	0.724
805.61	0.729
805.79	0.729
805.97	0.729
806.15	0.718
806.32	0.713
806.50	0.719
806.68	0.719
806.85	0.710
807.03	0.701
807.21	0.719
807.38	0.646
807.56	0.634
807.74	0.646
807.91	0.655
808.09	0.657
808.27	0.677
808.44	0.704
808.62	0.714
808.80	0.714
808.97	0.710
809.15	0.704
809.33	0.723
809.50	0.733
809.68	0.715
809.86	0.722
810.03	0.758
810.21	0.734
810.39	0.713
810.56	0.719
810.74	0.747
810.91	0.822
811.09	0.808
811.27	0.831
811.44	0.837
811.62	0.838
811.80	0.817
811.97	0.783
812.15	0.782
812.33	0.779
812.50	0.763
812.68	0.749
812.85	0.692
813.03	0.697
813.21	0.661
813.38	0.654
813.56	0.658
813.74	0.670
813.91	0.678
814.09	0.712
814.26	0.707
814.44	0.711
814.62	0.700
814.79	0.703
814.97	0.710
815.14	0.717
815.32	0.719
815.50	0.737
815.67	0.743
815.85	0.734
816.02	0.721
816.20	0.729
816.38	0.746
816.55	0.750
816.73	0.749
816.90	0.759
817.08	0.794
817.26	0.802
817.43	0.779
817.61	0.802
817.78	0.825
817.96	0.803
818.13	0.790
818.31	0.791
818.49	0.809
818.66	0.797
818.84	0.782
819.01	0.758
819.19	0.767
819.36	0.769
819.54	0.738
819.71	0.785
819.89	0.800
820.07	0.813
820.24	0.806
820.42	0.806
820.59	0.829
820.77	0.853
820.94	0.843
821.12	0.862
821.29	0.881
821.47	0.883
821.64	0.809
821.82	0.824
822.00	0.825
822.17	0.823
822.35	0.814
822.52	0.815
822.70	0.806
822.87	0.817
823.05	0.792
823.22	0.808
823.40	0.839
823.57	0.864
823.75	0.843
823.92	0.873
824.10	0.896
824.27	0.945
824.45	0.936
824.62	1.018
824.80	1.037
824.97	1.058
825.15	1.047
825.32	1.066
825.50	1.075
825.67	1.088
825.85	1.058
826.02	1.090
826.20	1.123
826.37	1.316
826.55	1.188
826.72	1.546
826.90	1.768
827.07	1.936
827.25	1.707
827.42	2.757
827.60	-0.000
827.77	-0.000
827.95	-0.000
828.12	-0.000
828.30	-0.000
828.47	-0.000
828.65	1.724
828.82	1.951
829.00	2.525
829.17	-0.000
829.34	-0.000
829.52	-0.000
829.69	-0.000
829.87	-0.000
830.04	-0.000
830.22	-0.000
830.39	-0.000
830.57	-0.000
830.74	-0.000
830.92	-0.000
831.09	-0.000
831.26	-0.000
831.44	-0.000
831.61	-0.000
831.79	-0.000
831.96	-0.000
832.14	-0.000
832.31	-0.000
832.49	-0.000
832.66	-0.000
832.83	-0.000
833.01	-0.000
833.18	-0.000
833.36	-0.000
833.53	-0.000
833.70	-0.000
833.88	-0.000
834.05	-0.000
834.23	-0.000
834.40	-0.000
834.58	-0.000
834.75	-0.000
834.92	-0.000
835.10	-0.000
835.27	-0.000
835.45	-0.000
835.62	-0.000
835.79	-0.000
835.97	-0.000
836.14	-0.000
836.32	-0.000
836.49	-0.000
836.66	-0.000
836.84	-0.000
837.01	-0.000
837.18	-0.000
837.36	-0.000
837.53	-0.000
837.71	-0.000
837.88	-0.000
838.05	-0.000
838.23	-0.000
838.40	-0.000
838.58	-0.000
838.75	-0.000
838.92	-0.000
839.10	-0.000
839.27	-0.000
839.44	-0.000
839.62	-0.000
839.79	-0.000
839.96	-0.000
840.14	-0.000
840.31	-0.000
840.48	-0.000
840.66	-0.000
840.83	-0.000
841.01	-0.000
841.18	-0.000
841.35	-0.000
841.53	-0.000
841.70	-0.000
841.87	-0.000
842.05	-0.000
842.22	-0.000
842.39	-0.000
842.57	-0.000
842.74	-0.000
842.91	-0.000
843.09	-0.000
843.26	-0.000
843.43	-0.000
843.60	-0.000
843.78	-0.000
843.95	-0.000
844.12	-0.000
844.30	-0.000
844.47	-0.000
844.64	-0.000
844.82	-0.000
844.99	-0.000
845.16	-0.000
845.34	-0.000
845.51	-0.000
845.68	-0.000
845.85	-0.000
846.03	-0.000
846.20	-0.000
846.37	-0.000
846.55	-0.000
846.72	-0.000
846.89	-0.000
847.06	-0.000
847.24	-0.000
847.41	-0.000
847.58	-0.000
847.76	-0.000
847.93	-0.000
848.10	-0.000
848.27	-0.000
848.45	-0.000
848.62	-0.000
848.79	-0.000
848.97	-0.000
849.14	-0.000
849.31	-0.000
849.48	-0.000
849.66	-0.000
849.83	-0.000
850.00	-0.000
850.17	-0.000
850.35	-0.000
850.52	-0.000
850.69	-0.000
850.86	-0.000
851.04	-0.000
851.21	-0.000
851.38	-0.000
851.55	-0.000
851.72	-0.000
851.90	-0.000
852.07	-0.000
852.24	-0.000
852.41	-0.000
852.59	-0.000
852.76	-0.000
852.93	-0.000
853.10	-0.000
853.28	-0.000
853.45	-0.000
853.62	-0.000
853.79	-0.000
853.96	-0.000
854.14	-0.000
854.31	-0.000
854.48	-0.000
854.65	-0.000
854.82	-0.000
855.00	-0.000
855.17	-0.000
855.34	-0.000
855.51	-0.000
855.68	-0.000
855.86	-0.000
856.03	-0.000
856.20	-0.000
856.37	-0.000
856.54	-0.000
856.72	-0.000
856.89	-0.000
857.06	-0.000
857.23	-0.000
857.40	-0.000
857.57	-0.000
857.75	-0.000
857.92	-0.000
858.09	-0.000
858.26	-0.000
858.43	-0.000
858.60	-0.000
858.78	-0.000
858.95	-0.000
859.12	-0.000
859.29	-0.000
859.46	-0.000
859.63	-0.000
859.81	-0.000
859.98	-0.000
860.15	-0.000
860.32	-0.000
860.49	-0.000
860.66	-0.000
860.83	-0.000
861.01	-0.000
861.18	-0.000
861.35	-0.000
861.52	-0.000
861.69	-0.000
861.86	-0.000
862.03	-0.000
862.21	-0.000
862.38	-0.000
862.55	-0.000
862.72	-0.000
862.89	-0.000
863.06	-0.000
863.23	-0.000
863.40	-0.000
863.58	-0.000
863.75	-0.000
863.92	-0.000
864.09	-0.000
864.26	-0.000
864.43	-0.000
864.60	-0.000
864.77	-0.000
864.94	-0.000
865.11	-0.000
865.29	-0.000
865.46	-0.000
865.63	-0.000
865.80	-0.000
865.97	-0.000
866.14	-0.000
866.31	-0.000
866.48	-0.000
866.65	-0.000
866.82	-0.000
866.99	-0.000
867.16	-0.000
867.34	-0.000
867.51	-0.000
867.68	-0.000
867.85	-0.000
868.02	-0.000
868.19	-0.000
868.36	-0.000
868.53	-0.000
868.70	-0.000
868.87	-0.000
869.04	-0.000
869.21	-0.000
869.38	-0.000
869.55	-0.000
869.72	-0.000
869.89	-0.000
870.06	-0.000
870.24	-0.000
870.41	-0.000
870.58	-0.000
870.75	-0.000
870.92	-0.000
871.09	-0.000
871.26	-0.000
871.43	-0.000
871.60	-0.000
871.77	-0.000
871.94	-0.000
872.11	-0.000
872.28	-0.000
872.45	-0.000
872.62	-0.000
872.79	-0.000
872.96	-0.000
873.13	-0.000
873.30	-0.000
873.47	-0.000
873.64	-0.000
873.81	-0.000
873.98	-0.000
874.15	-0.000
874.32	-0.000
874.49	-0.000
874.66	-0.000
874.83	-0.000
875.00	-0.000
875.17	-0.000
875.34	-0.000
875.51	-0.000
875.68	-0.000
875.85	-0.000
876.02	-0.000
876.19	-0.000
876.36	-0.000
876.53	-0.000
876.70	-0.000
876.87	-0.000
877.04	-0.000
877.21	-0.000
877.38	-0.000
877.55	-0.000
877.72	-0.000
877.89	-0.000
878.06	-0.000
878.23	-0.000
878.39	-0.000
878.56	-0.000
878.73	-0.000
878.90	-0.000
879.07	-0.000
879.24	-0.000
879.41	-0.000
879.58	-0.000
879.75	-0.000
879.92	-0.000
880.09	-0.000
880.26	-0.000
880.43	-0.000
880.60	-0.000
880.77	-0.000
880.94	-0.000
881.11	-0.000
881.27	-0.000
881.44	-0.000
881.61	-0.000
881.78	-0.000
881.95	-0.000
882.12	-0.000
882.29	-0.000
882.46	-0.000
882.63	-0.000
882.80	-0.000
882.97	-0.000
883.14	-0.000
883.30	-0.000
883.47	-0.000
883.64	-0.000
883.81	-0.000
883.98	-0.000
884.15	-0.000
884.32	-0.000
884.49	-0.000
884.66	-0.000
884.82	-0.000
884.99	-0.000
885.16	-0.000
885.33	-0.000
885.50	-0.000
885.67	-0.000
885.84	-0.000
886.01	-0.000
886.17	-0.000
886.34	-0.000
886.51	-0.000
886.68	-0.000
886.85	-0.000
887.02	-0.000
887.19	-0.000
887.36	-0.000
887.52	-0.000
887.69	-0.000
887.86	-0.000
888.03	-0.000
888.20	-0.000
888.37	-0.000
888.54	-0.000
888.70	-0.000
888.87	-0.000
889.04	-0.000
889.21	-0.000
889.38	-0.000
889.55	-0.000
889.71	-0.000
889.88	-0.000
890.05	-0.000
890.22	-0.000
890.39	-0.000
>>>>>End Processed Spectral Data<<<<<
