SpectraSuite Data File
++++++++++++++++++++++++++++++++++++
Date: Fri Jun 19 14:37:37 CEST 2015
User: introlabs
Dark Spectrum Present: Yes
Reference Spectrum Present: Yes
Number of Sampled Component Spectra: 1
Spectrometers: USB4H08886
Integration Time (usec): 745692 (USB4H08886)
Spectra Averaged: 5 (USB4H08886)
Boxcar Smoothing: 5 (USB4H08886)
Correct for Electrical Dark: Yes (USB4H08886)
Strobe/Lamp Enabled: No (USB4H08886)
Correct for Detector Non-linearity: Yes (USB4H08886)
Correct for Stray Light: Yes (USB4H08886)
Number of Pixels in Processed Spectrum: 3648
>>>>>Begin Processed Spectral Data<<<<<
178.14	-0.000
178.36	-0.000
178.57	-0.000
178.79	-0.000
179.01	-0.000
179.22	-0.000
179.44	-0.000
179.65	-0.000
179.87	-0.000
180.08	-0.000
180.30	-0.000
180.52	-0.000
180.73	-0.000
180.95	-0.000
181.16	-0.000
181.38	-0.000
181.59	-0.000
181.81	-0.000
182.03	-0.000
182.24	-0.000
182.46	-0.000
182.67	-0.000
182.89	-0.000
183.10	-0.000
183.32	-0.000
183.54	-0.000
183.75	-0.000
183.97	-0.000
184.18	-0.000
184.40	-0.000
184.61	-0.000
184.83	-0.000
185.04	-0.000
185.26	-0.000
185.48	-0.000
185.69	-0.000
185.91	-0.000
186.12	-0.000
186.34	-0.000
186.55	-0.000
186.77	-0.000
186.98	-0.000
187.20	-0.000
187.42	-0.000
187.63	-0.000
187.85	-0.000
188.06	-0.000
188.28	-0.000
188.49	-0.000
188.71	-0.000
188.92	-0.000
189.14	-0.000
189.36	-0.000
189.57	-0.000
189.79	-0.000
190.00	-0.000
190.22	-0.000
190.43	-0.000
190.65	-0.000
190.86	-0.000
191.08	-0.000
191.29	-0.000
191.51	-0.000
191.72	-0.000
191.94	-0.000
192.16	-0.000
192.37	-0.000
192.59	-0.000
192.80	-0.000
193.02	-0.000
193.23	-0.000
193.45	-0.000
193.66	-0.000
193.88	-0.000
194.09	-0.000
194.31	-0.000
194.52	-0.000
194.74	-0.000
194.95	-0.000
195.17	-0.000
195.38	-0.000
195.60	-0.000
195.81	-0.000
196.03	-0.000
196.25	-0.000
196.46	-0.000
196.68	-0.000
196.89	-0.000
197.11	-0.000
197.32	-0.000
197.54	-0.000
197.75	-0.000
197.97	-0.000
198.18	-0.000
198.40	-0.000
198.61	-0.000
198.83	-0.000
199.04	-0.000
199.26	-0.000
199.47	-0.000
199.69	-0.000
199.90	-0.000
200.12	-0.000
200.33	-0.000
200.55	-0.000
200.76	-0.000
200.98	-0.000
201.19	-0.000
201.41	-0.000
201.62	-0.000
201.84	-0.000
202.05	-0.000
202.27	-0.000
202.48	-0.000
202.70	-0.000
202.91	-0.000
203.13	-0.000
203.34	-0.000
203.56	-0.000
203.77	-0.000
203.99	-0.000
204.20	-0.000
204.42	-0.000
204.63	-0.000
204.85	-0.000
205.06	-0.000
205.28	-0.000
205.49	-0.000
205.71	-0.000
205.92	-0.000
206.14	-0.000
206.35	-0.000
206.56	-0.000
206.78	-0.000
206.99	-0.000
207.21	-0.000
207.42	-0.000
207.64	-0.000
207.85	-0.000
208.07	-0.000
208.28	-0.000
208.50	-0.000
208.71	-0.000
208.93	-0.000
209.14	-0.000
209.36	-0.000
209.57	-0.000
209.79	-0.000
210.00	-0.000
210.22	-0.000
210.43	-0.000
210.64	-0.000
210.86	-0.000
211.07	-0.000
211.29	-0.000
211.50	-0.000
211.72	-0.000
211.93	-0.000
212.15	-0.000
212.36	-0.000
212.58	-0.000
212.79	-0.000
213.01	-0.000
213.22	-0.000
213.43	-0.000
213.65	-0.000
213.86	-0.000
214.08	-0.000
214.29	-0.000
214.51	-0.000
214.72	-0.000
214.94	-0.000
215.15	-0.000
215.36	-0.000
215.58	-0.000
215.79	-0.000
216.01	-0.000
216.22	-0.000
216.44	-0.000
216.65	-0.000
216.87	-0.000
217.08	-0.000
217.29	-0.000
217.51	-0.000
217.72	-0.000
217.94	-0.000
218.15	-0.000
218.37	-0.000
218.58	-0.000
218.80	-0.000
219.01	-0.000
219.22	-0.000
219.44	-0.000
219.65	-0.000
219.87	-0.000
220.08	-0.000
220.30	-0.000
220.51	-0.000
220.72	-0.000
220.94	-0.000
221.15	-0.000
221.37	-0.000
221.58	-0.000
221.79	-0.000
222.01	-0.000
222.22	-0.000
222.44	-0.000
222.65	-0.000
222.87	-0.000
223.08	-0.000
223.29	-0.000
223.51	-0.000
223.72	-0.000
223.94	-0.000
224.15	-0.000
224.36	-0.000
224.58	-0.000
224.79	-0.000
225.01	-0.000
225.22	-0.000
225.44	-0.000
225.65	-0.000
225.86	-0.000
226.08	-0.000
226.29	-0.000
226.51	-0.000
226.72	-0.000
226.93	-0.000
227.15	-0.000
227.36	-0.000
227.58	-0.000
227.79	-0.000
228.00	-0.000
228.22	-0.000
228.43	-0.000
228.65	-0.000
228.86	-0.000
229.07	-0.000
229.29	-0.000
229.50	-0.000
229.72	-0.000
229.93	-0.000
230.14	-0.000
230.36	-0.000
230.57	-0.000
230.78	-0.000
231.00	-0.000
231.21	-0.000
231.43	-0.000
231.64	-0.000
231.85	-0.000
232.07	-0.000
232.28	-0.000
232.50	-0.000
232.71	-0.000
232.92	-0.000
233.14	-0.000
233.35	-0.000
233.56	-0.000
233.78	-0.000
233.99	-0.000
234.21	-0.000
234.42	-0.000
234.63	-0.000
234.85	-0.000
235.06	-0.000
235.27	-0.000
235.49	-0.000
235.70	-0.000
235.91	-0.000
236.13	-0.000
236.34	-0.000
236.56	-0.000
236.77	-0.000
236.98	-0.000
237.20	-0.000
237.41	-0.000
237.62	-0.000
237.84	-0.000
238.05	-0.000
238.26	-0.000
238.48	-0.000
238.69	-0.000
238.91	-0.000
239.12	-0.000
239.33	-0.000
239.55	-0.000
239.76	-0.000
239.97	-0.000
240.19	-0.000
240.40	-0.000
240.61	-0.000
240.83	-0.000
241.04	-0.000
241.25	-0.000
241.47	-0.000
241.68	-0.000
241.89	-0.000
242.11	-0.000
242.32	-0.000
242.53	-0.000
242.75	-0.000
242.96	-0.000
243.17	-0.000
243.39	-0.000
243.60	-0.000
243.81	-0.000
244.03	-0.000
244.24	-0.000
244.45	-0.000
244.67	-0.000
244.88	-0.000
245.09	-0.000
245.31	-0.000
245.52	-0.000
245.73	-0.000
245.95	-0.000
246.16	-0.000
246.37	-0.000
246.59	-0.000
246.80	-0.000
247.01	-0.000
247.23	-0.000
247.44	-0.000
247.65	-0.000
247.87	-0.000
248.08	-0.000
248.29	-0.000
248.51	-0.000
248.72	-0.000
248.93	-0.000
249.15	-0.000
249.36	-0.000
249.57	-0.000
249.78	-0.000
250.00	-0.000
250.21	-0.000
250.42	-0.000
250.64	-0.000
250.85	-0.000
251.06	-0.000
251.28	-0.000
251.49	-0.000
251.70	-0.000
251.92	-0.000
252.13	-0.000
252.34	-0.000
252.55	-0.000
252.77	-0.000
252.98	-0.000
253.19	-0.000
253.41	-0.000
253.62	-0.000
253.83	-0.000
254.05	-0.000
254.26	-0.000
254.47	-0.000
254.68	-0.000
254.90	-0.000
255.11	-0.000
255.32	-0.000
255.54	-0.000
255.75	-0.000
255.96	-0.000
256.17	-0.000
256.39	-0.000
256.60	-0.000
256.81	-0.000
257.03	-0.000
257.24	-0.000
257.45	-0.000
257.66	-0.000
257.88	-0.000
258.09	-0.000
258.30	-0.000
258.51	-0.000
258.73	-0.000
258.94	-0.000
259.15	-0.000
259.37	-0.000
259.58	-0.000
259.79	-0.000
260.00	-0.000
260.22	-0.000
260.43	-0.000
260.64	-0.000
260.85	-0.000
261.07	-0.000
261.28	-0.000
261.49	-0.000
261.71	-0.000
261.92	-0.000
262.13	-0.000
262.34	-0.000
262.56	-0.000
262.77	-0.000
262.98	-0.000
263.19	-0.000
263.41	-0.000
263.62	-0.000
263.83	-0.000
264.04	-0.000
264.26	-0.000
264.47	-0.000
264.68	-0.000
264.89	-0.000
265.11	-0.000
265.32	-0.000
265.53	-0.000
265.74	-0.000
265.96	-0.000
266.17	-0.000
266.38	-0.000
266.59	-0.000
266.81	-0.000
267.02	-0.000
267.23	-0.000
267.44	-0.000
267.65	-0.000
267.87	-0.000
268.08	-0.000
268.29	-0.000
268.50	-0.000
268.72	-0.000
268.93	-0.000
269.14	-0.000
269.35	-0.000
269.57	-0.000
269.78	-0.000
269.99	-0.000
270.20	-0.000
270.41	-0.000
270.63	-0.000
270.84	-0.000
271.05	-0.000
271.26	-0.000
271.48	-0.000
271.69	-0.000
271.90	-0.000
272.11	-0.000
272.32	-0.000
272.54	-0.000
272.75	-0.000
272.96	-0.000
273.17	-0.000
273.39	-0.000
273.60	-0.000
273.81	-0.000
274.02	-0.000
274.23	-0.000
274.45	-0.000
274.66	-0.000
274.87	-0.000
275.08	-0.000
275.29	-0.000
275.51	-0.000
275.72	-0.000
275.93	-0.000
276.14	-0.000
276.35	-0.000
276.57	-0.000
276.78	-0.000
276.99	-0.000
277.20	-0.000
277.41	-0.000
277.63	-0.000
277.84	-0.000
278.05	-0.000
278.26	-0.000
278.47	-0.000
278.69	-0.000
278.90	-0.000
279.11	-0.000
279.32	-0.000
279.53	-0.000
279.74	-0.000
279.96	-0.000
280.17	-0.000
280.38	-0.000
280.59	-0.000
280.80	-0.000
281.02	-0.000
281.23	-0.000
281.44	-0.000
281.65	-0.000
281.86	-0.000
282.07	-0.000
282.29	-0.000
282.50	-0.000
282.71	-0.000
282.92	-0.000
283.13	-0.000
283.35	-0.000
283.56	-0.000
283.77	-0.000
283.98	-0.000
284.19	-0.000
284.40	-0.000
284.62	-0.000
284.83	-0.000
285.04	-0.000
285.25	-0.000
285.46	-0.000
285.67	-0.000
285.88	-0.000
286.10	-0.000
286.31	-0.000
286.52	-0.000
286.73	-0.000
286.94	-0.000
287.15	-0.000
287.37	-0.000
287.58	-0.000
287.79	-0.000
288.00	-0.000
288.21	-0.000
288.42	-0.000
288.63	-0.000
288.85	-0.000
289.06	-0.000
289.27	-0.000
289.48	-0.000
289.69	-0.000
289.90	-0.000
290.11	-0.000
290.33	-0.000
290.54	-0.000
290.75	-0.000
290.96	-0.000
291.17	-0.000
291.38	-0.000
291.59	-0.000
291.81	-0.000
292.02	-0.000
292.23	-0.000
292.44	-0.000
292.65	-0.000
292.86	-0.000
293.07	-0.000
293.28	-0.000
293.50	-0.000
293.71	-0.000
293.92	-0.000
294.13	-0.000
294.34	-0.000
294.55	-0.000
294.76	-0.000
294.97	-0.000
295.19	-0.000
295.40	-0.000
295.61	-0.000
295.82	-0.000
296.03	-0.000
296.24	-0.000
296.45	2.219
296.66	1.791
296.87	1.824
297.09	1.905
297.30	2.141
297.51	1.741
297.72	1.709
297.93	1.812
298.14	1.775
298.35	1.742
298.56	1.704
298.77	1.864
298.99	1.843
299.20	1.801
299.41	1.770
299.62	1.719
299.83	1.711
300.04	1.636
300.25	1.622
300.46	1.674
300.67	1.638
300.88	1.581
301.10	1.588
301.31	1.666
301.52	1.603
301.73	1.540
301.94	1.544
302.15	1.562
302.36	1.510
302.57	1.442
302.78	1.442
302.99	1.484
303.20	1.503
303.41	1.405
303.63	1.387
303.84	1.392
304.05	1.389
304.26	1.328
304.47	1.333
304.68	1.337
304.89	1.327
305.10	1.288
305.31	1.279
305.52	1.325
305.73	1.318
305.94	1.277
306.15	1.269
306.37	1.294
306.58	1.303
306.79	1.274
307.00	1.298
307.21	1.343
307.42	1.334
307.63	1.293
307.84	1.256
308.05	1.293
308.26	1.292
308.47	1.270
308.68	1.265
308.89	1.267
309.10	1.262
309.31	1.218
309.52	1.208
309.73	1.226
309.95	1.221
310.16	1.194
310.37	1.183
310.58	1.205
310.79	1.199
311.00	1.196
311.21	1.196
311.42	1.197
311.63	1.194
311.84	1.174
312.05	1.173
312.26	1.197
312.47	1.208
312.68	1.182
312.89	1.162
313.10	1.173
313.31	1.144
313.52	1.146
313.73	1.147
313.94	1.150
314.15	1.131
314.36	1.108
314.57	1.103
314.78	1.093
314.99	1.089
315.21	1.079
315.42	1.083
315.63	1.098
315.84	1.074
316.05	1.059
316.26	1.068
316.47	1.088
316.68	1.085
316.89	1.063
317.10	1.082
317.31	1.086
317.52	1.087
317.73	1.065
317.94	1.064
318.15	1.116
318.36	1.117
318.57	1.099
318.78	1.088
318.99	1.123
319.20	1.119
319.41	1.084
319.62	1.086
319.83	1.099
320.04	1.093
320.25	1.078
320.46	1.038
320.67	1.041
320.88	1.037
321.09	1.022
321.30	1.008
321.51	1.024
321.72	1.023
321.93	1.007
322.14	1.001
322.35	1.031
322.56	1.033
322.77	1.019
322.98	1.030
323.19	1.041
323.40	1.047
323.61	1.024
323.82	1.019
324.03	1.025
324.24	1.022
324.45	1.008
324.66	0.987
324.87	0.982
325.08	0.982
325.29	0.963
325.50	0.953
325.71	0.960
325.92	0.968
326.13	0.954
326.34	0.954
326.55	0.963
326.76	0.962
326.97	0.950
327.18	0.947
327.39	0.972
327.60	0.973
327.80	0.975
328.01	0.970
328.22	0.970
328.43	0.973
328.64	0.961
328.85	0.966
329.06	0.968
329.27	0.968
329.48	0.963
329.69	0.944
329.90	0.952
330.11	0.946
330.32	0.939
330.53	0.933
330.74	0.933
330.95	0.931
331.16	0.915
331.37	0.923
331.58	0.924
331.79	0.923
332.00	0.915
332.21	0.908
332.42	0.913
332.63	0.904
332.83	0.900
333.04	0.902
333.25	0.915
333.46	0.915
333.67	0.901
333.88	0.902
334.09	0.913
334.30	0.909
334.51	0.901
334.72	0.895
334.93	0.900
335.14	0.898
335.35	0.891
335.56	0.886
335.77	0.895
335.98	0.894
336.18	0.888
336.39	0.880
336.60	0.885
336.81	0.883
337.02	0.883
337.23	0.887
337.44	0.890
337.65	0.892
337.86	0.882
338.07	0.876
338.28	0.881
338.49	0.879
338.70	0.872
338.91	0.878
339.11	0.887
339.32	0.884
339.53	0.872
339.74	0.870
339.95	0.866
340.16	0.864
340.37	0.856
340.58	0.854
340.79	0.857
341.00	0.857
341.21	0.847
341.41	0.846
341.62	0.847
341.83	0.847
342.04	0.842
342.25	0.853
342.46	0.858
342.67	0.856
342.88	0.849
343.09	0.848
343.30	0.854
343.50	0.857
343.71	0.847
343.92	0.845
344.13	0.849
344.34	0.849
344.55	0.833
344.76	0.832
344.97	0.837
345.18	0.836
345.38	0.833
345.59	0.827
345.80	0.826
346.01	0.825
346.22	0.820
346.43	0.814
346.64	0.822
346.85	0.821
347.06	0.814
347.26	0.815
347.47	0.819
347.68	0.814
347.89	0.810
348.10	0.805
348.31	0.812
348.52	0.812
348.73	0.809
348.93	0.806
349.14	0.809
349.35	0.807
349.56	0.800
349.77	0.796
349.98	0.803
350.19	0.801
350.39	0.796
350.60	0.791
350.81	0.808
351.02	0.807
351.23	0.801
351.44	0.804
351.65	0.807
351.86	0.805
352.06	0.803
352.27	0.802
352.48	0.804
352.69	0.804
352.90	0.799
353.11	0.784
353.31	0.791
353.52	0.788
353.73	0.779
353.94	0.780
354.15	0.786
354.36	0.786
354.57	0.778
354.77	0.779
354.98	0.779
355.19	0.777
355.40	0.776
355.61	0.782
355.82	0.786
356.02	0.787
356.23	0.780
356.44	0.781
356.65	0.785
356.86	0.786
357.07	0.779
357.27	0.782
357.48	0.786
357.69	0.782
357.90	0.767
358.11	0.763
358.32	0.767
358.52	0.769
358.73	0.760
358.94	0.762
359.15	0.766
359.36	0.767
359.56	0.762
359.77	0.759
359.98	0.766
360.19	0.766
360.40	0.763
360.61	0.763
360.81	0.761
361.02	0.761
361.23	0.753
361.44	0.751
361.65	0.752
361.85	0.751
362.06	0.749
362.27	0.751
362.48	0.751
362.69	0.754
362.89	0.747
363.10	0.749
363.31	0.755
363.52	0.758
363.73	0.753
363.93	0.753
364.14	0.755
364.35	0.757
364.56	0.747
364.77	0.748
364.97	0.750
365.18	0.750
365.39	0.745
365.60	0.741
365.81	0.742
366.01	0.742
366.22	0.739
366.43	0.739
366.64	0.742
366.84	0.747
367.05	0.744
367.26	0.744
367.47	0.746
367.68	0.746
367.88	0.743
368.09	0.741
368.30	0.744
368.51	0.743
368.71	0.742
368.92	0.746
369.13	0.743
369.34	0.742
369.55	0.741
369.75	0.742
369.96	0.749
370.17	0.748
370.38	0.744
370.58	0.744
370.79	0.750
371.00	0.748
371.21	0.739
371.41	0.745
371.62	0.750
371.83	0.745
372.04	0.742
372.24	0.735
372.45	0.735
372.66	0.736
372.87	0.732
373.07	0.729
373.28	0.729
373.49	0.732
373.70	0.723
373.90	0.722
374.11	0.731
374.32	0.731
374.53	0.730
374.73	0.731
374.94	0.734
375.15	0.734
375.36	0.732
375.56	0.740
375.77	0.741
375.98	0.741
376.19	0.739
376.39	0.732
376.60	0.736
376.81	0.737
377.02	0.734
377.22	0.733
377.43	0.732
377.64	0.733
377.84	0.724
378.05	0.728
378.26	0.734
378.47	0.733
378.67	0.730
378.88	0.726
379.09	0.727
379.30	0.726
379.50	0.724
379.71	0.727
379.92	0.730
380.12	0.729
380.33	0.721
380.54	0.717
380.75	0.724
380.95	0.724
381.16	0.722
381.37	0.723
381.57	0.725
381.78	0.725
381.99	0.725
382.20	0.725
382.40	0.728
382.61	0.729
382.82	0.725
383.02	0.718
383.23	0.721
383.44	0.721
383.64	0.719
383.85	0.721
384.06	0.724
384.27	0.722
384.47	0.720
384.68	0.720
384.89	0.725
385.09	0.725
385.30	0.724
385.51	0.724
385.71	0.727
385.92	0.727
386.13	0.725
386.33	0.727
386.54	0.728
386.75	0.727
386.95	0.723
387.16	0.718
387.37	0.721
387.58	0.721
387.78	0.719
387.99	0.716
388.20	0.718
388.40	0.716
388.61	0.712
388.82	0.715
389.02	0.717
389.23	0.718
389.44	0.716
389.64	0.717
389.85	0.727
390.06	0.727
390.26	0.728
390.47	0.728
390.68	0.730
390.88	0.728
391.09	0.724
391.30	0.722
391.50	0.723
391.71	0.723
391.92	0.720
392.12	0.712
392.33	0.713
392.53	0.712
392.74	0.713
392.95	0.712
393.15	0.715
393.36	0.717
393.57	0.715
393.77	0.718
393.98	0.720
394.19	0.721
394.39	0.720
394.60	0.721
394.81	0.723
395.01	0.720
395.22	0.719
395.43	0.719
395.63	0.724
395.84	0.726
396.04	0.722
396.25	0.724
396.46	0.726
396.66	0.725
396.87	0.722
397.08	0.719
397.28	0.721
397.49	0.723
397.69	0.719
397.90	0.714
398.11	0.715
398.31	0.716
398.52	0.712
398.73	0.712
398.93	0.711
399.14	0.710
399.34	0.709
399.55	0.710
399.76	0.710
399.96	0.711
400.17	0.710
400.37	0.708
400.58	0.714
400.79	0.716
400.99	0.713
401.20	0.719
401.41	0.722
401.61	0.723
401.82	0.728
402.02	0.728
402.23	0.729
402.44	0.729
402.64	0.729
402.85	0.724
403.05	0.723
403.26	0.722
403.47	0.716
403.67	0.715
403.88	0.716
404.08	0.710
404.29	0.708
404.50	0.707
404.70	0.708
404.91	0.706
405.11	0.704
405.32	0.704
405.52	0.705
405.73	0.705
405.94	0.703
406.14	0.705
406.35	0.707
406.55	0.708
406.76	0.705
406.97	0.706
407.17	0.709
407.38	0.708
407.58	0.707
407.79	0.710
407.99	0.712
408.20	0.713
408.41	0.709
408.61	0.707
408.82	0.708
409.02	0.708
409.23	0.706
409.43	0.704
409.64	0.706
409.84	0.705
410.05	0.701
410.26	0.700
410.46	0.699
410.67	0.699
410.87	0.700
411.08	0.702
411.28	0.703
411.49	0.705
411.69	0.703
411.90	0.704
412.11	0.707
412.31	0.708
412.52	0.706
412.72	0.707
412.93	0.708
413.13	0.707
413.34	0.703
413.54	0.705
413.75	0.706
413.95	0.706
414.16	0.703
414.37	0.705
414.57	0.705
414.78	0.707
414.98	0.705
415.19	0.707
415.39	0.704
415.60	0.706
415.80	0.706
416.01	0.704
416.21	0.706
416.42	0.706
416.62	0.701
416.83	0.702
417.03	0.701
417.24	0.701
417.44	0.698
417.65	0.698
417.86	0.698
418.06	0.696
418.27	0.693
418.47	0.696
418.68	0.696
418.88	0.696
419.09	0.694
419.29	0.694
419.50	0.695
419.70	0.694
419.91	0.693
420.11	0.691
420.32	0.693
420.52	0.692
420.73	0.691
420.93	0.692
421.14	0.694
421.34	0.692
421.55	0.689
421.75	0.689
421.96	0.690
422.16	0.691
422.37	0.690
422.57	0.687
422.78	0.688
422.98	0.685
423.19	0.683
423.39	0.681
423.60	0.685
423.80	0.687
424.01	0.685
424.21	0.687
424.42	0.688
424.62	0.689
424.83	0.688
425.03	0.688
425.23	0.690
425.44	0.690
425.64	0.689
425.85	0.688
426.05	0.689
426.26	0.689
426.46	0.686
426.67	0.685
426.87	0.690
427.08	0.691
427.28	0.689
427.49	0.690
427.69	0.692
427.90	0.691
428.10	0.688
428.31	0.689
428.51	0.690
428.71	0.689
428.92	0.691
429.12	0.687
429.33	0.688
429.53	0.692
429.74	0.696
429.94	0.696
430.15	0.696
430.35	0.695
430.56	0.692
430.76	0.691
430.96	0.691
431.17	0.687
431.37	0.684
431.58	0.683
431.78	0.680
431.99	0.673
432.19	0.674
432.40	0.676
432.60	0.676
432.80	0.679
433.01	0.678
433.21	0.678
433.42	0.681
433.62	0.682
433.83	0.681
434.03	0.684
434.23	0.687
434.44	0.686
434.64	0.683
434.85	0.689
435.05	0.689
435.26	0.689
435.46	0.687
435.66	0.686
435.87	0.686
436.07	0.686
436.28	0.682
436.48	0.679
436.69	0.678
436.89	0.678
437.09	0.672
437.30	0.671
437.50	0.671
437.71	0.683
437.91	0.682
438.11	0.684
438.32	0.687
438.52	0.687
438.73	0.686
438.93	0.685
439.13	0.685
439.34	0.688
439.54	0.685
439.75	0.685
439.95	0.675
440.15	0.679
440.36	0.678
440.56	0.676
440.77	0.677
440.97	0.677
441.17	0.676
441.38	0.678
441.58	0.675
441.79	0.675
441.99	0.674
442.19	0.672
442.40	0.670
442.60	0.670
442.81	0.668
443.01	0.668
443.21	0.669
443.42	0.668
443.62	0.666
443.82	0.666
444.03	0.667
444.23	0.667
444.44	0.667
444.64	0.666
444.84	0.667
445.05	0.667
445.25	0.664
445.45	0.664
445.66	0.666
445.86	0.665
446.06	0.667
446.27	0.667
446.47	0.670
446.68	0.668
446.88	0.667
447.08	0.667
447.29	0.669
447.49	0.669
447.69	0.669
447.90	0.668
448.10	0.672
448.30	0.669
448.51	0.669
448.71	0.667
448.91	0.669
449.12	0.668
449.32	0.670
449.52	0.669
449.73	0.673
449.93	0.672
450.14	0.672
450.34	0.672
450.54	0.674
450.75	0.672
450.95	0.671
451.15	0.671
451.36	0.674
451.56	0.670
451.76	0.669
451.97	0.666
452.17	0.667
452.37	0.665
452.58	0.662
452.78	0.661
452.98	0.663
453.19	0.662
453.39	0.662
453.59	0.660
453.79	0.662
454.00	0.662
454.20	0.661
454.40	0.661
454.61	0.663
454.81	0.664
455.01	0.662
455.22	0.662
455.42	0.664
455.62	0.662
455.83	0.662
456.03	0.664
456.23	0.665
456.44	0.666
456.64	0.665
456.84	0.666
457.04	0.666
457.25	0.665
457.45	0.662
457.65	0.661
457.86	0.662
458.06	0.661
458.26	0.657
458.47	0.656
458.67	0.657
458.87	0.657
459.07	0.654
459.28	0.656
459.48	0.658
459.68	0.658
459.89	0.657
460.09	0.656
460.29	0.657
460.49	0.659
460.70	0.658
460.90	0.657
461.10	0.658
461.31	0.658
461.51	0.655
461.71	0.656
461.91	0.657
462.12	0.657
462.32	0.656
462.52	0.657
462.72	0.660
462.93	0.661
463.13	0.660
463.33	0.660
463.53	0.662
463.74	0.661
463.94	0.657
464.14	0.657
464.35	0.659
464.55	0.659
464.75	0.657
464.95	0.655
465.16	0.656
465.36	0.654
465.56	0.653
465.76	0.652
465.97	0.652
466.17	0.653
466.37	0.651
466.57	0.652
466.78	0.653
466.98	0.653
467.18	0.651
467.38	0.650
467.59	0.651
467.79	0.653
467.99	0.652
468.19	0.653
468.39	0.657
468.60	0.657
468.80	0.654
469.00	0.655
469.20	0.656
469.41	0.657
469.61	0.656
469.81	0.657
470.01	0.656
470.22	0.657
470.42	0.655
470.62	0.653
470.82	0.654
471.02	0.654
471.23	0.652
471.43	0.652
471.63	0.654
471.83	0.654
472.04	0.653
472.24	0.652
472.44	0.656
472.64	0.657
472.84	0.655
473.05	0.655
473.25	0.658
473.45	0.657
473.65	0.655
473.85	0.656
474.06	0.657
474.26	0.656
474.46	0.657
474.66	0.654
474.86	0.655
475.07	0.655
475.27	0.653
475.47	0.650
475.67	0.651
475.87	0.653
476.08	0.649
476.28	0.651
476.48	0.652
476.68	0.651
476.88	0.649
477.09	0.650
477.29	0.652
477.49	0.652
477.69	0.651
477.89	0.651
478.09	0.651
478.30	0.653
478.50	0.650
478.70	0.649
478.90	0.650
479.10	0.653
479.31	0.654
479.51	0.652
479.71	0.653
479.91	0.653
480.11	0.651
480.31	0.652
480.52	0.650
480.72	0.650
480.92	0.649
481.12	0.647
481.32	0.644
481.52	0.642
481.72	0.643
481.93	0.646
482.13	0.647
482.33	0.647
482.53	0.645
482.73	0.646
482.93	0.647
483.14	0.646
483.34	0.646
483.54	0.647
483.74	0.646
483.94	0.645
484.14	0.640
484.34	0.640
484.55	0.641
484.75	0.641
484.95	0.639
485.15	0.638
485.35	0.639
485.55	0.638
485.75	0.636
485.96	0.636
486.16	0.638
486.36	0.638
486.56	0.636
486.76	0.636
486.96	0.636
487.16	0.635
487.36	0.634
487.57	0.633
487.77	0.634
487.97	0.635
488.17	0.633
488.37	0.632
488.57	0.633
488.77	0.632
488.97	0.631
489.18	0.631
489.38	0.634
489.58	0.634
489.78	0.634
489.98	0.633
490.18	0.633
490.38	0.634
490.58	0.632
490.78	0.633
490.98	0.635
491.19	0.636
491.39	0.635
491.59	0.633
491.79	0.636
491.99	0.636
492.19	0.636
492.39	0.639
492.59	0.639
492.79	0.641
492.99	0.641
493.20	0.641
493.40	0.641
493.60	0.643
493.80	0.641
494.00	0.639
494.20	0.639
494.40	0.639
494.60	0.637
494.80	0.641
495.00	0.640
495.20	0.638
495.40	0.637
495.61	0.638
495.81	0.638
496.01	0.641
496.21	0.642
496.41	0.642
496.61	0.642
496.81	0.641
497.01	0.636
497.21	0.635
497.41	0.637
497.61	0.637
497.81	0.634
498.01	0.634
498.21	0.633
498.41	0.630
498.61	0.630
498.82	0.631
499.02	0.634
499.22	0.634
499.42	0.633
499.62	0.634
499.82	0.635
500.02	0.636
500.22	0.634
500.42	0.636
500.62	0.637
500.82	0.638
501.02	0.636
501.22	0.637
501.42	0.637
501.62	0.639
501.82	0.638
502.02	0.638
502.22	0.638
502.42	0.640
502.62	0.637
502.82	0.637
503.02	0.638
503.22	0.638
503.42	0.636
503.63	0.636
503.83	0.634
504.03	0.633
504.23	0.632
504.43	0.632
504.63	0.633
504.83	0.633
505.03	0.632
505.23	0.633
505.43	0.635
505.63	0.635
505.83	0.634
506.03	0.636
506.23	0.638
506.43	0.638
506.63	0.637
506.83	0.636
507.03	0.637
507.23	0.638
507.43	0.635
507.63	0.636
507.83	0.636
508.03	0.637
508.23	0.636
508.43	0.634
508.63	0.636
508.83	0.637
509.03	0.638
509.23	0.637
509.43	0.638
509.63	0.638
509.83	0.636
510.03	0.639
510.23	0.640
510.43	0.641
510.63	0.641
510.83	0.641
511.03	0.642
511.23	0.640
511.43	0.640
511.63	0.641
511.83	0.644
512.03	0.644
512.22	0.641
512.42	0.640
512.62	0.641
512.82	0.641
513.02	0.640
513.22	0.640
513.42	0.641
513.62	0.645
513.82	0.643
514.02	0.642
514.22	0.643
514.42	0.643
514.62	0.643
514.82	0.644
515.02	0.646
515.22	0.649
515.42	0.647
515.62	0.650
515.82	0.648
516.02	0.650
516.22	0.650
516.42	0.651
516.62	0.653
516.82	0.653
517.01	0.651
517.21	0.651
517.41	0.654
517.61	0.654
517.81	0.650
518.01	0.650
518.21	0.650
518.41	0.649
518.61	0.648
518.81	0.648
519.01	0.650
519.21	0.650
519.41	0.649
519.61	0.644
519.81	0.646
520.00	0.646
520.20	0.646
520.40	0.649
520.60	0.650
520.80	0.650
521.00	0.649
521.20	0.650
521.40	0.655
521.60	0.656
521.80	0.654
522.00	0.655
522.20	0.657
522.39	0.657
522.59	0.654
522.79	0.655
522.99	0.657
523.19	0.655
523.39	0.653
523.59	0.651
523.79	0.654
523.99	0.657
524.19	0.656
524.38	0.655
524.58	0.656
524.78	0.656
524.98	0.655
525.18	0.657
525.38	0.658
525.58	0.658
525.78	0.656
525.98	0.654
526.18	0.655
526.37	0.653
526.57	0.655
526.77	0.655
526.97	0.656
527.17	0.655
527.37	0.652
527.57	0.654
527.77	0.657
527.96	0.657
528.16	0.655
528.36	0.657
528.56	0.659
528.76	0.657
528.96	0.655
529.16	0.657
529.36	0.660
529.55	0.660
529.75	0.657
529.95	0.657
530.15	0.658
530.35	0.660
530.55	0.657
530.75	0.657
530.94	0.659
531.14	0.660
531.34	0.658
531.54	0.656
531.74	0.659
531.94	0.662
532.13	0.660
532.33	0.662
532.53	0.661
532.73	0.661
532.93	0.660
533.13	0.661
533.33	0.661
533.52	0.661
533.72	0.664
533.92	0.662
534.12	0.660
534.32	0.661
534.52	0.659
534.71	0.661
534.91	0.664
535.11	0.665
535.31	0.662
535.51	0.664
535.71	0.666
535.90	0.663
536.10	0.664
536.30	0.666
536.50	0.667
536.70	0.667
536.89	0.664
537.09	0.664
537.29	0.665
537.49	0.666
537.69	0.664
537.89	0.665
538.08	0.665
538.28	0.663
538.48	0.663
538.68	0.664
538.88	0.666
539.07	0.666
539.27	0.665
539.47	0.664
539.67	0.664
539.87	0.666
540.06	0.663
540.26	0.663
540.46	0.666
540.66	0.663
540.86	0.661
541.05	0.661
541.25	0.663
541.45	0.663
541.65	0.662
541.84	0.664
542.04	0.664
542.24	0.665
542.44	0.665
542.64	0.666
542.83	0.668
543.03	0.668
543.23	0.666
543.43	0.667
543.62	0.668
543.82	0.668
544.02	0.666
544.22	0.666
544.42	0.670
544.61	0.670
544.81	0.666
545.01	0.665
545.21	0.667
545.40	0.668
545.60	0.665
545.80	0.669
546.00	0.669
546.19	0.669
546.39	0.667
546.59	0.665
546.79	0.666
546.98	0.667
547.18	0.667
547.38	0.667
547.58	0.669
547.77	0.670
547.97	0.667
548.17	0.668
548.37	0.669
548.56	0.669
548.76	0.669
548.96	0.670
549.16	0.673
549.35	0.673
549.55	0.671
549.75	0.672
549.95	0.675
550.14	0.676
550.34	0.673
550.54	0.678
550.73	0.682
550.93	0.682
551.13	0.680
551.33	0.678
551.52	0.678
551.72	0.679
551.92	0.677
552.12	0.677
552.31	0.678
552.51	0.678
552.71	0.673
552.90	0.673
553.10	0.674
553.30	0.673
553.50	0.673
553.69	0.674
553.89	0.675
554.09	0.675
554.28	0.672
554.48	0.673
554.68	0.675
554.87	0.675
555.07	0.672
555.27	0.672
555.47	0.674
555.66	0.675
555.86	0.673
556.06	0.675
556.25	0.677
556.45	0.684
556.65	0.682
556.84	0.685
557.04	0.688
557.24	0.690
557.43	0.690
557.63	0.692
557.83	0.693
558.02	0.695
558.22	0.698
558.42	0.699
558.61	0.692
558.81	0.692
559.01	0.689
559.21	0.689
559.40	0.689
559.60	0.690
559.80	0.686
559.99	0.687
560.19	0.689
560.39	0.684
560.58	0.682
560.78	0.682
560.97	0.686
561.17	0.684
561.37	0.681
561.56	0.682
561.76	0.683
561.96	0.683
562.15	0.681
562.35	0.683
562.55	0.685
562.74	0.684
562.94	0.683
563.14	0.681
563.33	0.683
563.53	0.683
563.73	0.681
563.92	0.682
564.12	0.684
564.31	0.687
564.51	0.685
564.71	0.686
564.90	0.689
565.10	0.690
565.30	0.692
565.49	0.693
565.69	0.695
565.89	0.696
566.08	0.693
566.28	0.695
566.47	0.696
566.67	0.694
566.87	0.691
567.06	0.693
567.26	0.699
567.46	0.695
567.65	0.694
567.85	0.695
568.04	0.698
568.24	0.697
568.44	0.693
568.63	0.692
568.83	0.694
569.02	0.692
569.22	0.688
569.42	0.684
569.61	0.686
569.81	0.685
570.00	0.683
570.20	0.684
570.40	0.685
570.59	0.685
570.79	0.683
570.98	0.682
571.18	0.684
571.38	0.683
571.57	0.680
571.77	0.678
571.96	0.682
572.16	0.679
572.35	0.674
572.55	0.675
572.75	0.673
572.94	0.673
573.14	0.671
573.33	0.671
573.53	0.672
573.73	0.671
573.92	0.669
574.12	0.667
574.31	0.670
574.51	0.670
574.70	0.667
574.90	0.670
575.09	0.672
575.29	0.672
575.49	0.670
575.68	0.670
575.88	0.672
576.07	0.674
576.27	0.672
576.46	0.670
576.66	0.670
576.86	0.669
577.05	0.667
577.25	0.665
577.44	0.666
577.64	0.666
577.83	0.664
578.03	0.665
578.22	0.664
578.42	0.663
578.61	0.661
578.81	0.662
579.00	0.662
579.20	0.662
579.40	0.661
579.59	0.660
579.79	0.660
579.98	0.660
580.18	0.659
580.37	0.660
580.57	0.662
580.76	0.667
580.96	0.665
581.15	0.666
581.35	0.669
581.54	0.668
581.74	0.667
581.93	0.669
582.13	0.670
582.32	0.667
582.52	0.665
582.71	0.664
582.91	0.661
583.10	0.660
583.30	0.659
583.49	0.657
583.69	0.661
583.88	0.663
584.08	0.661
584.27	0.663
584.47	0.667
584.66	0.667
584.86	0.666
585.05	0.668
585.25	0.671
585.44	0.670
585.64	0.669
585.83	0.666
586.03	0.666
586.22	0.665
586.42	0.661
586.61	0.662
586.81	0.665
587.00	0.664
587.20	0.662
587.39	0.662
587.59	0.665
587.78	0.666
587.98	0.666
588.17	0.667
588.37	0.670
588.56	0.672
588.76	0.668
588.95	0.668
589.15	0.672
589.34	0.674
589.54	0.672
589.73	0.673
589.92	0.677
590.12	0.676
590.31	0.674
590.51	0.679
590.70	0.681
590.90	0.681
591.09	0.679
591.29	0.677
591.48	0.677
591.68	0.678
591.87	0.676
592.06	0.675
592.26	0.678
592.45	0.678
592.65	0.671
592.84	0.670
593.04	0.673
593.23	0.675
593.43	0.673
593.62	0.673
593.81	0.674
594.01	0.673
594.20	0.670
594.40	0.669
594.59	0.671
594.79	0.672
594.98	0.671
595.17	0.670
595.37	0.671
595.56	0.673
595.76	0.672
595.95	0.674
596.14	0.677
596.34	0.679
596.53	0.677
596.73	0.678
596.92	0.679
597.12	0.682
597.31	0.681
597.50	0.680
597.70	0.682
597.89	0.681
598.09	0.677
598.28	0.679
598.47	0.682
598.67	0.680
598.86	0.677
599.06	0.679
599.25	0.679
599.44	0.677
599.64	0.674
599.83	0.672
600.03	0.675
600.22	0.676
600.41	0.676
600.61	0.673
600.80	0.676
601.00	0.676
601.19	0.672
601.38	0.671
601.58	0.674
601.77	0.676
601.96	0.678
602.16	0.679
602.35	0.687
602.55	0.684
602.74	0.685
602.93	0.686
603.13	0.691
603.32	0.692
603.51	0.692
603.71	0.694
603.90	0.695
604.09	0.696
604.29	0.692
604.48	0.687
604.68	0.689
604.87	0.688
605.06	0.684
605.26	0.681
605.45	0.681
605.64	0.681
605.84	0.676
606.03	0.674
606.22	0.674
606.42	0.674
606.61	0.671
606.80	0.670
607.00	0.672
607.19	0.673
607.38	0.671
607.58	0.672
607.77	0.675
607.96	0.675
608.16	0.674
608.35	0.678
608.54	0.680
608.74	0.684
608.93	0.689
609.12	0.691
609.32	0.693
609.51	0.697
609.70	0.695
609.90	0.697
610.09	0.701
610.28	0.706
610.48	0.699
610.67	0.700
610.86	0.701
611.06	0.695
611.25	0.693
611.44	0.694
611.64	0.693
611.83	0.697
612.02	0.694
612.21	0.692
612.41	0.692
612.60	0.691
612.79	0.687
612.99	0.687
613.18	0.689
613.37	0.687
613.57	0.684
613.76	0.686
613.95	0.684
614.14	0.683
614.34	0.680
614.53	0.681
614.72	0.684
614.92	0.685
615.11	0.682
615.30	0.679
615.49	0.680
615.69	0.683
615.88	0.679
616.07	0.681
616.26	0.683
616.46	0.684
616.65	0.680
616.84	0.679
617.04	0.681
617.23	0.684
617.42	0.684
617.61	0.689
617.81	0.689
618.00	0.691
618.19	0.689
618.38	0.694
618.58	0.697
618.77	0.699
618.96	0.698
619.15	0.699
619.35	0.701
619.54	0.701
619.73	0.697
619.92	0.699
620.12	0.703
620.31	0.703
620.50	0.697
620.69	0.697
620.89	0.700
621.08	0.701
621.27	0.701
621.46	0.700
621.66	0.704
621.85	0.703
622.04	0.699
622.23	0.700
622.43	0.701
622.62	0.701
622.81	0.701
623.00	0.700
623.19	0.703
623.39	0.701
623.58	0.698
623.77	0.697
623.96	0.701
624.16	0.700
624.35	0.695
624.54	0.697
624.73	0.701
624.92	0.699
625.12	0.696
625.31	0.697
625.50	0.700
625.69	0.702
625.88	0.697
626.08	0.697
626.27	0.698
626.46	0.699
626.65	0.696
626.84	0.696
627.04	0.702
627.23	0.702
627.42	0.698
627.61	0.699
627.80	0.702
628.00	0.702
628.19	0.701
628.38	0.705
628.57	0.707
628.76	0.706
628.96	0.702
629.15	0.703
629.34	0.706
629.53	0.706
629.72	0.700
629.91	0.701
630.11	0.706
630.30	0.706
630.49	0.708
630.68	0.709
630.87	0.712
631.06	0.714
631.26	0.709
631.45	0.710
631.64	0.718
631.83	0.720
632.02	0.717
632.21	0.716
632.41	0.723
632.60	0.718
632.79	0.717
632.98	0.717
633.17	0.719
633.36	0.721
633.55	0.717
633.75	0.714
633.94	0.715
634.13	0.715
634.32	0.712
634.51	0.706
634.70	0.708
634.89	0.707
635.09	0.704
635.28	0.704
635.47	0.706
635.66	0.709
635.85	0.704
636.04	0.705
636.23	0.710
636.43	0.712
636.62	0.711
636.81	0.709
637.00	0.711
637.19	0.715
637.38	0.711
637.57	0.711
637.76	0.713
637.95	0.715
638.15	0.712
638.34	0.709
638.53	0.712
638.72	0.714
638.91	0.712
639.10	0.711
639.29	0.711
639.48	0.712
639.67	0.712
639.87	0.709
640.06	0.715
640.25	0.713
640.44	0.714
640.63	0.714
640.82	0.716
641.01	0.715
641.20	0.715
641.39	0.716
641.58	0.718
641.78	0.717
641.97	0.713
642.16	0.727
642.35	0.728
642.54	0.726
642.73	0.720
642.92	0.719
643.11	0.721
643.30	0.721
643.49	0.716
643.68	0.718
643.87	0.720
644.06	0.720
644.25	0.700
644.45	0.704
644.64	0.705
644.83	0.707
645.02	0.703
645.21	0.704
645.40	0.705
645.59	0.704
645.78	0.698
645.97	0.700
646.16	0.702
646.35	0.702
646.54	0.699
646.73	0.701
646.92	0.702
647.11	0.702
647.30	0.697
647.49	0.699
647.68	0.699
647.88	0.698
648.07	0.692
648.26	0.695
648.45	0.698
648.64	0.694
648.83	0.692
649.02	0.694
649.21	0.704
649.40	0.703
649.59	0.698
649.78	0.701
649.97	0.715
650.16	0.715
650.35	0.708
650.54	0.710
650.73	0.718
650.92	0.715
651.11	0.707
651.30	0.705
651.49	0.710
651.68	0.710
651.87	0.706
652.06	0.695
652.25	0.698
652.44	0.701
652.63	0.698
652.82	0.697
653.01	0.698
653.20	0.697
653.39	0.685
653.58	0.683
653.77	0.682
653.96	0.678
654.15	0.669
654.34	0.668
654.53	0.664
654.72	0.658
654.91	0.649
655.10	0.645
655.29	0.644
655.48	0.642
655.67	0.637
655.86	0.634
656.05	0.633
656.24	0.632
656.43	0.627
656.62	0.626
656.81	0.626
657.00	0.624
657.19	0.621
657.38	0.621
657.57	0.620
657.76	0.622
657.95	0.620
658.14	0.623
658.33	0.626
658.51	0.631
658.70	0.631
658.89	0.632
659.08	0.641
659.27	0.648
659.46	0.648
659.65	0.654
659.84	0.658
660.03	0.662
660.22	0.663
660.41	0.665
660.60	0.666
660.79	0.667
660.98	0.673
661.17	0.673
661.36	0.673
661.55	0.674
661.74	0.672
661.92	0.674
662.11	0.676
662.30	0.675
662.49	0.669
662.68	0.668
662.87	0.671
663.06	0.665
663.25	0.665
663.44	0.665
663.63	0.665
663.82	0.663
664.01	0.658
664.20	0.657
664.38	0.658
664.57	0.659
664.76	0.659
664.95	0.659
665.14	0.664
665.33	0.659
665.52	0.666
665.71	0.670
665.90	0.671
666.09	0.673
666.28	0.669
666.46	0.668
666.65	0.669
666.84	0.667
667.03	0.661
667.22	0.659
667.41	0.662
667.60	0.652
667.79	0.644
667.98	0.646
668.16	0.646
668.35	0.647
668.54	0.642
668.73	0.643
668.92	0.645
669.11	0.644
669.30	0.638
669.49	0.634
669.67	0.636
669.86	0.638
670.05	0.635
670.24	0.633
670.43	0.631
670.62	0.630
670.81	0.626
671.00	0.626
671.18	0.627
671.37	0.626
671.56	0.624
671.75	0.624
671.94	0.621
672.13	0.619
672.32	0.614
672.50	0.613
672.69	0.613
672.88	0.614
673.07	0.610
673.26	0.611
673.45	0.612
673.63	0.612
673.82	0.608
674.01	0.610
674.20	0.610
674.39	0.610
674.58	0.609
674.76	0.609
674.95	0.608
675.14	0.608
675.33	0.603
675.52	0.602
675.71	0.601
675.89	0.601
676.08	0.597
676.27	0.597
676.46	0.598
676.65	0.598
676.84	0.598
677.02	0.599
677.21	0.602
677.40	0.602
677.59	0.599
677.78	0.600
677.96	0.602
678.15	0.601
678.34	0.599
678.53	0.599
678.72	0.599
678.90	0.595
679.09	0.590
679.28	0.586
679.47	0.586
679.66	0.586
679.84	0.583
680.03	0.580
680.22	0.580
680.41	0.581
680.60	0.578
680.78	0.577
680.97	0.579
681.16	0.579
681.35	0.578
681.53	0.577
681.72	0.578
681.91	0.581
682.10	0.579
682.29	0.582
682.47	0.580
682.66	0.580
682.85	0.578
683.04	0.576
683.22	0.576
683.41	0.578
683.60	0.577
683.79	0.578
683.97	0.577
684.16	0.575
684.35	0.571
684.54	0.573
684.72	0.573
684.91	0.574
685.10	0.572
685.29	0.573
685.47	0.570
685.66	0.569
685.85	0.566
686.04	0.565
686.22	0.568
686.41	0.571
686.60	0.568
686.79	0.570
686.97	0.571
687.16	0.572
687.35	0.569
687.54	0.573
687.72	0.577
687.91	0.577
688.10	0.579
688.29	0.578
688.47	0.576
688.66	0.576
688.85	0.572
689.03	0.570
689.22	0.574
689.41	0.574
689.60	0.569
689.78	0.566
689.97	0.566
690.16	0.563
690.34	0.560
690.53	0.559
690.72	0.560
690.91	0.558
691.09	0.556
691.28	0.551
691.47	0.549
691.65	0.549
691.84	0.546
692.03	0.545
692.21	0.544
692.40	0.543
692.59	0.541
692.77	0.540
692.96	0.542
693.15	0.542
693.34	0.540
693.52	0.540
693.71	0.540
693.90	0.541
694.08	0.541
694.27	0.542
694.46	0.552
694.64	0.552
694.83	0.552
695.02	0.550
695.20	0.550
695.39	0.550
695.58	0.549
695.76	0.551
695.95	0.550
696.14	0.550
696.32	0.548
696.51	0.538
696.70	0.538
696.88	0.539
697.07	0.538
697.26	0.540
697.44	0.541
697.63	0.540
697.81	0.537
698.00	0.536
698.19	0.535
698.37	0.536
698.56	0.535
698.75	0.535
698.93	0.534
699.12	0.534
699.31	0.533
699.49	0.533
699.68	0.534
699.87	0.536
700.05	0.537
700.24	0.536
700.42	0.538
700.61	0.537
700.80	0.535
700.98	0.536
701.17	0.537
701.36	0.536
701.54	0.535
701.73	0.536
701.91	0.534
702.10	0.533
702.29	0.530
702.47	0.529
702.66	0.530
702.84	0.532
703.03	0.529
703.22	0.531
703.40	0.530
703.59	0.532
703.77	0.531
703.96	0.530
704.15	0.532
704.33	0.532
704.52	0.532
704.70	0.531
704.89	0.531
705.08	0.530
705.26	0.526
705.45	0.526
705.63	0.526
705.82	0.523
706.00	0.523
706.19	0.522
706.38	0.522
706.56	0.521
706.75	0.519
706.93	0.518
707.12	0.519
707.30	0.520
707.49	0.517
707.68	0.515
707.86	0.514
708.05	0.514
708.23	0.511
708.42	0.511
708.60	0.514
708.79	0.514
708.98	0.513
709.16	0.512
709.35	0.514
709.53	0.518
709.72	0.517
709.90	0.518
710.09	0.520
710.27	0.523
710.46	0.526
710.64	0.525
710.83	0.527
711.02	0.529
711.20	0.528
711.39	0.526
711.57	0.524
711.76	0.525
711.94	0.523
712.13	0.524
712.31	0.523
712.50	0.519
712.68	0.516
712.87	0.517
713.05	0.516
713.24	0.516
713.42	0.516
713.61	0.516
713.79	0.517
713.98	0.517
714.16	0.518
714.35	0.517
714.54	0.518
714.72	0.518
714.91	0.515
715.09	0.522
715.28	0.525
715.46	0.524
715.65	0.522
715.83	0.521
716.02	0.524
716.20	0.520
716.39	0.520
716.57	0.521
716.76	0.523
716.94	0.524
717.12	0.515
717.31	0.517
717.49	0.520
717.68	0.522
717.86	0.521
718.05	0.523
718.23	0.525
718.42	0.528
718.60	0.529
718.79	0.537
718.97	0.539
719.16	0.540
719.34	0.537
719.53	0.537
719.71	0.538
719.90	0.539
720.08	0.536
720.27	0.537
720.45	0.536
720.63	0.535
720.82	0.528
721.00	0.531
721.19	0.534
721.37	0.534
721.56	0.535
721.74	0.537
721.93	0.545
722.11	0.552
722.30	0.550
722.48	0.555
722.66	0.556
722.85	0.557
723.03	0.556
723.22	0.554
723.40	0.557
723.59	0.557
723.77	0.561
723.95	0.555
724.14	0.555
724.32	0.558
724.51	0.556
724.69	0.558
724.88	0.559
725.06	0.557
725.24	0.558
725.43	0.559
725.61	0.562
725.80	0.556
725.98	0.554
726.16	0.552
726.35	0.557
726.53	0.555
726.72	0.553
726.90	0.562
727.09	0.563
727.27	0.569
727.45	0.565
727.64	0.575
727.82	0.584
728.01	0.589
728.19	0.586
728.37	0.592
728.56	0.596
728.74	0.602
728.92	0.591
729.11	0.593
729.29	0.591
729.48	0.593
729.66	0.582
729.84	0.581
730.03	0.584
730.21	0.586
730.40	0.576
730.58	0.578
730.76	0.579
730.95	0.581
731.13	0.581
731.31	0.594
731.50	0.604
731.68	0.606
731.86	0.601
732.05	0.615
732.23	0.618
732.42	0.621
732.60	0.623
732.78	0.627
732.97	0.645
733.15	0.651
733.33	0.639
733.52	0.647
733.70	0.657
733.88	0.665
734.07	0.650
734.25	0.675
734.43	0.683
734.62	0.686
734.80	0.679
734.98	0.668
735.17	0.673
735.35	0.680
735.53	0.667
735.72	0.669
735.90	0.691
736.08	0.711
736.27	0.686
736.45	0.695
736.63	0.707
736.82	0.719
737.00	0.720
737.18	0.731
737.37	0.762
737.55	0.785
737.73	0.779
737.92	0.781
738.10	0.777
738.28	0.797
738.46	0.785
738.65	0.796
738.83	0.815
739.01	0.865
739.20	0.859
739.38	0.841
739.56	0.832
739.75	0.839
739.93	0.807
740.11	0.831
740.29	0.831
740.48	0.839
740.66	0.815
740.84	0.811
741.03	0.777
741.21	0.783
741.39	0.766
741.57	0.778
741.76	0.795
741.94	0.799
742.12	0.766
742.31	0.772
742.49	0.789
742.67	0.814
742.85	0.828
743.04	0.832
743.22	0.843
743.40	0.892
743.58	0.870
743.77	0.885
743.95	0.916
744.13	0.961
744.31	0.939
744.50	0.935
744.68	0.929
744.86	0.904
745.04	0.914
745.23	0.971
745.41	0.956
745.59	0.967
745.77	0.931
745.96	0.920
746.14	0.929
746.32	0.928
746.50	0.917
746.69	0.902
746.87	0.911
747.05	0.898
747.23	0.831
747.42	0.819
747.60	0.840
747.78	0.845
747.96	0.877
748.14	0.834
748.33	0.861
748.51	0.857
748.69	0.850
748.87	0.878
749.06	0.875
749.24	0.875
749.42	0.857
749.60	0.842
749.78	0.851
749.97	0.804
750.15	0.801
750.33	0.801
750.51	0.825
750.69	0.833
750.88	0.833
751.06	0.843
751.24	0.863
751.42	0.856
751.60	0.846
751.79	0.911
751.97	0.954
752.15	0.953
752.33	0.921
752.51	0.979
752.69	0.989
752.88	0.963
753.06	1.001
753.24	0.981
753.42	1.016
753.60	1.166
753.78	1.033
753.97	1.054
754.15	1.068
754.33	1.097
754.51	0.986
754.69	0.980
754.87	1.006
755.06	0.944
755.24	0.947
755.42	0.956
755.60	0.867
755.78	0.877
755.96	0.827
756.15	0.832
756.33	0.836
756.51	0.854
756.69	0.837
756.87	0.804
757.05	0.819
757.23	0.804
757.42	0.773
757.60	0.771
757.78	0.763
757.96	0.760
758.14	0.745
758.32	0.733
758.50	0.744
758.69	0.741
758.87	0.734
759.05	0.740
759.23	0.746
759.41	0.748
759.59	0.740
759.77	0.758
759.95	0.783
760.13	0.826
760.32	0.822
760.50	0.819
760.68	0.844
760.86	0.847
761.04	0.821
761.22	0.828
761.40	0.871
761.58	0.872
761.76	0.842
761.95	0.828
762.13	0.786
762.31	0.787
762.49	0.757
762.67	0.773
762.85	0.785
763.03	0.779
763.21	0.762
763.39	0.746
763.57	0.751
763.75	0.749
763.94	0.733
764.12	0.733
764.30	0.755
764.48	0.759
764.66	0.724
764.84	0.725
765.02	0.763
765.20	0.769
765.38	0.749
765.56	0.754
765.74	0.791
765.92	0.792
766.10	0.800
766.28	0.793
766.46	0.822
766.65	0.823
766.83	0.808
767.01	0.792
767.19	0.799
767.37	0.801
767.55	0.789
767.73	0.771
767.91	0.773
768.09	0.762
768.27	0.754
768.45	0.742
768.63	0.747
768.81	0.751
768.99	0.725
769.17	0.746
769.35	0.757
769.53	0.755
769.71	0.736
769.89	0.744
770.07	0.749
770.25	0.730
770.43	0.711
770.61	0.733
770.79	0.736
770.97	0.745
771.15	0.717
771.33	0.721
771.51	0.722
771.69	0.732
771.87	0.742
772.05	0.749
772.24	0.759
772.42	0.767
772.60	0.747
772.78	0.800
772.96	0.828
773.14	0.823
773.32	0.800
773.49	0.807
773.67	0.805
773.85	0.783
774.03	0.770
774.21	0.798
774.39	0.809
774.57	0.831
774.75	0.765
774.93	0.760
775.11	0.781
775.29	0.787
775.47	0.786
775.65	0.796
775.83	0.810
776.01	0.833
776.19	0.789
776.37	0.789
776.55	0.786
776.73	0.782
776.91	0.775
777.09	0.761
777.27	0.761
777.45	0.751
777.63	0.730
777.81	0.728
777.99	0.715
778.17	0.716
778.35	0.697
778.53	0.687
778.71	0.696
778.89	0.686
779.07	0.676
779.24	0.681
779.42	0.681
779.60	0.698
779.78	0.695
779.96	0.698
780.14	0.705
780.32	0.725
780.50	0.709
780.68	0.706
780.86	0.700
781.04	0.715
781.22	0.720
781.40	0.731
781.58	0.723
781.75	0.717
781.93	0.702
782.11	0.701
782.29	0.686
782.47	0.686
782.65	0.675
782.83	0.701
783.01	0.696
783.19	0.690
783.37	0.678
783.55	0.682
783.72	0.698
783.90	0.706
784.08	0.700
784.26	0.715
784.44	0.734
784.62	0.738
784.80	0.706
784.98	0.711
785.16	0.713
785.33	0.726
785.51	0.711
785.69	0.697
785.87	0.696
786.05	0.709
786.23	0.704
786.41	0.701
786.59	0.707
786.77	0.710
786.94	0.697
787.12	0.702
787.30	0.703
787.48	0.701
787.66	0.690
787.84	0.691
788.02	0.681
788.19	0.676
788.37	0.662
788.55	0.663
788.73	0.660
788.91	0.655
789.09	0.638
789.27	0.629
789.44	0.640
789.62	0.646
789.80	0.655
789.98	0.678
790.16	0.664
790.34	0.662
790.51	0.650
790.69	0.669
790.87	0.676
791.05	0.675
791.23	0.668
791.41	0.668
791.58	0.675
791.76	0.656
791.94	0.627
792.12	0.639
792.30	0.642
792.48	0.639
792.65	0.633
792.83	0.639
793.01	0.646
793.19	0.643
793.37	0.628
793.54	0.625
793.72	0.636
793.90	0.633
794.08	0.621
794.26	0.622
794.43	0.630
794.61	0.615
794.79	0.604
794.97	0.603
795.15	0.611
795.32	0.617
795.50	0.607
795.68	0.602
795.86	0.607
796.04	0.611
796.21	0.604
796.39	0.602
796.57	0.616
796.75	0.623
796.92	0.621
797.10	0.625
797.28	0.628
797.46	0.631
797.64	0.633
797.81	0.639
797.99	0.643
798.17	0.647
798.35	0.641
798.52	0.645
798.70	0.642
798.88	0.652
799.06	0.650
799.23	0.651
799.41	0.658
799.59	0.651
799.77	0.640
799.94	0.647
800.12	0.657
800.30	0.676
800.48	0.672
800.65	0.672
800.83	0.661
801.01	0.653
801.19	0.652
801.36	0.650
801.54	0.651
801.72	0.660
801.90	0.646
802.07	0.641
802.25	0.626
802.43	0.612
802.60	0.606
802.78	0.613
802.96	0.619
803.14	0.613
803.31	0.610
803.49	0.611
803.67	0.609
803.84	0.614
804.02	0.607
804.20	0.610
804.38	0.616
804.55	0.618
804.73	0.604
804.91	0.603
805.08	0.615
805.26	0.610
805.44	0.672
805.61	0.674
805.79	0.673
805.97	0.671
806.15	0.663
806.32	0.657
806.50	0.662
806.68	0.662
806.85	0.656
807.03	0.648
807.21	0.665
807.38	0.601
807.56	0.592
807.74	0.601
807.91	0.608
808.09	0.612
808.27	0.630
808.44	0.655
808.62	0.664
808.80	0.665
808.97	0.659
809.15	0.655
809.33	0.672
809.50	0.679
809.68	0.666
809.86	0.673
810.03	0.703
810.21	0.682
810.39	0.664
810.56	0.670
810.74	0.692
810.91	0.760
811.09	0.749
811.27	0.770
811.44	0.774
811.62	0.775
811.80	0.758
811.97	0.729
812.15	0.731
812.33	0.727
812.50	0.712
812.68	0.701
812.85	0.648
813.03	0.650
813.21	0.618
813.38	0.613
813.56	0.616
813.74	0.627
813.91	0.632
814.09	0.658
814.26	0.653
814.44	0.657
814.62	0.649
814.79	0.651
814.97	0.655
815.14	0.660
815.32	0.663
815.50	0.678
815.67	0.681
815.85	0.673
816.02	0.663
816.20	0.670
816.38	0.684
816.55	0.687
816.73	0.689
816.90	0.700
817.08	0.729
817.26	0.735
817.43	0.716
817.61	0.738
817.78	0.758
817.96	0.738
818.13	0.728
818.31	0.725
818.49	0.737
818.66	0.725
818.84	0.711
819.01	0.695
819.19	0.699
819.36	0.701
819.54	0.673
819.71	0.712
819.89	0.726
820.07	0.736
820.24	0.734
820.42	0.736
820.59	0.757
820.77	0.777
820.94	0.764
821.12	0.786
821.29	0.800
821.47	0.800
821.64	0.739
821.82	0.752
822.00	0.751
822.17	0.746
822.35	0.737
822.52	0.738
822.70	0.728
822.87	0.735
823.05	0.712
823.22	0.720
823.40	0.746
823.57	0.764
823.75	0.747
823.92	0.772
824.10	0.789
824.27	0.829
824.45	0.816
824.62	0.873
824.80	0.889
824.97	0.903
825.15	0.894
825.32	0.908
825.50	0.909
825.67	0.917
825.85	0.892
826.02	0.916
826.20	0.933
826.37	1.048
826.55	0.973
826.72	1.146
826.90	1.217
827.07	1.264
827.25	1.199
827.42	1.334
827.60	1.469
827.77	1.618
827.95	1.536
828.12	1.596
828.30	1.324
828.47	1.432
828.65	1.138
828.82	1.167
829.00	1.212
829.17	1.267
829.34	1.265
829.52	1.284
829.69	-0.000
829.87	-0.000
830.04	-0.000
830.22	-0.000
830.39	-0.000
830.57	-0.000
830.74	-0.000
830.92	-0.000
831.09	-0.000
831.26	-0.000
831.44	-0.000
831.61	-0.000
831.79	-0.000
831.96	-0.000
832.14	-0.000
832.31	-0.000
832.49	-0.000
832.66	-0.000
832.83	-0.000
833.01	-0.000
833.18	-0.000
833.36	-0.000
833.53	-0.000
833.70	-0.000
833.88	-0.000
834.05	-0.000
834.23	-0.000
834.40	-0.000
834.58	-0.000
834.75	-0.000
834.92	-0.000
835.10	-0.000
835.27	-0.000
835.45	-0.000
835.62	-0.000
835.79	-0.000
835.97	-0.000
836.14	-0.000
836.32	-0.000
836.49	-0.000
836.66	-0.000
836.84	-0.000
837.01	-0.000
837.18	-0.000
837.36	-0.000
837.53	-0.000
837.71	-0.000
837.88	-0.000
838.05	-0.000
838.23	-0.000
838.40	-0.000
838.58	-0.000
838.75	-0.000
838.92	-0.000
839.10	-0.000
839.27	-0.000
839.44	-0.000
839.62	-0.000
839.79	-0.000
839.96	-0.000
840.14	-0.000
840.31	-0.000
840.48	-0.000
840.66	-0.000
840.83	-0.000
841.01	-0.000
841.18	-0.000
841.35	-0.000
841.53	-0.000
841.70	-0.000
841.87	-0.000
842.05	-0.000
842.22	-0.000
842.39	-0.000
842.57	-0.000
842.74	-0.000
842.91	-0.000
843.09	-0.000
843.26	-0.000
843.43	-0.000
843.60	-0.000
843.78	-0.000
843.95	-0.000
844.12	-0.000
844.30	-0.000
844.47	-0.000
844.64	-0.000
844.82	-0.000
844.99	-0.000
845.16	-0.000
845.34	-0.000
845.51	-0.000
845.68	-0.000
845.85	-0.000
846.03	-0.000
846.20	-0.000
846.37	-0.000
846.55	-0.000
846.72	-0.000
846.89	-0.000
847.06	-0.000
847.24	-0.000
847.41	-0.000
847.58	-0.000
847.76	-0.000
847.93	-0.000
848.10	-0.000
848.27	-0.000
848.45	-0.000
848.62	-0.000
848.79	-0.000
848.97	-0.000
849.14	-0.000
849.31	-0.000
849.48	-0.000
849.66	-0.000
849.83	-0.000
850.00	-0.000
850.17	-0.000
850.35	-0.000
850.52	-0.000
850.69	-0.000
850.86	-0.000
851.04	-0.000
851.21	-0.000
851.38	-0.000
851.55	-0.000
851.72	-0.000
851.90	-0.000
852.07	-0.000
852.24	-0.000
852.41	-0.000
852.59	-0.000
852.76	-0.000
852.93	-0.000
853.10	-0.000
853.28	-0.000
853.45	-0.000
853.62	-0.000
853.79	-0.000
853.96	-0.000
854.14	-0.000
854.31	-0.000
854.48	-0.000
854.65	-0.000
854.82	-0.000
855.00	-0.000
855.17	-0.000
855.34	-0.000
855.51	-0.000
855.68	-0.000
855.86	-0.000
856.03	-0.000
856.20	-0.000
856.37	-0.000
856.54	-0.000
856.72	-0.000
856.89	-0.000
857.06	-0.000
857.23	-0.000
857.40	-0.000
857.57	-0.000
857.75	-0.000
857.92	-0.000
858.09	-0.000
858.26	-0.000
858.43	-0.000
858.60	-0.000
858.78	-0.000
858.95	-0.000
859.12	-0.000
859.29	-0.000
859.46	-0.000
859.63	-0.000
859.81	-0.000
859.98	-0.000
860.15	-0.000
860.32	-0.000
860.49	-0.000
860.66	-0.000
860.83	-0.000
861.01	-0.000
861.18	-0.000
861.35	-0.000
861.52	-0.000
861.69	-0.000
861.86	-0.000
862.03	-0.000
862.21	-0.000
862.38	-0.000
862.55	-0.000
862.72	-0.000
862.89	-0.000
863.06	-0.000
863.23	-0.000
863.40	-0.000
863.58	-0.000
863.75	-0.000
863.92	-0.000
864.09	-0.000
864.26	-0.000
864.43	-0.000
864.60	-0.000
864.77	-0.000
864.94	-0.000
865.11	-0.000
865.29	-0.000
865.46	-0.000
865.63	-0.000
865.80	-0.000
865.97	-0.000
866.14	-0.000
866.31	-0.000
866.48	-0.000
866.65	-0.000
866.82	-0.000
866.99	-0.000
867.16	-0.000
867.34	-0.000
867.51	-0.000
867.68	-0.000
867.85	-0.000
868.02	-0.000
868.19	-0.000
868.36	-0.000
868.53	-0.000
868.70	-0.000
868.87	-0.000
869.04	-0.000
869.21	-0.000
869.38	-0.000
869.55	-0.000
869.72	-0.000
869.89	-0.000
870.06	-0.000
870.24	-0.000
870.41	-0.000
870.58	-0.000
870.75	-0.000
870.92	-0.000
871.09	-0.000
871.26	-0.000
871.43	-0.000
871.60	-0.000
871.77	-0.000
871.94	-0.000
872.11	-0.000
872.28	-0.000
872.45	-0.000
872.62	-0.000
872.79	-0.000
872.96	-0.000
873.13	-0.000
873.30	-0.000
873.47	-0.000
873.64	-0.000
873.81	-0.000
873.98	-0.000
874.15	-0.000
874.32	-0.000
874.49	-0.000
874.66	-0.000
874.83	-0.000
875.00	-0.000
875.17	-0.000
875.34	-0.000
875.51	-0.000
875.68	-0.000
875.85	-0.000
876.02	-0.000
876.19	-0.000
876.36	-0.000
876.53	-0.000
876.70	-0.000
876.87	-0.000
877.04	-0.000
877.21	-0.000
877.38	-0.000
877.55	-0.000
877.72	-0.000
877.89	-0.000
878.06	-0.000
878.23	-0.000
878.39	-0.000
878.56	-0.000
878.73	-0.000
878.90	-0.000
879.07	-0.000
879.24	-0.000
879.41	-0.000
879.58	-0.000
879.75	-0.000
879.92	-0.000
880.09	-0.000
880.26	-0.000
880.43	-0.000
880.60	-0.000
880.77	-0.000
880.94	-0.000
881.11	-0.000
881.27	-0.000
881.44	-0.000
881.61	-0.000
881.78	-0.000
881.95	-0.000
882.12	-0.000
882.29	-0.000
882.46	-0.000
882.63	-0.000
882.80	-0.000
882.97	-0.000
883.14	-0.000
883.30	-0.000
883.47	-0.000
883.64	-0.000
883.81	-0.000
883.98	-0.000
884.15	-0.000
884.32	-0.000
884.49	-0.000
884.66	-0.000
884.82	-0.000
884.99	-0.000
885.16	-0.000
885.33	-0.000
885.50	-0.000
885.67	-0.000
885.84	-0.000
886.01	-0.000
886.17	-0.000
886.34	-0.000
886.51	-0.000
886.68	-0.000
886.85	-0.000
887.02	-0.000
887.19	-0.000
887.36	-0.000
887.52	-0.000
887.69	-0.000
887.86	-0.000
888.03	-0.000
888.20	-0.000
888.37	-0.000
888.54	-0.000
888.70	-0.000
888.87	-0.000
889.04	-0.000
889.21	-0.000
889.38	-0.000
889.55	-0.000
889.71	-0.000
889.88	-0.000
890.05	-0.000
890.22	-0.000
890.39	-0.000
>>>>>End Processed Spectral Data<<<<<
