SpectraSuite Data File
++++++++++++++++++++++++++++++++++++
Date: Fri Jun 19 15:33:09 CEST 2015
User: introlabs
Dark Spectrum Present: Yes
Reference Spectrum Present: Yes
Number of Sampled Component Spectra: 1
Spectrometers: USB4H08886
Integration Time (usec): 745692 (USB4H08886)
Spectra Averaged: 5 (USB4H08886)
Boxcar Smoothing: 5 (USB4H08886)
Correct for Electrical Dark: Yes (USB4H08886)
Strobe/Lamp Enabled: No (USB4H08886)
Correct for Detector Non-linearity: Yes (USB4H08886)
Correct for Stray Light: Yes (USB4H08886)
Number of Pixels in Processed Spectrum: 3648
>>>>>Begin Processed Spectral Data<<<<<
178.14	-0.000
178.36	-0.000
178.57	-0.000
178.79	-0.000
179.01	-0.000
179.22	-0.000
179.44	-0.000
179.65	-0.000
179.87	-0.000
180.08	-0.000
180.30	-0.000
180.52	-0.000
180.73	-0.000
180.95	-0.000
181.16	-0.000
181.38	-0.000
181.59	-0.000
181.81	-0.000
182.03	-0.000
182.24	-0.000
182.46	-0.000
182.67	-0.000
182.89	-0.000
183.10	-0.000
183.32	-0.000
183.54	-0.000
183.75	-0.000
183.97	-0.000
184.18	-0.000
184.40	-0.000
184.61	-0.000
184.83	-0.000
185.04	-0.000
185.26	-0.000
185.48	-0.000
185.69	-0.000
185.91	-0.000
186.12	-0.000
186.34	-0.000
186.55	-0.000
186.77	-0.000
186.98	-0.000
187.20	-0.000
187.42	-0.000
187.63	-0.000
187.85	-0.000
188.06	-0.000
188.28	-0.000
188.49	-0.000
188.71	-0.000
188.92	-0.000
189.14	-0.000
189.36	-0.000
189.57	-0.000
189.79	-0.000
190.00	-0.000
190.22	-0.000
190.43	-0.000
190.65	-0.000
190.86	-0.000
191.08	-0.000
191.29	-0.000
191.51	-0.000
191.72	-0.000
191.94	-0.000
192.16	-0.000
192.37	-0.000
192.59	-0.000
192.80	-0.000
193.02	-0.000
193.23	-0.000
193.45	-0.000
193.66	-0.000
193.88	-0.000
194.09	-0.000
194.31	-0.000
194.52	-0.000
194.74	-0.000
194.95	-0.000
195.17	-0.000
195.38	-0.000
195.60	-0.000
195.81	-0.000
196.03	-0.000
196.25	-0.000
196.46	-0.000
196.68	-0.000
196.89	-0.000
197.11	-0.000
197.32	-0.000
197.54	-0.000
197.75	-0.000
197.97	-0.000
198.18	-0.000
198.40	-0.000
198.61	-0.000
198.83	-0.000
199.04	-0.000
199.26	-0.000
199.47	-0.000
199.69	-0.000
199.90	-0.000
200.12	-0.000
200.33	-0.000
200.55	-0.000
200.76	-0.000
200.98	-0.000
201.19	-0.000
201.41	-0.000
201.62	-0.000
201.84	-0.000
202.05	-0.000
202.27	-0.000
202.48	-0.000
202.70	-0.000
202.91	-0.000
203.13	-0.000
203.34	-0.000
203.56	-0.000
203.77	-0.000
203.99	-0.000
204.20	-0.000
204.42	-0.000
204.63	-0.000
204.85	-0.000
205.06	-0.000
205.28	-0.000
205.49	-0.000
205.71	-0.000
205.92	-0.000
206.14	-0.000
206.35	-0.000
206.56	-0.000
206.78	-0.000
206.99	-0.000
207.21	-0.000
207.42	-0.000
207.64	-0.000
207.85	-0.000
208.07	-0.000
208.28	-0.000
208.50	-0.000
208.71	-0.000
208.93	-0.000
209.14	-0.000
209.36	-0.000
209.57	-0.000
209.79	-0.000
210.00	-0.000
210.22	-0.000
210.43	-0.000
210.64	-0.000
210.86	-0.000
211.07	-0.000
211.29	-0.000
211.50	-0.000
211.72	-0.000
211.93	-0.000
212.15	-0.000
212.36	-0.000
212.58	-0.000
212.79	-0.000
213.01	-0.000
213.22	-0.000
213.43	-0.000
213.65	-0.000
213.86	-0.000
214.08	-0.000
214.29	-0.000
214.51	-0.000
214.72	-0.000
214.94	-0.000
215.15	-0.000
215.36	-0.000
215.58	-0.000
215.79	-0.000
216.01	-0.000
216.22	-0.000
216.44	-0.000
216.65	-0.000
216.87	-0.000
217.08	-0.000
217.29	-0.000
217.51	-0.000
217.72	-0.000
217.94	-0.000
218.15	-0.000
218.37	-0.000
218.58	-0.000
218.80	-0.000
219.01	-0.000
219.22	-0.000
219.44	-0.000
219.65	-0.000
219.87	-0.000
220.08	-0.000
220.30	-0.000
220.51	-0.000
220.72	-0.000
220.94	-0.000
221.15	-0.000
221.37	-0.000
221.58	-0.000
221.79	-0.000
222.01	-0.000
222.22	-0.000
222.44	-0.000
222.65	-0.000
222.87	-0.000
223.08	-0.000
223.29	-0.000
223.51	-0.000
223.72	-0.000
223.94	-0.000
224.15	-0.000
224.36	-0.000
224.58	-0.000
224.79	-0.000
225.01	-0.000
225.22	-0.000
225.44	-0.000
225.65	-0.000
225.86	-0.000
226.08	-0.000
226.29	-0.000
226.51	-0.000
226.72	-0.000
226.93	-0.000
227.15	-0.000
227.36	-0.000
227.58	-0.000
227.79	-0.000
228.00	-0.000
228.22	-0.000
228.43	-0.000
228.65	-0.000
228.86	-0.000
229.07	-0.000
229.29	-0.000
229.50	-0.000
229.72	-0.000
229.93	-0.000
230.14	-0.000
230.36	-0.000
230.57	-0.000
230.78	-0.000
231.00	-0.000
231.21	-0.000
231.43	-0.000
231.64	-0.000
231.85	-0.000
232.07	-0.000
232.28	-0.000
232.50	-0.000
232.71	-0.000
232.92	-0.000
233.14	-0.000
233.35	-0.000
233.56	-0.000
233.78	-0.000
233.99	-0.000
234.21	-0.000
234.42	-0.000
234.63	-0.000
234.85	-0.000
235.06	-0.000
235.27	-0.000
235.49	-0.000
235.70	-0.000
235.91	-0.000
236.13	-0.000
236.34	-0.000
236.56	-0.000
236.77	-0.000
236.98	-0.000
237.20	-0.000
237.41	-0.000
237.62	-0.000
237.84	-0.000
238.05	-0.000
238.26	-0.000
238.48	-0.000
238.69	-0.000
238.91	-0.000
239.12	-0.000
239.33	-0.000
239.55	-0.000
239.76	-0.000
239.97	-0.000
240.19	-0.000
240.40	-0.000
240.61	-0.000
240.83	-0.000
241.04	-0.000
241.25	-0.000
241.47	-0.000
241.68	-0.000
241.89	-0.000
242.11	-0.000
242.32	-0.000
242.53	-0.000
242.75	-0.000
242.96	-0.000
243.17	-0.000
243.39	-0.000
243.60	-0.000
243.81	-0.000
244.03	-0.000
244.24	-0.000
244.45	-0.000
244.67	-0.000
244.88	-0.000
245.09	-0.000
245.31	-0.000
245.52	-0.000
245.73	-0.000
245.95	-0.000
246.16	-0.000
246.37	-0.000
246.59	-0.000
246.80	-0.000
247.01	-0.000
247.23	-0.000
247.44	-0.000
247.65	-0.000
247.87	-0.000
248.08	-0.000
248.29	-0.000
248.51	-0.000
248.72	-0.000
248.93	-0.000
249.15	-0.000
249.36	-0.000
249.57	-0.000
249.78	-0.000
250.00	-0.000
250.21	-0.000
250.42	-0.000
250.64	-0.000
250.85	-0.000
251.06	-0.000
251.28	-0.000
251.49	-0.000
251.70	-0.000
251.92	-0.000
252.13	-0.000
252.34	-0.000
252.55	-0.000
252.77	-0.000
252.98	-0.000
253.19	-0.000
253.41	-0.000
253.62	-0.000
253.83	-0.000
254.05	-0.000
254.26	-0.000
254.47	-0.000
254.68	-0.000
254.90	-0.000
255.11	-0.000
255.32	-0.000
255.54	-0.000
255.75	-0.000
255.96	-0.000
256.17	-0.000
256.39	-0.000
256.60	-0.000
256.81	-0.000
257.03	-0.000
257.24	-0.000
257.45	-0.000
257.66	-0.000
257.88	-0.000
258.09	-0.000
258.30	-0.000
258.51	-0.000
258.73	-0.000
258.94	-0.000
259.15	-0.000
259.37	-0.000
259.58	-0.000
259.79	-0.000
260.00	-0.000
260.22	-0.000
260.43	-0.000
260.64	-0.000
260.85	-0.000
261.07	-0.000
261.28	-0.000
261.49	-0.000
261.71	-0.000
261.92	-0.000
262.13	-0.000
262.34	-0.000
262.56	-0.000
262.77	-0.000
262.98	-0.000
263.19	-0.000
263.41	-0.000
263.62	-0.000
263.83	-0.000
264.04	-0.000
264.26	-0.000
264.47	-0.000
264.68	-0.000
264.89	-0.000
265.11	-0.000
265.32	-0.000
265.53	-0.000
265.74	-0.000
265.96	-0.000
266.17	-0.000
266.38	-0.000
266.59	-0.000
266.81	-0.000
267.02	-0.000
267.23	-0.000
267.44	-0.000
267.65	-0.000
267.87	-0.000
268.08	-0.000
268.29	-0.000
268.50	-0.000
268.72	-0.000
268.93	-0.000
269.14	-0.000
269.35	-0.000
269.57	-0.000
269.78	-0.000
269.99	-0.000
270.20	-0.000
270.41	-0.000
270.63	-0.000
270.84	-0.000
271.05	-0.000
271.26	-0.000
271.48	-0.000
271.69	-0.000
271.90	-0.000
272.11	-0.000
272.32	-0.000
272.54	-0.000
272.75	-0.000
272.96	-0.000
273.17	-0.000
273.39	-0.000
273.60	-0.000
273.81	-0.000
274.02	-0.000
274.23	-0.000
274.45	-0.000
274.66	-0.000
274.87	-0.000
275.08	-0.000
275.29	-0.000
275.51	-0.000
275.72	-0.000
275.93	-0.000
276.14	-0.000
276.35	-0.000
276.57	-0.000
276.78	-0.000
276.99	-0.000
277.20	-0.000
277.41	-0.000
277.63	-0.000
277.84	-0.000
278.05	-0.000
278.26	-0.000
278.47	-0.000
278.69	-0.000
278.90	-0.000
279.11	-0.000
279.32	-0.000
279.53	-0.000
279.74	-0.000
279.96	-0.000
280.17	-0.000
280.38	-0.000
280.59	-0.000
280.80	-0.000
281.02	-0.000
281.23	-0.000
281.44	-0.000
281.65	-0.000
281.86	-0.000
282.07	-0.000
282.29	-0.000
282.50	-0.000
282.71	-0.000
282.92	-0.000
283.13	-0.000
283.35	-0.000
283.56	-0.000
283.77	-0.000
283.98	-0.000
284.19	-0.000
284.40	-0.000
284.62	-0.000
284.83	-0.000
285.04	-0.000
285.25	-0.000
285.46	-0.000
285.67	-0.000
285.88	-0.000
286.10	-0.000
286.31	-0.000
286.52	-0.000
286.73	-0.000
286.94	-0.000
287.15	-0.000
287.37	-0.000
287.58	-0.000
287.79	-0.000
288.00	-0.000
288.21	-0.000
288.42	-0.000
288.63	-0.000
288.85	-0.000
289.06	-0.000
289.27	-0.000
289.48	-0.000
289.69	-0.000
289.90	-0.000
290.11	-0.000
290.33	-0.000
290.54	-0.000
290.75	-0.000
290.96	-0.000
291.17	-0.000
291.38	-0.000
291.59	-0.000
291.81	-0.000
292.02	-0.000
292.23	-0.000
292.44	-0.000
292.65	-0.000
292.86	-0.000
293.07	-0.000
293.28	-0.000
293.50	-0.000
293.71	-0.000
293.92	-0.000
294.13	-0.000
294.34	-0.000
294.55	-0.000
294.76	-0.000
294.97	-0.000
295.19	-0.000
295.40	-0.000
295.61	-0.000
295.82	-0.000
296.03	-0.000
296.24	-0.000
296.45	2.141
296.66	1.818
296.87	1.838
297.09	1.920
297.30	2.134
297.51	1.762
297.72	1.731
297.93	1.809
298.14	1.774
298.35	1.731
298.56	1.702
298.77	1.813
298.99	1.782
299.20	1.764
299.41	1.737
299.62	1.685
299.83	1.669
300.04	1.605
300.25	1.592
300.46	1.620
300.67	1.591
300.88	1.545
301.10	1.547
301.31	1.613
301.52	1.550
301.73	1.503
301.94	1.504
302.15	1.521
302.36	1.477
302.57	1.426
302.78	1.440
302.99	1.479
303.20	1.500
303.41	1.417
303.63	1.397
303.84	1.402
304.05	1.397
304.26	1.338
304.47	1.341
304.68	1.342
304.89	1.331
305.10	1.289
305.31	1.275
305.52	1.318
305.73	1.313
305.94	1.275
306.15	1.266
306.37	1.287
306.58	1.295
306.79	1.269
307.00	1.294
307.21	1.336
307.42	1.333
307.63	1.301
307.84	1.265
308.05	1.299
308.26	1.301
308.47	1.282
308.68	1.276
308.89	1.274
309.10	1.274
309.31	1.234
309.52	1.222
309.73	1.231
309.95	1.226
310.16	1.199
310.37	1.186
310.58	1.203
310.79	1.201
311.00	1.200
311.21	1.200
311.42	1.199
311.63	1.193
311.84	1.174
312.05	1.174
312.26	1.196
312.47	1.208
312.68	1.186
312.89	1.169
313.10	1.174
313.31	1.147
313.52	1.154
313.73	1.154
313.94	1.153
314.15	1.139
314.36	1.119
314.57	1.111
314.78	1.098
314.99	1.093
315.21	1.082
315.42	1.089
315.63	1.099
315.84	1.075
316.05	1.065
316.26	1.073
316.47	1.087
316.68	1.084
316.89	1.065
317.10	1.085
317.31	1.090
317.52	1.092
317.73	1.071
317.94	1.070
318.15	1.111
318.36	1.108
318.57	1.094
318.78	1.084
318.99	1.117
319.20	1.117
319.41	1.084
319.62	1.086
319.83	1.097
320.04	1.093
320.25	1.082
320.46	1.051
320.67	1.053
320.88	1.047
321.09	1.035
321.30	1.020
321.51	1.033
321.72	1.030
321.93	1.016
322.14	1.009
322.35	1.034
322.56	1.037
322.77	1.025
322.98	1.036
323.19	1.044
323.40	1.051
323.61	1.031
323.82	1.026
324.03	1.031
324.24	1.028
324.45	1.017
324.66	0.998
324.87	0.993
325.08	0.991
325.29	0.974
325.50	0.965
325.71	0.969
325.92	0.976
326.13	0.964
326.34	0.963
326.55	0.971
326.76	0.969
326.97	0.960
327.18	0.955
327.39	0.980
327.60	0.980
327.80	0.982
328.01	0.980
328.22	0.979
328.43	0.982
328.64	0.973
328.85	0.976
329.06	0.977
329.27	0.977
329.48	0.974
329.69	0.953
329.90	0.962
330.11	0.956
330.32	0.949
330.53	0.943
330.74	0.943
330.95	0.941
331.16	0.927
331.37	0.935
331.58	0.934
331.79	0.934
332.00	0.927
332.21	0.921
332.42	0.924
332.63	0.916
332.83	0.913
333.04	0.915
333.25	0.927
333.46	0.926
333.67	0.912
333.88	0.913
334.09	0.922
334.30	0.919
334.51	0.911
334.72	0.906
334.93	0.908
335.14	0.907
335.35	0.901
335.56	0.895
335.77	0.903
335.98	0.901
336.18	0.897
336.39	0.890
336.60	0.893
336.81	0.893
337.02	0.893
337.23	0.896
337.44	0.898
337.65	0.899
337.86	0.889
338.07	0.884
338.28	0.888
338.49	0.886
338.70	0.879
338.91	0.886
339.11	0.891
339.32	0.887
339.53	0.877
339.74	0.875
339.95	0.872
340.16	0.871
340.37	0.865
340.58	0.863
340.79	0.865
341.00	0.865
341.21	0.856
341.41	0.856
341.62	0.858
341.83	0.858
342.04	0.853
342.25	0.863
342.46	0.867
342.67	0.866
342.88	0.860
343.09	0.859
343.30	0.865
343.50	0.868
343.71	0.858
343.92	0.856
344.13	0.860
344.34	0.860
344.55	0.845
344.76	0.843
344.97	0.847
345.18	0.845
345.38	0.843
345.59	0.838
345.80	0.837
346.01	0.835
346.22	0.830
346.43	0.824
346.64	0.831
346.85	0.830
347.06	0.824
347.26	0.823
347.47	0.826
347.68	0.822
347.89	0.820
348.10	0.814
348.31	0.821
348.52	0.821
348.73	0.820
348.93	0.817
349.14	0.818
349.35	0.818
349.56	0.813
349.77	0.807
349.98	0.813
350.19	0.809
350.39	0.804
350.60	0.799
350.81	0.815
351.02	0.813
351.23	0.808
351.44	0.812
351.65	0.815
351.86	0.812
352.06	0.812
352.27	0.812
352.48	0.812
352.69	0.812
352.90	0.808
353.11	0.794
353.31	0.801
353.52	0.798
353.73	0.790
353.94	0.791
354.15	0.796
354.36	0.796
354.57	0.787
354.77	0.790
354.98	0.789
355.19	0.788
355.40	0.788
355.61	0.794
355.82	0.796
356.02	0.796
356.23	0.790
356.44	0.791
356.65	0.793
356.86	0.793
357.07	0.787
357.27	0.791
357.48	0.793
357.69	0.790
357.90	0.774
358.11	0.772
358.32	0.775
358.52	0.778
358.73	0.768
358.94	0.771
359.15	0.775
359.36	0.775
359.56	0.771
359.77	0.768
359.98	0.773
360.19	0.773
360.40	0.770
360.61	0.772
360.81	0.770
361.02	0.770
361.23	0.763
361.44	0.761
361.65	0.762
361.85	0.762
362.06	0.760
362.27	0.762
362.48	0.762
362.69	0.764
362.89	0.757
363.10	0.759
363.31	0.764
363.52	0.767
363.73	0.762
363.93	0.762
364.14	0.763
364.35	0.765
364.56	0.755
364.77	0.756
364.97	0.758
365.18	0.759
365.39	0.752
365.60	0.749
365.81	0.750
366.01	0.751
366.22	0.748
366.43	0.747
366.64	0.748
366.84	0.754
367.05	0.751
367.26	0.751
367.47	0.752
367.68	0.753
367.88	0.750
368.09	0.747
368.30	0.749
368.51	0.748
368.71	0.747
368.92	0.752
369.13	0.748
369.34	0.749
369.55	0.748
369.75	0.748
369.96	0.755
370.17	0.755
370.38	0.752
370.58	0.751
370.79	0.755
371.00	0.755
371.21	0.747
371.41	0.752
371.62	0.755
371.83	0.751
372.04	0.748
372.24	0.742
372.45	0.743
372.66	0.743
372.87	0.740
373.07	0.738
373.28	0.738
373.49	0.741
373.70	0.732
373.90	0.731
374.11	0.740
374.32	0.740
374.53	0.739
374.73	0.740
374.94	0.742
375.15	0.741
375.36	0.739
375.56	0.747
375.77	0.747
375.98	0.748
376.19	0.746
376.39	0.739
376.60	0.742
376.81	0.742
377.02	0.740
377.22	0.740
377.43	0.740
377.64	0.741
377.84	0.732
378.05	0.737
378.26	0.742
378.47	0.741
378.67	0.738
378.88	0.735
379.09	0.735
379.30	0.735
379.50	0.733
379.71	0.735
379.92	0.738
380.12	0.737
380.33	0.729
380.54	0.726
380.75	0.732
380.95	0.732
381.16	0.731
381.37	0.731
381.57	0.733
381.78	0.733
381.99	0.733
382.20	0.732
382.40	0.735
382.61	0.735
382.82	0.733
383.02	0.727
383.23	0.730
383.44	0.731
383.64	0.730
383.85	0.732
384.06	0.735
384.27	0.732
384.47	0.731
384.68	0.731
384.89	0.736
385.09	0.735
385.30	0.735
385.51	0.733
385.71	0.737
385.92	0.736
386.13	0.735
386.33	0.738
386.54	0.738
386.75	0.738
386.95	0.735
387.16	0.730
387.37	0.733
387.58	0.733
387.78	0.731
387.99	0.729
388.20	0.731
388.40	0.729
388.61	0.724
388.82	0.728
389.02	0.730
389.23	0.730
389.44	0.728
389.64	0.729
389.85	0.740
390.06	0.739
390.26	0.740
390.47	0.739
390.68	0.741
390.88	0.740
391.09	0.735
391.30	0.735
391.50	0.735
391.71	0.735
391.92	0.732
392.12	0.724
392.33	0.725
392.53	0.725
392.74	0.725
392.95	0.724
393.15	0.726
393.36	0.728
393.57	0.726
393.77	0.730
393.98	0.731
394.19	0.731
394.39	0.730
394.60	0.732
394.81	0.734
395.01	0.732
395.22	0.731
395.43	0.732
395.63	0.736
395.84	0.738
396.04	0.734
396.25	0.736
396.46	0.738
396.66	0.736
396.87	0.734
397.08	0.731
397.28	0.733
397.49	0.735
397.69	0.732
397.90	0.727
398.11	0.728
398.31	0.729
398.52	0.726
398.73	0.727
398.93	0.726
399.14	0.724
399.34	0.723
399.55	0.724
399.76	0.725
399.96	0.725
400.17	0.724
400.37	0.722
400.58	0.729
400.79	0.730
400.99	0.728
401.20	0.734
401.41	0.736
401.61	0.738
401.82	0.743
402.02	0.742
402.23	0.743
402.44	0.743
402.64	0.743
402.85	0.737
403.05	0.736
403.26	0.735
403.47	0.729
403.67	0.728
403.88	0.729
404.08	0.723
404.29	0.721
404.50	0.721
404.70	0.721
404.91	0.720
405.11	0.718
405.32	0.718
405.52	0.719
405.73	0.718
405.94	0.717
406.14	0.719
406.35	0.721
406.55	0.721
406.76	0.718
406.97	0.720
407.17	0.723
407.38	0.723
407.58	0.722
407.79	0.724
407.99	0.726
408.20	0.727
408.41	0.724
408.61	0.722
408.82	0.723
409.02	0.722
409.23	0.720
409.43	0.719
409.64	0.719
409.84	0.719
410.05	0.716
410.26	0.714
410.46	0.713
410.67	0.713
410.87	0.715
411.08	0.717
411.28	0.719
411.49	0.721
411.69	0.719
411.90	0.721
412.11	0.722
412.31	0.723
412.52	0.722
412.72	0.723
412.93	0.723
413.13	0.721
413.34	0.717
413.54	0.719
413.75	0.720
413.95	0.720
414.16	0.717
414.37	0.720
414.57	0.720
414.78	0.722
414.98	0.721
415.19	0.722
415.39	0.720
415.60	0.722
415.80	0.721
416.01	0.719
416.21	0.720
416.42	0.720
416.62	0.715
416.83	0.715
417.03	0.714
417.24	0.714
417.44	0.712
417.65	0.711
417.86	0.712
418.06	0.710
418.27	0.708
418.47	0.710
418.68	0.711
418.88	0.711
419.09	0.709
419.29	0.710
419.50	0.710
419.70	0.710
419.91	0.709
420.11	0.707
420.32	0.709
420.52	0.708
420.73	0.707
420.93	0.708
421.14	0.709
421.34	0.709
421.55	0.706
421.75	0.706
421.96	0.706
422.16	0.706
422.37	0.705
422.57	0.702
422.78	0.704
422.98	0.700
423.19	0.698
423.39	0.696
423.60	0.699
423.80	0.700
424.01	0.699
424.21	0.702
424.42	0.703
424.62	0.702
424.83	0.702
425.03	0.702
425.23	0.704
425.44	0.704
425.64	0.705
425.85	0.703
426.05	0.704
426.26	0.704
426.46	0.700
426.67	0.700
426.87	0.704
427.08	0.705
427.28	0.703
427.49	0.703
427.69	0.704
427.90	0.703
428.10	0.700
428.31	0.700
428.51	0.702
428.71	0.701
428.92	0.702
429.12	0.700
429.33	0.700
429.53	0.704
429.74	0.708
429.94	0.709
430.15	0.708
430.35	0.707
430.56	0.704
430.76	0.703
430.96	0.704
431.17	0.701
431.37	0.698
431.58	0.696
431.78	0.692
431.99	0.685
432.19	0.687
432.40	0.689
432.60	0.690
432.80	0.693
433.01	0.691
433.21	0.691
433.42	0.693
433.62	0.694
433.83	0.693
434.03	0.696
434.23	0.698
434.44	0.697
434.64	0.694
434.85	0.699
435.05	0.700
435.26	0.700
435.46	0.699
435.66	0.699
435.87	0.698
436.07	0.698
436.28	0.694
436.48	0.691
436.69	0.690
436.89	0.690
437.09	0.684
437.30	0.683
437.50	0.683
437.71	0.695
437.91	0.694
438.11	0.696
438.32	0.700
438.52	0.700
438.73	0.699
438.93	0.698
439.13	0.698
439.34	0.701
439.54	0.698
439.75	0.698
439.95	0.688
440.15	0.692
440.36	0.690
440.56	0.688
440.77	0.688
440.97	0.689
441.17	0.688
441.38	0.689
441.58	0.686
441.79	0.687
441.99	0.685
442.19	0.684
442.40	0.681
442.60	0.681
442.81	0.679
443.01	0.679
443.21	0.679
443.42	0.678
443.62	0.677
443.82	0.677
444.03	0.678
444.23	0.678
444.44	0.678
444.64	0.677
444.84	0.678
445.05	0.678
445.25	0.675
445.45	0.675
445.66	0.677
445.86	0.676
446.06	0.677
446.27	0.676
446.47	0.679
446.68	0.677
446.88	0.676
447.08	0.675
447.29	0.677
447.49	0.677
447.69	0.677
447.90	0.676
448.10	0.680
448.30	0.677
448.51	0.679
448.71	0.676
448.91	0.678
449.12	0.677
449.32	0.679
449.52	0.678
449.73	0.681
449.93	0.680
450.14	0.681
450.34	0.680
450.54	0.682
450.75	0.679
450.95	0.678
451.15	0.678
451.36	0.680
451.56	0.676
451.76	0.676
451.97	0.673
452.17	0.673
452.37	0.671
452.58	0.668
452.78	0.668
452.98	0.670
453.19	0.670
453.39	0.671
453.59	0.668
453.79	0.669
454.00	0.669
454.20	0.668
454.40	0.668
454.61	0.670
454.81	0.671
455.01	0.669
455.22	0.670
455.42	0.671
455.62	0.668
455.83	0.669
456.03	0.672
456.23	0.674
456.44	0.674
456.64	0.673
456.84	0.674
457.04	0.674
457.25	0.673
457.45	0.670
457.65	0.669
457.86	0.670
458.06	0.668
458.26	0.664
458.47	0.663
458.67	0.664
458.87	0.664
459.07	0.663
459.28	0.664
459.48	0.667
459.68	0.667
459.89	0.666
460.09	0.665
460.29	0.666
460.49	0.667
460.70	0.666
460.90	0.665
461.10	0.666
461.31	0.664
461.51	0.662
461.71	0.663
461.91	0.664
462.12	0.664
462.32	0.664
462.52	0.664
462.72	0.667
462.93	0.668
463.13	0.666
463.33	0.668
463.53	0.669
463.74	0.668
463.94	0.664
464.14	0.665
464.35	0.666
464.55	0.666
464.75	0.664
464.95	0.662
465.16	0.663
465.36	0.662
465.56	0.661
465.76	0.661
465.97	0.661
466.17	0.662
466.37	0.660
466.57	0.660
466.78	0.661
466.98	0.661
467.18	0.658
467.38	0.657
467.59	0.658
467.79	0.660
467.99	0.659
468.19	0.661
468.39	0.663
468.60	0.664
468.80	0.661
469.00	0.662
469.20	0.663
469.41	0.664
469.61	0.663
469.81	0.664
470.01	0.663
470.22	0.664
470.42	0.661
470.62	0.659
470.82	0.659
471.02	0.659
471.23	0.657
471.43	0.658
471.63	0.660
471.83	0.660
472.04	0.658
472.24	0.657
472.44	0.662
472.64	0.662
472.84	0.661
473.05	0.661
473.25	0.663
473.45	0.663
473.65	0.662
473.85	0.662
474.06	0.663
474.26	0.663
474.46	0.664
474.66	0.660
474.86	0.661
475.07	0.661
475.27	0.660
475.47	0.657
475.67	0.657
475.87	0.659
476.08	0.655
476.28	0.657
476.48	0.658
476.68	0.656
476.88	0.655
477.09	0.656
477.29	0.658
477.49	0.657
477.69	0.657
477.89	0.657
478.09	0.657
478.30	0.659
478.50	0.656
478.70	0.655
478.90	0.656
479.10	0.658
479.31	0.659
479.51	0.657
479.71	0.658
479.91	0.658
480.11	0.657
480.31	0.657
480.52	0.656
480.72	0.656
480.92	0.655
481.12	0.654
481.32	0.651
481.52	0.649
481.72	0.649
481.93	0.653
482.13	0.653
482.33	0.653
482.53	0.651
482.73	0.651
482.93	0.652
483.14	0.652
483.34	0.651
483.54	0.652
483.74	0.652
483.94	0.651
484.14	0.647
484.34	0.647
484.55	0.648
484.75	0.648
484.95	0.646
485.15	0.646
485.35	0.645
485.55	0.645
485.75	0.643
485.96	0.643
486.16	0.645
486.36	0.643
486.56	0.642
486.76	0.642
486.96	0.642
487.16	0.642
487.36	0.639
487.57	0.639
487.77	0.640
487.97	0.640
488.17	0.638
488.37	0.637
488.57	0.638
488.77	0.638
488.97	0.636
489.18	0.636
489.38	0.638
489.58	0.639
489.78	0.638
489.98	0.638
490.18	0.638
490.38	0.639
490.58	0.637
490.78	0.638
490.98	0.639
491.19	0.639
491.39	0.639
491.59	0.638
491.79	0.641
491.99	0.641
492.19	0.641
492.39	0.644
492.59	0.644
492.79	0.646
492.99	0.646
493.20	0.646
493.40	0.647
493.60	0.648
493.80	0.647
494.00	0.644
494.20	0.645
494.40	0.644
494.60	0.641
494.80	0.646
495.00	0.645
495.20	0.644
495.40	0.643
495.61	0.644
495.81	0.643
496.01	0.647
496.21	0.648
496.41	0.647
496.61	0.647
496.81	0.647
497.01	0.641
497.21	0.640
497.41	0.640
497.61	0.640
497.81	0.638
498.01	0.638
498.21	0.636
498.41	0.633
498.61	0.634
498.82	0.635
499.02	0.637
499.22	0.638
499.42	0.638
499.62	0.639
499.82	0.640
500.02	0.641
500.22	0.640
500.42	0.642
500.62	0.644
500.82	0.644
501.02	0.642
501.22	0.642
501.42	0.641
501.62	0.643
501.82	0.643
502.02	0.643
502.22	0.642
502.42	0.644
502.62	0.641
502.82	0.641
503.02	0.642
503.22	0.641
503.42	0.640
503.63	0.639
503.83	0.637
504.03	0.636
504.23	0.635
504.43	0.635
504.63	0.635
504.83	0.635
505.03	0.634
505.23	0.636
505.43	0.637
505.63	0.638
505.83	0.638
506.03	0.639
506.23	0.641
506.43	0.641
506.63	0.641
506.83	0.640
507.03	0.641
507.23	0.642
507.43	0.639
507.63	0.639
507.83	0.640
508.03	0.640
508.23	0.640
508.43	0.639
508.63	0.640
508.83	0.641
509.03	0.642
509.23	0.641
509.43	0.642
509.63	0.642
509.83	0.642
510.03	0.644
510.23	0.645
510.43	0.646
510.63	0.646
510.83	0.646
511.03	0.647
511.23	0.645
511.43	0.645
511.63	0.646
511.83	0.648
512.03	0.648
512.22	0.645
512.42	0.645
512.62	0.645
512.82	0.645
513.02	0.644
513.22	0.644
513.42	0.645
513.62	0.647
513.82	0.646
514.02	0.645
514.22	0.646
514.42	0.646
514.62	0.646
514.82	0.646
515.02	0.648
515.22	0.652
515.42	0.651
515.62	0.654
515.82	0.653
516.02	0.653
516.22	0.654
516.42	0.655
516.62	0.657
516.82	0.658
517.01	0.657
517.21	0.656
517.41	0.659
517.61	0.660
517.81	0.656
518.01	0.655
518.21	0.655
518.41	0.654
518.61	0.653
518.81	0.653
519.01	0.653
519.21	0.654
519.41	0.653
519.61	0.648
519.81	0.650
520.00	0.650
520.20	0.651
520.40	0.654
520.60	0.654
520.80	0.652
521.00	0.653
521.20	0.654
521.40	0.658
521.60	0.658
521.80	0.658
522.00	0.657
522.20	0.660
522.39	0.659
522.59	0.656
522.79	0.658
522.99	0.661
523.19	0.659
523.39	0.657
523.59	0.655
523.79	0.658
523.99	0.659
524.19	0.659
524.38	0.658
524.58	0.659
524.78	0.660
524.98	0.658
525.18	0.659
525.38	0.660
525.58	0.661
525.78	0.659
525.98	0.658
526.18	0.658
526.37	0.657
526.57	0.659
526.77	0.659
526.97	0.660
527.17	0.660
527.37	0.656
527.57	0.658
527.77	0.659
527.96	0.659
528.16	0.658
528.36	0.659
528.56	0.661
528.76	0.658
528.96	0.657
529.16	0.658
529.36	0.661
529.55	0.662
529.75	0.660
529.95	0.660
530.15	0.661
530.35	0.663
530.55	0.661
530.75	0.661
530.94	0.662
531.14	0.663
531.34	0.661
531.54	0.660
531.74	0.662
531.94	0.664
532.13	0.663
532.33	0.665
532.53	0.664
532.73	0.664
532.93	0.663
533.13	0.664
533.33	0.664
533.52	0.665
533.72	0.668
533.92	0.666
534.12	0.665
534.32	0.665
534.52	0.662
534.71	0.665
534.91	0.667
535.11	0.669
535.31	0.667
535.51	0.669
535.71	0.671
535.90	0.667
536.10	0.668
536.30	0.670
536.50	0.670
536.70	0.671
536.89	0.669
537.09	0.668
537.29	0.669
537.49	0.669
537.69	0.667
537.89	0.669
538.08	0.668
538.28	0.666
538.48	0.667
538.68	0.669
538.88	0.670
539.07	0.670
539.27	0.668
539.47	0.667
539.67	0.667
539.87	0.669
540.06	0.666
540.26	0.667
540.46	0.669
540.66	0.667
540.86	0.664
541.05	0.664
541.25	0.666
541.45	0.667
541.65	0.665
541.84	0.667
542.04	0.667
542.24	0.668
542.44	0.667
542.64	0.668
542.83	0.671
543.03	0.671
543.23	0.668
543.43	0.669
543.62	0.670
543.82	0.670
544.02	0.669
544.22	0.669
544.42	0.672
544.61	0.673
544.81	0.670
545.01	0.669
545.21	0.671
545.40	0.671
545.60	0.669
545.80	0.673
546.00	0.672
546.19	0.671
546.39	0.670
546.59	0.667
546.79	0.668
546.98	0.668
547.18	0.668
547.38	0.669
547.58	0.672
547.77	0.672
547.97	0.668
548.17	0.670
548.37	0.671
548.56	0.672
548.76	0.672
548.96	0.674
549.16	0.676
549.35	0.676
549.55	0.673
549.75	0.674
549.95	0.677
550.14	0.677
550.34	0.676
550.54	0.681
550.73	0.684
550.93	0.685
551.13	0.681
551.33	0.680
551.52	0.681
551.72	0.681
551.92	0.680
552.12	0.680
552.31	0.681
552.51	0.681
552.71	0.677
552.90	0.677
553.10	0.678
553.30	0.677
553.50	0.676
553.69	0.678
553.89	0.679
554.09	0.678
554.28	0.675
554.48	0.676
554.68	0.678
554.87	0.678
555.07	0.675
555.27	0.674
555.47	0.676
555.66	0.677
555.86	0.675
556.06	0.677
556.25	0.679
556.45	0.686
556.65	0.685
556.84	0.688
557.04	0.691
557.24	0.692
557.43	0.692
557.63	0.695
557.83	0.697
558.02	0.697
558.22	0.701
558.42	0.702
558.61	0.695
558.81	0.695
559.01	0.692
559.21	0.691
559.40	0.692
559.60	0.693
559.80	0.689
559.99	0.690
560.19	0.692
560.39	0.686
560.58	0.684
560.78	0.684
560.97	0.687
561.17	0.686
561.37	0.684
561.56	0.685
561.76	0.686
561.96	0.685
562.15	0.682
562.35	0.685
562.55	0.686
562.74	0.686
562.94	0.685
563.14	0.683
563.33	0.683
563.53	0.684
563.73	0.681
563.92	0.682
564.12	0.685
564.31	0.688
564.51	0.685
564.71	0.687
564.90	0.690
565.10	0.689
565.30	0.693
565.49	0.694
565.69	0.696
565.89	0.697
566.08	0.695
566.28	0.697
566.47	0.698
566.67	0.696
566.87	0.694
567.06	0.696
567.26	0.702
567.46	0.698
567.65	0.698
567.85	0.699
568.04	0.702
568.24	0.701
568.44	0.698
568.63	0.697
568.83	0.699
569.02	0.697
569.22	0.694
569.42	0.690
569.61	0.692
569.81	0.691
570.00	0.688
570.20	0.689
570.40	0.690
570.59	0.689
570.79	0.687
570.98	0.685
571.18	0.686
571.38	0.686
571.57	0.683
571.77	0.681
571.96	0.684
572.16	0.681
572.35	0.677
572.55	0.678
572.75	0.676
572.94	0.676
573.14	0.675
573.33	0.674
573.53	0.674
573.73	0.673
573.92	0.672
574.12	0.670
574.31	0.672
574.51	0.673
574.70	0.670
574.90	0.672
575.09	0.674
575.29	0.675
575.49	0.672
575.68	0.673
575.88	0.674
576.07	0.675
576.27	0.673
576.46	0.672
576.66	0.671
576.86	0.670
577.05	0.668
577.25	0.666
577.44	0.667
577.64	0.667
577.83	0.666
578.03	0.667
578.22	0.666
578.42	0.666
578.61	0.664
578.81	0.665
579.00	0.665
579.20	0.665
579.40	0.664
579.59	0.662
579.79	0.663
579.98	0.662
580.18	0.662
580.37	0.662
580.57	0.663
580.76	0.668
580.96	0.666
581.15	0.667
581.35	0.669
581.54	0.669
581.74	0.668
581.93	0.670
582.13	0.671
582.32	0.668
582.52	0.666
582.71	0.666
582.91	0.662
583.10	0.661
583.30	0.660
583.49	0.659
583.69	0.663
583.88	0.664
584.08	0.663
584.27	0.665
584.47	0.669
584.66	0.670
584.86	0.669
585.05	0.671
585.25	0.673
585.44	0.673
585.64	0.672
585.83	0.668
586.03	0.668
586.22	0.666
586.42	0.662
586.61	0.663
586.81	0.665
587.00	0.665
587.20	0.663
587.39	0.664
587.59	0.665
587.78	0.666
587.98	0.667
588.17	0.668
588.37	0.670
588.56	0.672
588.76	0.668
588.95	0.668
589.15	0.672
589.34	0.674
589.54	0.673
589.73	0.674
589.92	0.677
590.12	0.677
590.31	0.675
590.51	0.681
590.70	0.683
590.90	0.684
591.09	0.682
591.29	0.680
591.48	0.680
591.68	0.681
591.87	0.679
592.06	0.679
592.26	0.681
592.45	0.681
592.65	0.675
592.84	0.673
593.04	0.676
593.23	0.678
593.43	0.676
593.62	0.675
593.81	0.675
594.01	0.674
594.20	0.671
594.40	0.670
594.59	0.671
594.79	0.672
594.98	0.671
595.17	0.670
595.37	0.671
595.56	0.673
595.76	0.673
595.95	0.675
596.14	0.677
596.34	0.679
596.53	0.678
596.73	0.680
596.92	0.682
597.12	0.685
597.31	0.685
597.50	0.684
597.70	0.686
597.89	0.685
598.09	0.682
598.28	0.683
598.47	0.685
598.67	0.684
598.86	0.680
599.06	0.682
599.25	0.682
599.44	0.681
599.64	0.678
599.83	0.675
600.03	0.678
600.22	0.678
600.41	0.678
600.61	0.675
600.80	0.677
601.00	0.678
601.19	0.673
601.38	0.671
601.58	0.673
601.77	0.674
601.96	0.676
602.16	0.677
602.35	0.685
602.55	0.684
602.74	0.685
602.93	0.686
603.13	0.691
603.32	0.692
603.51	0.692
603.71	0.697
603.90	0.698
604.09	0.699
604.29	0.696
604.48	0.691
604.68	0.692
604.87	0.691
605.06	0.688
605.26	0.685
605.45	0.685
605.64	0.684
605.84	0.679
606.03	0.678
606.22	0.676
606.42	0.675
606.61	0.672
606.80	0.672
607.00	0.673
607.19	0.673
607.38	0.671
607.58	0.673
607.77	0.675
607.96	0.675
608.16	0.674
608.35	0.678
608.54	0.681
608.74	0.684
608.93	0.688
609.12	0.691
609.32	0.693
609.51	0.696
609.70	0.695
609.90	0.697
610.09	0.702
610.28	0.707
610.48	0.702
610.67	0.703
610.86	0.704
611.06	0.699
611.25	0.696
611.44	0.698
611.64	0.698
611.83	0.701
612.02	0.698
612.21	0.696
612.41	0.694
612.60	0.693
612.79	0.689
612.99	0.689
613.18	0.690
613.37	0.688
613.57	0.685
613.76	0.687
613.95	0.684
614.14	0.683
614.34	0.681
614.53	0.682
614.72	0.684
614.92	0.685
615.11	0.682
615.30	0.679
615.49	0.680
615.69	0.682
615.88	0.679
616.07	0.680
616.26	0.682
616.46	0.683
616.65	0.680
616.84	0.680
617.04	0.680
617.23	0.684
617.42	0.684
617.61	0.688
617.81	0.688
618.00	0.689
618.19	0.689
618.38	0.693
618.58	0.696
618.77	0.698
618.96	0.697
619.15	0.700
619.35	0.701
619.54	0.702
619.73	0.699
619.92	0.701
620.12	0.706
620.31	0.706
620.50	0.701
620.69	0.702
620.89	0.704
621.08	0.704
621.27	0.704
621.46	0.703
621.66	0.707
621.85	0.707
622.04	0.703
622.23	0.704
622.43	0.705
622.62	0.704
622.81	0.703
623.00	0.703
623.19	0.705
623.39	0.704
623.58	0.701
623.77	0.700
623.96	0.701
624.16	0.701
624.35	0.696
624.54	0.699
624.73	0.702
624.92	0.700
625.12	0.697
625.31	0.699
625.50	0.701
625.69	0.701
625.88	0.698
626.08	0.698
626.27	0.699
626.46	0.700
626.65	0.697
626.84	0.697
627.04	0.702
627.23	0.702
627.42	0.698
627.61	0.700
627.80	0.702
628.00	0.703
628.19	0.701
628.38	0.705
628.57	0.706
628.76	0.705
628.96	0.702
629.15	0.703
629.34	0.704
629.53	0.706
629.72	0.700
629.91	0.702
630.11	0.705
630.30	0.706
630.49	0.708
630.68	0.709
630.87	0.712
631.06	0.715
631.26	0.710
631.45	0.713
631.64	0.720
631.83	0.722
632.02	0.719
632.21	0.718
632.41	0.724
632.60	0.719
632.79	0.716
632.98	0.716
633.17	0.716
633.36	0.718
633.55	0.715
633.75	0.712
633.94	0.713
634.13	0.713
634.32	0.711
634.51	0.706
634.70	0.708
634.89	0.708
635.09	0.705
635.28	0.706
635.47	0.706
635.66	0.708
635.85	0.704
636.04	0.705
636.23	0.709
636.43	0.711
636.62	0.711
636.81	0.709
637.00	0.711
637.19	0.714
637.38	0.712
637.57	0.711
637.76	0.713
637.95	0.714
638.15	0.711
638.34	0.708
638.53	0.710
638.72	0.711
638.91	0.709
639.10	0.708
639.29	0.708
639.48	0.709
639.67	0.710
639.87	0.709
640.06	0.715
640.25	0.715
640.44	0.716
640.63	0.718
640.82	0.720
641.01	0.719
641.20	0.718
641.39	0.719
641.58	0.721
641.78	0.719
641.97	0.715
642.16	0.728
642.35	0.727
642.54	0.725
642.73	0.720
642.92	0.718
643.11	0.721
643.30	0.722
643.49	0.717
643.68	0.720
643.87	0.721
644.06	0.721
644.25	0.702
644.45	0.705
644.64	0.705
644.83	0.706
645.02	0.702
645.21	0.702
645.40	0.702
645.59	0.702
645.78	0.696
645.97	0.698
646.16	0.699
646.35	0.699
646.54	0.698
646.73	0.699
646.92	0.701
647.11	0.701
647.30	0.697
647.49	0.700
647.68	0.699
647.88	0.698
648.07	0.692
648.26	0.695
648.45	0.696
648.64	0.693
648.83	0.691
649.02	0.693
649.21	0.703
649.40	0.702
649.59	0.697
649.78	0.698
649.97	0.713
650.16	0.712
650.35	0.706
650.54	0.709
650.73	0.716
650.92	0.712
651.11	0.705
651.30	0.704
651.49	0.708
651.68	0.709
651.87	0.706
652.06	0.696
652.25	0.700
652.44	0.704
652.63	0.704
652.82	0.706
653.01	0.707
653.20	0.705
653.39	0.694
653.58	0.692
653.77	0.691
653.96	0.686
654.15	0.679
654.34	0.676
654.53	0.671
654.72	0.664
654.91	0.654
655.10	0.650
655.29	0.648
655.48	0.646
655.67	0.640
655.86	0.638
656.05	0.637
656.24	0.636
656.43	0.631
656.62	0.630
656.81	0.629
657.00	0.625
657.19	0.622
657.38	0.621
657.57	0.619
657.76	0.620
657.95	0.618
658.14	0.620
658.33	0.622
658.51	0.626
658.70	0.626
658.89	0.628
659.08	0.638
659.27	0.646
659.46	0.647
659.65	0.654
659.84	0.657
660.03	0.660
660.22	0.662
660.41	0.666
660.60	0.666
660.79	0.666
660.98	0.672
661.17	0.671
661.36	0.669
661.55	0.670
661.74	0.669
661.92	0.672
662.11	0.674
662.30	0.673
662.49	0.666
662.68	0.665
662.87	0.668
663.06	0.662
663.25	0.663
663.44	0.664
663.63	0.664
663.82	0.663
664.01	0.658
664.20	0.657
664.38	0.658
664.57	0.659
664.76	0.659
664.95	0.659
665.14	0.664
665.33	0.660
665.52	0.667
665.71	0.671
665.90	0.670
666.09	0.672
666.28	0.669
666.46	0.667
666.65	0.668
666.84	0.665
667.03	0.661
667.22	0.659
667.41	0.662
667.60	0.652
667.79	0.644
667.98	0.645
668.16	0.646
668.35	0.646
668.54	0.644
668.73	0.644
668.92	0.645
669.11	0.643
669.30	0.638
669.49	0.635
669.67	0.637
669.86	0.639
670.05	0.637
670.24	0.635
670.43	0.633
670.62	0.632
670.81	0.628
671.00	0.629
671.18	0.629
671.37	0.627
671.56	0.626
671.75	0.625
671.94	0.621
672.13	0.619
672.32	0.615
672.50	0.614
672.69	0.614
672.88	0.614
673.07	0.610
673.26	0.611
673.45	0.612
673.63	0.612
673.82	0.609
674.01	0.610
674.20	0.610
674.39	0.610
674.58	0.610
674.76	0.609
674.95	0.608
675.14	0.608
675.33	0.604
675.52	0.603
675.71	0.602
675.89	0.602
676.08	0.599
676.27	0.599
676.46	0.599
676.65	0.599
676.84	0.599
677.02	0.600
677.21	0.602
677.40	0.601
677.59	0.599
677.78	0.600
677.96	0.602
678.15	0.601
678.34	0.599
678.53	0.600
678.72	0.599
678.90	0.596
679.09	0.592
679.28	0.589
679.47	0.589
679.66	0.588
679.84	0.585
680.03	0.582
680.22	0.581
680.41	0.583
680.60	0.579
680.78	0.578
680.97	0.580
681.16	0.579
681.35	0.578
681.53	0.577
681.72	0.578
681.91	0.581
682.10	0.579
682.29	0.582
682.47	0.579
682.66	0.578
682.85	0.577
683.04	0.575
683.22	0.575
683.41	0.577
683.60	0.576
683.79	0.577
683.97	0.575
684.16	0.574
684.35	0.571
684.54	0.572
684.72	0.573
684.91	0.574
685.10	0.572
685.29	0.573
685.47	0.570
685.66	0.569
685.85	0.566
686.04	0.565
686.22	0.567
686.41	0.569
686.60	0.567
686.79	0.570
686.97	0.571
687.16	0.572
687.35	0.570
687.54	0.573
687.72	0.577
687.91	0.577
688.10	0.579
688.29	0.578
688.47	0.577
688.66	0.576
688.85	0.572
689.03	0.570
689.22	0.574
689.41	0.574
689.60	0.570
689.78	0.568
689.97	0.569
690.16	0.566
690.34	0.563
690.53	0.562
690.72	0.563
690.91	0.561
691.09	0.559
691.28	0.553
691.47	0.552
691.65	0.550
691.84	0.547
692.03	0.546
692.21	0.544
692.40	0.543
692.59	0.541
692.77	0.539
692.96	0.540
693.15	0.541
693.34	0.538
693.52	0.538
693.71	0.538
693.90	0.539
694.08	0.540
694.27	0.541
694.46	0.549
694.64	0.550
694.83	0.550
695.02	0.549
695.20	0.549
695.39	0.549
695.58	0.550
695.76	0.550
695.95	0.550
696.14	0.548
696.32	0.546
696.51	0.537
696.70	0.538
696.88	0.538
697.07	0.537
697.26	0.539
697.44	0.539
697.63	0.538
697.81	0.537
698.00	0.536
698.19	0.535
698.37	0.536
698.56	0.535
698.75	0.534
698.93	0.534
699.12	0.533
699.31	0.532
699.49	0.532
699.68	0.533
699.87	0.535
700.05	0.534
700.24	0.534
700.42	0.535
700.61	0.535
700.80	0.533
700.98	0.534
701.17	0.535
701.36	0.534
701.54	0.533
701.73	0.534
701.91	0.532
702.10	0.531
702.29	0.529
702.47	0.528
702.66	0.530
702.84	0.532
703.03	0.531
703.22	0.532
703.40	0.531
703.59	0.532
703.77	0.532
703.96	0.532
704.15	0.533
704.33	0.533
704.52	0.533
704.70	0.532
704.89	0.532
705.08	0.530
705.26	0.526
705.45	0.526
705.63	0.526
705.82	0.523
706.00	0.522
706.19	0.521
706.38	0.521
706.56	0.521
706.75	0.519
706.93	0.518
707.12	0.519
707.30	0.520
707.49	0.517
707.68	0.516
707.86	0.515
708.05	0.515
708.23	0.512
708.42	0.512
708.60	0.514
708.79	0.515
708.98	0.513
709.16	0.512
709.35	0.514
709.53	0.517
709.72	0.516
709.90	0.518
710.09	0.519
710.27	0.522
710.46	0.526
710.64	0.524
710.83	0.526
711.02	0.527
711.20	0.526
711.39	0.525
711.57	0.523
711.76	0.524
711.94	0.522
712.13	0.524
712.31	0.523
712.50	0.518
712.68	0.516
712.87	0.517
713.05	0.517
713.24	0.518
713.42	0.517
713.61	0.517
713.79	0.517
713.98	0.518
714.16	0.518
714.35	0.518
714.54	0.519
714.72	0.519
714.91	0.517
715.09	0.523
715.28	0.526
715.46	0.526
715.65	0.524
715.83	0.524
716.02	0.526
716.20	0.524
716.39	0.522
716.57	0.523
716.76	0.524
716.94	0.524
717.12	0.517
717.31	0.517
717.49	0.520
717.68	0.522
717.86	0.522
718.05	0.523
718.23	0.525
718.42	0.527
718.60	0.529
718.79	0.536
718.97	0.538
719.16	0.539
719.34	0.536
719.53	0.535
719.71	0.535
719.90	0.536
720.08	0.533
720.27	0.533
720.45	0.532
720.63	0.531
720.82	0.525
721.00	0.528
721.19	0.531
721.37	0.531
721.56	0.532
721.74	0.534
721.93	0.543
722.11	0.549
722.30	0.549
722.48	0.554
722.66	0.554
722.85	0.555
723.03	0.554
723.22	0.553
723.40	0.556
723.59	0.555
723.77	0.560
723.95	0.553
724.14	0.556
724.32	0.558
724.51	0.557
724.69	0.559
724.88	0.558
725.06	0.557
725.24	0.559
725.43	0.560
725.61	0.562
725.80	0.556
725.98	0.554
726.16	0.551
726.35	0.556
726.53	0.556
726.72	0.555
726.90	0.565
727.09	0.566
727.27	0.571
727.45	0.570
727.64	0.579
727.82	0.587
728.01	0.591
728.19	0.589
728.37	0.593
728.56	0.596
728.74	0.601
728.92	0.590
729.11	0.593
729.29	0.591
729.48	0.593
729.66	0.584
729.84	0.584
730.03	0.587
730.21	0.589
730.40	0.580
730.58	0.583
730.76	0.583
730.95	0.584
731.13	0.585
731.31	0.598
731.50	0.606
731.68	0.609
731.86	0.606
732.05	0.619
732.23	0.622
732.42	0.625
732.60	0.628
732.78	0.634
732.97	0.652
733.15	0.658
733.33	0.647
733.52	0.653
733.70	0.662
733.88	0.671
734.07	0.658
734.25	0.682
734.43	0.688
734.62	0.691
734.80	0.687
734.98	0.677
735.17	0.683
735.35	0.690
735.53	0.679
735.72	0.681
735.90	0.702
736.08	0.721
736.27	0.699
736.45	0.709
736.63	0.720
736.82	0.728
737.00	0.730
737.18	0.738
737.37	0.766
737.55	0.788
737.73	0.782
737.92	0.783
738.10	0.778
738.28	0.796
738.46	0.787
738.65	0.798
738.83	0.816
739.01	0.865
739.20	0.858
739.38	0.842
739.56	0.831
739.75	0.839
739.93	0.812
740.11	0.834
740.29	0.835
740.48	0.841
740.66	0.821
740.84	0.815
741.03	0.778
741.21	0.788
741.39	0.771
741.57	0.784
741.76	0.799
741.94	0.805
742.12	0.777
742.31	0.783
742.49	0.797
742.67	0.820
742.85	0.835
743.04	0.840
743.22	0.850
743.40	0.899
743.58	0.883
743.77	0.896
743.95	0.920
744.13	0.965
744.31	0.945
744.50	0.937
744.68	0.928
744.86	0.907
745.04	0.921
745.23	0.978
745.41	0.958
745.59	0.960
745.77	0.933
745.96	0.923
746.14	0.929
746.32	0.928
746.50	0.923
746.69	0.915
746.87	0.920
747.05	0.904
747.23	0.840
747.42	0.828
747.60	0.849
747.78	0.850
747.96	0.879
748.14	0.841
748.33	0.867
748.51	0.862
748.69	0.855
748.87	0.880
749.06	0.874
749.24	0.871
749.42	0.863
749.60	0.848
749.78	0.854
749.97	0.813
750.15	0.807
750.33	0.807
750.51	0.830
750.69	0.835
750.88	0.840
751.06	0.851
751.24	0.874
751.42	0.862
751.60	0.854
751.79	0.920
751.97	0.958
752.15	0.950
752.33	0.922
752.51	0.969
752.69	0.979
752.88	0.952
753.06	0.990
753.24	0.968
753.42	0.998
753.60	1.139
753.78	1.022
753.97	1.040
754.15	1.059
754.33	1.092
754.51	0.994
754.69	0.981
754.87	1.006
755.06	0.945
755.24	0.946
755.42	0.953
755.60	0.863
755.78	0.870
755.96	0.822
756.15	0.820
756.33	0.822
756.51	0.839
756.69	0.828
756.87	0.795
757.05	0.810
757.23	0.797
757.42	0.771
757.60	0.770
757.78	0.759
757.96	0.758
758.14	0.744
758.32	0.729
758.50	0.736
758.69	0.734
758.87	0.731
759.05	0.734
759.23	0.740
759.41	0.738
759.59	0.730
759.77	0.750
759.95	0.771
760.13	0.817
760.32	0.815
760.50	0.811
760.68	0.830
760.86	0.829
761.04	0.806
761.22	0.810
761.40	0.854
761.58	0.855
761.76	0.831
761.95	0.816
762.13	0.773
762.31	0.777
762.49	0.752
762.67	0.770
762.85	0.780
763.03	0.777
763.21	0.762
763.39	0.742
763.57	0.745
763.75	0.743
763.94	0.730
764.12	0.732
764.30	0.753
764.48	0.758
764.66	0.725
764.84	0.723
765.02	0.756
765.20	0.762
765.38	0.746
765.56	0.748
765.74	0.780
765.92	0.781
766.10	0.788
766.28	0.779
766.46	0.799
766.65	0.800
766.83	0.791
767.01	0.777
767.19	0.780
767.37	0.780
767.55	0.771
767.73	0.754
767.91	0.755
768.09	0.745
768.27	0.737
768.45	0.729
768.63	0.734
768.81	0.737
768.99	0.715
769.17	0.736
769.35	0.748
769.53	0.747
769.71	0.733
769.89	0.739
770.07	0.741
770.25	0.726
770.43	0.708
770.61	0.729
770.79	0.731
770.97	0.738
771.15	0.712
771.33	0.713
771.51	0.716
771.69	0.723
771.87	0.731
772.05	0.737
772.24	0.742
772.42	0.749
772.60	0.729
772.78	0.783
772.96	0.807
773.14	0.803
773.32	0.785
773.49	0.790
773.67	0.790
773.85	0.772
774.03	0.763
774.21	0.791
774.39	0.796
774.57	0.818
774.75	0.757
774.93	0.752
775.11	0.768
775.29	0.777
775.47	0.777
775.65	0.785
775.83	0.800
776.01	0.817
776.19	0.781
776.37	0.783
776.55	0.780
776.73	0.776
776.91	0.773
777.09	0.762
777.27	0.758
777.45	0.749
777.63	0.727
777.81	0.723
777.99	0.712
778.17	0.709
778.35	0.695
778.53	0.683
778.71	0.688
778.89	0.676
779.07	0.665
779.24	0.670
779.42	0.671
779.60	0.688
779.78	0.685
779.96	0.689
780.14	0.695
780.32	0.712
780.50	0.698
780.68	0.697
780.86	0.690
781.04	0.707
781.22	0.712
781.40	0.718
781.58	0.711
781.75	0.705
781.93	0.690
782.11	0.691
782.29	0.677
782.47	0.677
782.65	0.667
782.83	0.692
783.01	0.684
783.19	0.678
783.37	0.668
783.55	0.670
783.72	0.683
783.90	0.693
784.08	0.687
784.26	0.696
784.44	0.717
784.62	0.719
784.80	0.691
784.98	0.699
785.16	0.704
785.33	0.715
785.51	0.704
785.69	0.692
785.87	0.689
786.05	0.701
786.23	0.701
786.41	0.697
786.59	0.704
786.77	0.704
786.94	0.692
787.12	0.694
787.30	0.696
787.48	0.693
787.66	0.685
787.84	0.688
788.02	0.675
788.19	0.671
788.37	0.659
788.55	0.661
788.73	0.660
788.91	0.654
789.09	0.640
789.27	0.628
789.44	0.640
789.62	0.645
789.80	0.651
789.98	0.674
790.16	0.662
790.34	0.657
790.51	0.647
790.69	0.665
790.87	0.670
791.05	0.669
791.23	0.665
791.41	0.664
791.58	0.670
791.76	0.653
791.94	0.627
792.12	0.635
792.30	0.638
792.48	0.636
792.65	0.629
792.83	0.636
793.01	0.640
793.19	0.637
793.37	0.627
793.54	0.623
793.72	0.633
793.90	0.632
794.08	0.623
794.26	0.623
794.43	0.627
794.61	0.612
794.79	0.602
794.97	0.602
795.15	0.606
795.32	0.608
795.50	0.597
795.68	0.590
795.86	0.593
796.04	0.594
796.21	0.590
796.39	0.589
796.57	0.601
796.75	0.608
796.92	0.611
797.10	0.614
797.28	0.616
797.46	0.621
797.64	0.622
797.81	0.628
797.99	0.630
798.17	0.633
798.35	0.630
798.52	0.632
798.70	0.627
798.88	0.636
799.06	0.637
799.23	0.639
799.41	0.646
799.59	0.641
799.77	0.633
799.94	0.642
800.12	0.650
800.30	0.666
800.48	0.669
800.65	0.669
800.83	0.657
801.01	0.650
801.19	0.651
801.36	0.646
801.54	0.649
801.72	0.657
801.90	0.644
802.07	0.640
802.25	0.625
802.43	0.610
802.60	0.606
802.78	0.613
802.96	0.616
803.14	0.611
803.31	0.610
803.49	0.609
803.67	0.604
803.84	0.610
804.02	0.603
804.20	0.605
804.38	0.609
804.55	0.609
804.73	0.596
804.91	0.598
805.08	0.609
805.26	0.605
805.44	0.667
805.61	0.669
805.79	0.666
805.97	0.667
806.15	0.661
806.32	0.657
806.50	0.662
806.68	0.663
806.85	0.655
807.03	0.643
807.21	0.656
807.38	0.595
807.56	0.587
807.74	0.597
807.91	0.599
808.09	0.602
808.27	0.618
808.44	0.640
808.62	0.646
808.80	0.648
808.97	0.642
809.15	0.639
809.33	0.651
809.50	0.659
809.68	0.647
809.86	0.658
810.03	0.683
810.21	0.668
810.39	0.653
810.56	0.659
810.74	0.679
810.91	0.747
811.09	0.738
811.27	0.758
811.44	0.760
811.62	0.765
811.80	0.748
811.97	0.722
812.15	0.719
812.33	0.716
812.50	0.704
812.68	0.695
812.85	0.643
813.03	0.646
813.21	0.618
813.38	0.614
813.56	0.613
813.74	0.622
813.91	0.631
814.09	0.658
814.26	0.651
814.44	0.654
814.62	0.646
814.79	0.651
814.97	0.654
815.14	0.657
815.32	0.660
815.50	0.676
815.67	0.678
815.85	0.667
816.02	0.658
816.20	0.665
816.38	0.676
816.55	0.679
816.73	0.679
816.90	0.688
817.08	0.715
817.26	0.720
817.43	0.702
817.61	0.722
817.78	0.739
817.96	0.720
818.13	0.710
818.31	0.711
818.49	0.722
818.66	0.714
818.84	0.705
819.01	0.685
819.19	0.688
819.36	0.690
819.54	0.665
819.71	0.705
819.89	0.716
820.07	0.727
820.24	0.726
820.42	0.724
820.59	0.740
820.77	0.761
820.94	0.757
821.12	0.776
821.29	0.789
821.47	0.794
821.64	0.737
821.82	0.748
822.00	0.744
822.17	0.740
822.35	0.735
822.52	0.736
822.70	0.724
822.87	0.732
823.05	0.715
823.22	0.725
823.40	0.744
823.57	0.764
823.75	0.751
823.92	0.775
824.10	0.787
824.27	0.826
824.45	0.821
824.62	0.871
824.80	0.882
824.97	0.894
825.15	0.887
825.32	0.900
825.50	0.900
825.67	0.910
825.85	0.892
826.02	0.913
826.20	0.931
826.37	1.041
826.55	0.979
826.72	1.149
826.90	1.211
827.07	1.255
827.25	1.215
827.42	1.353
827.60	1.448
827.77	1.581
827.95	1.600
828.12	1.663
828.30	1.353
828.47	1.445
828.65	1.151
828.82	1.188
829.00	1.238
829.17	1.320
829.34	1.331
829.52	1.389
829.69	-0.000
829.87	-0.000
830.04	-0.000
830.22	-0.000
830.39	-0.000
830.57	-0.000
830.74	-0.000
830.92	-0.000
831.09	-0.000
831.26	-0.000
831.44	-0.000
831.61	-0.000
831.79	-0.000
831.96	-0.000
832.14	-0.000
832.31	-0.000
832.49	-0.000
832.66	-0.000
832.83	-0.000
833.01	-0.000
833.18	-0.000
833.36	-0.000
833.53	-0.000
833.70	-0.000
833.88	-0.000
834.05	-0.000
834.23	-0.000
834.40	-0.000
834.58	-0.000
834.75	-0.000
834.92	-0.000
835.10	-0.000
835.27	-0.000
835.45	-0.000
835.62	-0.000
835.79	-0.000
835.97	-0.000
836.14	-0.000
836.32	-0.000
836.49	-0.000
836.66	-0.000
836.84	-0.000
837.01	-0.000
837.18	-0.000
837.36	-0.000
837.53	-0.000
837.71	-0.000
837.88	-0.000
838.05	-0.000
838.23	-0.000
838.40	-0.000
838.58	-0.000
838.75	-0.000
838.92	-0.000
839.10	-0.000
839.27	-0.000
839.44	-0.000
839.62	-0.000
839.79	-0.000
839.96	-0.000
840.14	-0.000
840.31	-0.000
840.48	-0.000
840.66	-0.000
840.83	-0.000
841.01	-0.000
841.18	-0.000
841.35	-0.000
841.53	-0.000
841.70	-0.000
841.87	-0.000
842.05	-0.000
842.22	-0.000
842.39	-0.000
842.57	-0.000
842.74	-0.000
842.91	-0.000
843.09	-0.000
843.26	-0.000
843.43	-0.000
843.60	-0.000
843.78	-0.000
843.95	-0.000
844.12	-0.000
844.30	-0.000
844.47	-0.000
844.64	-0.000
844.82	-0.000
844.99	-0.000
845.16	-0.000
845.34	-0.000
845.51	-0.000
845.68	-0.000
845.85	-0.000
846.03	-0.000
846.20	-0.000
846.37	-0.000
846.55	-0.000
846.72	-0.000
846.89	-0.000
847.06	-0.000
847.24	-0.000
847.41	-0.000
847.58	-0.000
847.76	-0.000
847.93	-0.000
848.10	-0.000
848.27	-0.000
848.45	-0.000
848.62	-0.000
848.79	-0.000
848.97	-0.000
849.14	-0.000
849.31	-0.000
849.48	-0.000
849.66	-0.000
849.83	-0.000
850.00	-0.000
850.17	-0.000
850.35	-0.000
850.52	-0.000
850.69	-0.000
850.86	-0.000
851.04	-0.000
851.21	-0.000
851.38	-0.000
851.55	-0.000
851.72	-0.000
851.90	-0.000
852.07	-0.000
852.24	-0.000
852.41	-0.000
852.59	-0.000
852.76	-0.000
852.93	-0.000
853.10	-0.000
853.28	-0.000
853.45	-0.000
853.62	-0.000
853.79	-0.000
853.96	-0.000
854.14	-0.000
854.31	-0.000
854.48	-0.000
854.65	-0.000
854.82	-0.000
855.00	-0.000
855.17	-0.000
855.34	-0.000
855.51	-0.000
855.68	-0.000
855.86	-0.000
856.03	-0.000
856.20	-0.000
856.37	-0.000
856.54	-0.000
856.72	-0.000
856.89	-0.000
857.06	-0.000
857.23	-0.000
857.40	-0.000
857.57	-0.000
857.75	-0.000
857.92	-0.000
858.09	-0.000
858.26	-0.000
858.43	-0.000
858.60	-0.000
858.78	-0.000
858.95	-0.000
859.12	-0.000
859.29	-0.000
859.46	-0.000
859.63	-0.000
859.81	-0.000
859.98	-0.000
860.15	-0.000
860.32	-0.000
860.49	-0.000
860.66	-0.000
860.83	-0.000
861.01	-0.000
861.18	-0.000
861.35	-0.000
861.52	-0.000
861.69	-0.000
861.86	-0.000
862.03	-0.000
862.21	-0.000
862.38	-0.000
862.55	-0.000
862.72	-0.000
862.89	-0.000
863.06	-0.000
863.23	-0.000
863.40	-0.000
863.58	-0.000
863.75	-0.000
863.92	-0.000
864.09	-0.000
864.26	-0.000
864.43	-0.000
864.60	-0.000
864.77	-0.000
864.94	-0.000
865.11	-0.000
865.29	-0.000
865.46	-0.000
865.63	-0.000
865.80	-0.000
865.97	-0.000
866.14	-0.000
866.31	-0.000
866.48	-0.000
866.65	-0.000
866.82	-0.000
866.99	-0.000
867.16	-0.000
867.34	-0.000
867.51	-0.000
867.68	-0.000
867.85	-0.000
868.02	-0.000
868.19	-0.000
868.36	-0.000
868.53	-0.000
868.70	-0.000
868.87	-0.000
869.04	-0.000
869.21	-0.000
869.38	-0.000
869.55	-0.000
869.72	-0.000
869.89	-0.000
870.06	-0.000
870.24	-0.000
870.41	-0.000
870.58	-0.000
870.75	-0.000
870.92	-0.000
871.09	-0.000
871.26	-0.000
871.43	-0.000
871.60	-0.000
871.77	-0.000
871.94	-0.000
872.11	-0.000
872.28	-0.000
872.45	-0.000
872.62	-0.000
872.79	-0.000
872.96	-0.000
873.13	-0.000
873.30	-0.000
873.47	-0.000
873.64	-0.000
873.81	-0.000
873.98	-0.000
874.15	-0.000
874.32	-0.000
874.49	-0.000
874.66	-0.000
874.83	-0.000
875.00	-0.000
875.17	-0.000
875.34	-0.000
875.51	-0.000
875.68	-0.000
875.85	-0.000
876.02	-0.000
876.19	-0.000
876.36	-0.000
876.53	-0.000
876.70	-0.000
876.87	-0.000
877.04	-0.000
877.21	-0.000
877.38	-0.000
877.55	-0.000
877.72	-0.000
877.89	-0.000
878.06	-0.000
878.23	-0.000
878.39	-0.000
878.56	-0.000
878.73	-0.000
878.90	-0.000
879.07	-0.000
879.24	-0.000
879.41	-0.000
879.58	-0.000
879.75	-0.000
879.92	-0.000
880.09	-0.000
880.26	-0.000
880.43	-0.000
880.60	-0.000
880.77	-0.000
880.94	-0.000
881.11	-0.000
881.27	-0.000
881.44	-0.000
881.61	-0.000
881.78	-0.000
881.95	-0.000
882.12	-0.000
882.29	-0.000
882.46	-0.000
882.63	-0.000
882.80	-0.000
882.97	-0.000
883.14	-0.000
883.30	-0.000
883.47	-0.000
883.64	-0.000
883.81	-0.000
883.98	-0.000
884.15	-0.000
884.32	-0.000
884.49	-0.000
884.66	-0.000
884.82	-0.000
884.99	-0.000
885.16	-0.000
885.33	-0.000
885.50	-0.000
885.67	-0.000
885.84	-0.000
886.01	-0.000
886.17	-0.000
886.34	-0.000
886.51	-0.000
886.68	-0.000
886.85	-0.000
887.02	-0.000
887.19	-0.000
887.36	-0.000
887.52	-0.000
887.69	-0.000
887.86	-0.000
888.03	-0.000
888.20	-0.000
888.37	-0.000
888.54	-0.000
888.70	-0.000
888.87	-0.000
889.04	-0.000
889.21	-0.000
889.38	-0.000
889.55	-0.000
889.71	-0.000
889.88	-0.000
890.05	-0.000
890.22	-0.000
890.39	-0.000
>>>>>End Processed Spectral Data<<<<<
