SpectraSuite Data File
++++++++++++++++++++++++++++++++++++
Date: Fri Jun 19 12:59:27 CEST 2015
User: introlabs
Dark Spectrum Present: Yes
Reference Spectrum Present: Yes
Number of Sampled Component Spectra: 1
Spectrometers: USB4H08886
Integration Time (usec): 745692 (USB4H08886)
Spectra Averaged: 5 (USB4H08886)
Boxcar Smoothing: 5 (USB4H08886)
Correct for Electrical Dark: Yes (USB4H08886)
Strobe/Lamp Enabled: No (USB4H08886)
Correct for Detector Non-linearity: Yes (USB4H08886)
Correct for Stray Light: Yes (USB4H08886)
Number of Pixels in Processed Spectrum: 3648
>>>>>Begin Processed Spectral Data<<<<<
178.14	-0.000
178.36	-0.000
178.57	-0.000
178.79	-0.000
179.01	-0.000
179.22	-0.000
179.44	-0.000
179.65	-0.000
179.87	-0.000
180.08	-0.000
180.30	-0.000
180.52	-0.000
180.73	-0.000
180.95	-0.000
181.16	-0.000
181.38	-0.000
181.59	-0.000
181.81	-0.000
182.03	-0.000
182.24	-0.000
182.46	-0.000
182.67	-0.000
182.89	-0.000
183.10	-0.000
183.32	-0.000
183.54	-0.000
183.75	-0.000
183.97	-0.000
184.18	-0.000
184.40	-0.000
184.61	-0.000
184.83	-0.000
185.04	-0.000
185.26	-0.000
185.48	-0.000
185.69	-0.000
185.91	-0.000
186.12	-0.000
186.34	-0.000
186.55	-0.000
186.77	-0.000
186.98	-0.000
187.20	-0.000
187.42	-0.000
187.63	-0.000
187.85	-0.000
188.06	-0.000
188.28	-0.000
188.49	-0.000
188.71	-0.000
188.92	-0.000
189.14	-0.000
189.36	-0.000
189.57	-0.000
189.79	-0.000
190.00	-0.000
190.22	-0.000
190.43	-0.000
190.65	-0.000
190.86	-0.000
191.08	-0.000
191.29	-0.000
191.51	-0.000
191.72	-0.000
191.94	-0.000
192.16	-0.000
192.37	-0.000
192.59	-0.000
192.80	-0.000
193.02	-0.000
193.23	-0.000
193.45	-0.000
193.66	-0.000
193.88	-0.000
194.09	-0.000
194.31	-0.000
194.52	-0.000
194.74	-0.000
194.95	-0.000
195.17	-0.000
195.38	-0.000
195.60	-0.000
195.81	-0.000
196.03	-0.000
196.25	-0.000
196.46	-0.000
196.68	-0.000
196.89	-0.000
197.11	-0.000
197.32	-0.000
197.54	-0.000
197.75	-0.000
197.97	-0.000
198.18	-0.000
198.40	-0.000
198.61	-0.000
198.83	-0.000
199.04	-0.000
199.26	-0.000
199.47	-0.000
199.69	-0.000
199.90	-0.000
200.12	-0.000
200.33	-0.000
200.55	-0.000
200.76	-0.000
200.98	-0.000
201.19	-0.000
201.41	-0.000
201.62	-0.000
201.84	-0.000
202.05	-0.000
202.27	-0.000
202.48	-0.000
202.70	-0.000
202.91	-0.000
203.13	-0.000
203.34	-0.000
203.56	-0.000
203.77	-0.000
203.99	-0.000
204.20	-0.000
204.42	-0.000
204.63	-0.000
204.85	-0.000
205.06	-0.000
205.28	-0.000
205.49	-0.000
205.71	-0.000
205.92	-0.000
206.14	-0.000
206.35	-0.000
206.56	-0.000
206.78	-0.000
206.99	-0.000
207.21	-0.000
207.42	-0.000
207.64	-0.000
207.85	-0.000
208.07	-0.000
208.28	-0.000
208.50	-0.000
208.71	-0.000
208.93	-0.000
209.14	-0.000
209.36	-0.000
209.57	-0.000
209.79	-0.000
210.00	-0.000
210.22	-0.000
210.43	-0.000
210.64	-0.000
210.86	-0.000
211.07	-0.000
211.29	-0.000
211.50	-0.000
211.72	-0.000
211.93	-0.000
212.15	-0.000
212.36	-0.000
212.58	-0.000
212.79	-0.000
213.01	-0.000
213.22	-0.000
213.43	-0.000
213.65	-0.000
213.86	-0.000
214.08	-0.000
214.29	-0.000
214.51	-0.000
214.72	-0.000
214.94	-0.000
215.15	-0.000
215.36	-0.000
215.58	-0.000
215.79	-0.000
216.01	-0.000
216.22	-0.000
216.44	-0.000
216.65	-0.000
216.87	-0.000
217.08	-0.000
217.29	-0.000
217.51	-0.000
217.72	-0.000
217.94	-0.000
218.15	-0.000
218.37	-0.000
218.58	-0.000
218.80	-0.000
219.01	-0.000
219.22	-0.000
219.44	-0.000
219.65	-0.000
219.87	-0.000
220.08	-0.000
220.30	-0.000
220.51	-0.000
220.72	-0.000
220.94	-0.000
221.15	-0.000
221.37	-0.000
221.58	-0.000
221.79	-0.000
222.01	-0.000
222.22	-0.000
222.44	-0.000
222.65	-0.000
222.87	-0.000
223.08	-0.000
223.29	-0.000
223.51	-0.000
223.72	-0.000
223.94	-0.000
224.15	-0.000
224.36	-0.000
224.58	-0.000
224.79	-0.000
225.01	-0.000
225.22	-0.000
225.44	-0.000
225.65	-0.000
225.86	-0.000
226.08	-0.000
226.29	-0.000
226.51	-0.000
226.72	-0.000
226.93	-0.000
227.15	-0.000
227.36	-0.000
227.58	-0.000
227.79	-0.000
228.00	-0.000
228.22	-0.000
228.43	-0.000
228.65	-0.000
228.86	-0.000
229.07	-0.000
229.29	-0.000
229.50	-0.000
229.72	-0.000
229.93	-0.000
230.14	-0.000
230.36	-0.000
230.57	-0.000
230.78	-0.000
231.00	-0.000
231.21	-0.000
231.43	-0.000
231.64	-0.000
231.85	-0.000
232.07	-0.000
232.28	-0.000
232.50	-0.000
232.71	-0.000
232.92	-0.000
233.14	-0.000
233.35	-0.000
233.56	-0.000
233.78	-0.000
233.99	-0.000
234.21	-0.000
234.42	-0.000
234.63	-0.000
234.85	-0.000
235.06	-0.000
235.27	-0.000
235.49	-0.000
235.70	-0.000
235.91	-0.000
236.13	-0.000
236.34	-0.000
236.56	-0.000
236.77	-0.000
236.98	-0.000
237.20	-0.000
237.41	-0.000
237.62	-0.000
237.84	-0.000
238.05	-0.000
238.26	-0.000
238.48	-0.000
238.69	-0.000
238.91	-0.000
239.12	-0.000
239.33	-0.000
239.55	-0.000
239.76	-0.000
239.97	-0.000
240.19	-0.000
240.40	-0.000
240.61	-0.000
240.83	-0.000
241.04	-0.000
241.25	-0.000
241.47	-0.000
241.68	-0.000
241.89	-0.000
242.11	-0.000
242.32	-0.000
242.53	-0.000
242.75	-0.000
242.96	-0.000
243.17	-0.000
243.39	-0.000
243.60	-0.000
243.81	-0.000
244.03	-0.000
244.24	-0.000
244.45	-0.000
244.67	-0.000
244.88	-0.000
245.09	-0.000
245.31	-0.000
245.52	-0.000
245.73	-0.000
245.95	-0.000
246.16	-0.000
246.37	-0.000
246.59	-0.000
246.80	-0.000
247.01	-0.000
247.23	-0.000
247.44	-0.000
247.65	-0.000
247.87	-0.000
248.08	-0.000
248.29	-0.000
248.51	-0.000
248.72	-0.000
248.93	-0.000
249.15	-0.000
249.36	-0.000
249.57	-0.000
249.78	-0.000
250.00	-0.000
250.21	-0.000
250.42	-0.000
250.64	-0.000
250.85	-0.000
251.06	-0.000
251.28	-0.000
251.49	-0.000
251.70	-0.000
251.92	-0.000
252.13	-0.000
252.34	-0.000
252.55	-0.000
252.77	-0.000
252.98	-0.000
253.19	-0.000
253.41	-0.000
253.62	-0.000
253.83	-0.000
254.05	-0.000
254.26	-0.000
254.47	-0.000
254.68	-0.000
254.90	-0.000
255.11	-0.000
255.32	-0.000
255.54	-0.000
255.75	-0.000
255.96	-0.000
256.17	-0.000
256.39	-0.000
256.60	-0.000
256.81	-0.000
257.03	-0.000
257.24	-0.000
257.45	-0.000
257.66	-0.000
257.88	-0.000
258.09	-0.000
258.30	-0.000
258.51	-0.000
258.73	-0.000
258.94	-0.000
259.15	-0.000
259.37	-0.000
259.58	-0.000
259.79	-0.000
260.00	-0.000
260.22	-0.000
260.43	-0.000
260.64	-0.000
260.85	-0.000
261.07	-0.000
261.28	-0.000
261.49	-0.000
261.71	-0.000
261.92	-0.000
262.13	-0.000
262.34	-0.000
262.56	-0.000
262.77	-0.000
262.98	-0.000
263.19	-0.000
263.41	-0.000
263.62	-0.000
263.83	-0.000
264.04	-0.000
264.26	-0.000
264.47	-0.000
264.68	-0.000
264.89	-0.000
265.11	-0.000
265.32	-0.000
265.53	-0.000
265.74	-0.000
265.96	-0.000
266.17	-0.000
266.38	-0.000
266.59	-0.000
266.81	-0.000
267.02	-0.000
267.23	-0.000
267.44	-0.000
267.65	-0.000
267.87	-0.000
268.08	-0.000
268.29	-0.000
268.50	-0.000
268.72	-0.000
268.93	-0.000
269.14	-0.000
269.35	-0.000
269.57	-0.000
269.78	-0.000
269.99	-0.000
270.20	-0.000
270.41	-0.000
270.63	-0.000
270.84	-0.000
271.05	-0.000
271.26	-0.000
271.48	-0.000
271.69	-0.000
271.90	-0.000
272.11	-0.000
272.32	-0.000
272.54	-0.000
272.75	-0.000
272.96	-0.000
273.17	-0.000
273.39	-0.000
273.60	-0.000
273.81	-0.000
274.02	-0.000
274.23	-0.000
274.45	-0.000
274.66	-0.000
274.87	-0.000
275.08	-0.000
275.29	-0.000
275.51	-0.000
275.72	-0.000
275.93	-0.000
276.14	-0.000
276.35	-0.000
276.57	-0.000
276.78	-0.000
276.99	-0.000
277.20	-0.000
277.41	-0.000
277.63	-0.000
277.84	-0.000
278.05	-0.000
278.26	-0.000
278.47	-0.000
278.69	-0.000
278.90	-0.000
279.11	-0.000
279.32	-0.000
279.53	-0.000
279.74	-0.000
279.96	-0.000
280.17	-0.000
280.38	-0.000
280.59	-0.000
280.80	-0.000
281.02	-0.000
281.23	-0.000
281.44	-0.000
281.65	-0.000
281.86	-0.000
282.07	-0.000
282.29	-0.000
282.50	-0.000
282.71	-0.000
282.92	-0.000
283.13	-0.000
283.35	-0.000
283.56	-0.000
283.77	-0.000
283.98	-0.000
284.19	-0.000
284.40	-0.000
284.62	-0.000
284.83	-0.000
285.04	-0.000
285.25	-0.000
285.46	-0.000
285.67	-0.000
285.88	-0.000
286.10	-0.000
286.31	-0.000
286.52	-0.000
286.73	-0.000
286.94	-0.000
287.15	-0.000
287.37	-0.000
287.58	-0.000
287.79	-0.000
288.00	-0.000
288.21	-0.000
288.42	-0.000
288.63	-0.000
288.85	-0.000
289.06	-0.000
289.27	-0.000
289.48	-0.000
289.69	-0.000
289.90	-0.000
290.11	-0.000
290.33	-0.000
290.54	-0.000
290.75	-0.000
290.96	-0.000
291.17	-0.000
291.38	-0.000
291.59	-0.000
291.81	-0.000
292.02	-0.000
292.23	-0.000
292.44	-0.000
292.65	-0.000
292.86	-0.000
293.07	-0.000
293.28	-0.000
293.50	-0.000
293.71	-0.000
293.92	-0.000
294.13	-0.000
294.34	-0.000
294.55	-0.000
294.76	-0.000
294.97	-0.000
295.19	-0.000
295.40	-0.000
295.61	-0.000
295.82	-0.000
296.03	-0.000
296.24	-0.000
296.45	-0.000
296.66	-0.000
296.87	-0.000
297.09	-0.000
297.30	-0.000
297.51	2.933
297.72	2.537
297.93	-0.000
298.14	-0.000
298.35	2.560
298.56	2.442
298.77	-0.000
298.99	-0.000
299.20	2.810
299.41	2.535
299.62	2.323
299.83	2.270
300.04	1.991
300.25	1.947
300.46	2.076
300.67	1.990
300.88	1.830
301.10	1.822
301.31	2.009
301.52	1.861
301.73	1.740
301.94	1.725
302.15	1.780
302.36	1.700
302.57	1.592
302.78	1.597
302.99	1.670
303.20	1.697
303.41	1.554
303.63	1.525
303.84	1.540
304.05	1.529
304.26	1.449
304.47	1.453
304.68	1.467
304.89	1.452
305.10	1.394
305.31	1.373
305.52	1.434
305.73	1.423
305.94	1.368
306.15	1.360
306.37	1.394
306.58	1.397
306.79	1.348
307.00	1.373
307.21	1.428
307.42	1.418
307.63	1.369
307.84	1.325
308.05	1.373
308.26	1.374
308.47	1.339
308.68	1.332
308.89	1.339
309.10	1.333
309.31	1.280
309.52	1.270
309.73	1.288
309.95	1.282
310.16	1.247
310.37	1.231
310.58	1.253
310.79	1.249
311.00	1.242
311.21	1.238
311.42	1.245
311.63	1.238
311.84	1.212
312.05	1.212
312.26	1.241
312.47	1.254
312.68	1.225
312.89	1.204
313.10	1.217
313.31	1.184
313.52	1.185
313.73	1.185
313.94	1.191
314.15	1.171
314.36	1.144
314.57	1.133
314.78	1.121
314.99	1.115
315.21	1.100
315.42	1.103
315.63	1.120
315.84	1.095
316.05	1.078
316.26	1.085
316.47	1.105
316.68	1.100
316.89	1.079
317.10	1.099
317.31	1.105
317.52	1.105
317.73	1.081
317.94	1.081
318.15	1.137
318.36	1.136
318.57	1.114
318.78	1.101
318.99	1.141
319.20	1.136
319.41	1.097
319.62	1.101
319.83	1.118
320.04	1.112
320.25	1.093
320.46	1.050
320.67	1.057
320.88	1.052
321.09	1.035
321.30	1.020
321.51	1.037
321.72	1.034
321.93	1.015
322.14	1.008
322.35	1.038
322.56	1.041
322.77	1.025
322.98	1.035
323.19	1.046
323.40	1.052
323.61	1.027
323.82	1.020
324.03	1.028
324.24	1.024
324.45	1.007
324.66	0.987
324.87	0.984
325.08	0.984
325.29	0.962
325.50	0.958
325.71	0.965
325.92	0.972
326.13	0.957
326.34	0.956
326.55	0.966
326.76	0.965
326.97	0.952
327.18	0.946
327.39	0.973
327.60	0.974
327.80	0.969
328.01	0.966
328.22	0.967
328.43	0.972
328.64	0.959
328.85	0.962
329.06	0.966
329.27	0.963
329.48	0.957
329.69	0.937
329.90	0.949
330.11	0.942
330.32	0.934
330.53	0.929
330.74	0.930
330.95	0.927
331.16	0.911
331.37	0.918
331.58	0.919
331.79	0.919
332.00	0.909
332.21	0.903
332.42	0.907
332.63	0.898
332.83	0.892
333.04	0.893
333.25	0.907
333.46	0.905
333.67	0.891
333.88	0.895
334.09	0.905
334.30	0.902
334.51	0.891
334.72	0.887
334.93	0.891
335.14	0.890
335.35	0.884
335.56	0.879
335.77	0.889
335.98	0.887
336.18	0.879
336.39	0.873
336.60	0.878
336.81	0.877
337.02	0.875
337.23	0.880
337.44	0.883
337.65	0.884
337.86	0.872
338.07	0.868
338.28	0.874
338.49	0.872
338.70	0.863
338.91	0.869
339.11	0.877
339.32	0.873
339.53	0.860
339.74	0.857
339.95	0.853
340.16	0.852
340.37	0.842
340.58	0.840
340.79	0.845
341.00	0.845
341.21	0.833
341.41	0.833
341.62	0.835
341.83	0.836
342.04	0.830
342.25	0.842
342.46	0.847
342.67	0.847
342.88	0.838
343.09	0.836
343.30	0.845
343.50	0.848
343.71	0.837
343.92	0.836
344.13	0.841
344.34	0.841
344.55	0.823
344.76	0.822
344.97	0.828
345.18	0.827
345.38	0.824
345.59	0.818
345.80	0.819
346.01	0.817
346.22	0.812
346.43	0.806
346.64	0.814
346.85	0.813
347.06	0.807
347.26	0.807
347.47	0.811
347.68	0.806
347.89	0.803
348.10	0.798
348.31	0.806
348.52	0.804
348.73	0.801
348.93	0.799
349.14	0.801
349.35	0.800
349.56	0.792
349.77	0.787
349.98	0.793
350.19	0.790
350.39	0.784
350.60	0.780
350.81	0.797
351.02	0.795
351.23	0.790
351.44	0.793
351.65	0.797
351.86	0.795
352.06	0.793
352.27	0.792
352.48	0.795
352.69	0.795
352.90	0.789
353.11	0.776
353.31	0.782
353.52	0.778
353.73	0.770
353.94	0.772
354.15	0.779
354.36	0.778
354.57	0.769
354.77	0.771
354.98	0.772
355.19	0.771
355.40	0.769
355.61	0.775
355.82	0.781
356.02	0.780
356.23	0.772
356.44	0.774
356.65	0.779
356.86	0.780
357.07	0.772
357.27	0.776
357.48	0.779
357.69	0.775
357.90	0.760
358.11	0.757
358.32	0.761
358.52	0.764
358.73	0.753
358.94	0.755
359.15	0.760
359.36	0.760
359.56	0.755
359.77	0.753
359.98	0.760
360.19	0.760
360.40	0.755
360.61	0.756
360.81	0.754
361.02	0.755
361.23	0.746
361.44	0.745
361.65	0.746
361.85	0.746
362.06	0.744
362.27	0.745
362.48	0.746
362.69	0.748
362.89	0.741
363.10	0.743
363.31	0.747
363.52	0.751
363.73	0.745
363.93	0.745
364.14	0.747
364.35	0.749
364.56	0.738
364.77	0.740
364.97	0.743
365.18	0.744
365.39	0.738
365.60	0.736
365.81	0.737
366.01	0.738
366.22	0.734
366.43	0.733
366.64	0.736
366.84	0.742
367.05	0.737
367.26	0.738
367.47	0.740
367.68	0.740
367.88	0.736
368.09	0.734
368.30	0.737
368.51	0.736
368.71	0.735
368.92	0.738
369.13	0.737
369.34	0.736
369.55	0.734
369.75	0.734
369.96	0.741
370.17	0.742
370.38	0.738
370.58	0.738
370.79	0.745
371.00	0.743
371.21	0.734
371.41	0.740
371.62	0.745
371.83	0.741
372.04	0.739
372.24	0.731
372.45	0.732
372.66	0.733
372.87	0.729
373.07	0.725
373.28	0.726
373.49	0.729
373.70	0.719
373.90	0.719
374.11	0.727
374.32	0.727
374.53	0.726
374.73	0.727
374.94	0.730
375.15	0.729
375.36	0.726
375.56	0.737
375.77	0.737
375.98	0.737
376.19	0.733
376.39	0.727
376.60	0.730
376.81	0.731
377.02	0.727
377.22	0.726
377.43	0.727
377.64	0.726
377.84	0.717
378.05	0.721
378.26	0.728
378.47	0.727
378.67	0.724
378.88	0.721
379.09	0.722
379.30	0.723
379.50	0.719
379.71	0.721
379.92	0.724
380.12	0.723
380.33	0.714
380.54	0.711
380.75	0.717
380.95	0.717
381.16	0.714
381.37	0.714
381.57	0.715
381.78	0.715
381.99	0.714
382.20	0.713
382.40	0.717
382.61	0.718
382.82	0.714
383.02	0.707
383.23	0.710
383.44	0.711
383.64	0.708
383.85	0.711
384.06	0.714
384.27	0.711
384.47	0.709
384.68	0.709
384.89	0.715
385.09	0.714
385.30	0.713
385.51	0.713
385.71	0.717
385.92	0.718
386.13	0.716
386.33	0.718
386.54	0.719
386.75	0.718
386.95	0.714
387.16	0.709
387.37	0.712
387.58	0.712
387.78	0.709
387.99	0.706
388.20	0.708
388.40	0.705
388.61	0.701
388.82	0.704
389.02	0.706
389.23	0.706
389.44	0.704
389.64	0.704
389.85	0.715
390.06	0.714
390.26	0.713
390.47	0.712
390.68	0.715
390.88	0.713
391.09	0.708
391.30	0.707
391.50	0.707
391.71	0.706
391.92	0.702
392.12	0.694
392.33	0.695
392.53	0.696
392.74	0.695
392.95	0.695
393.15	0.698
393.36	0.700
393.57	0.698
393.77	0.701
393.98	0.703
394.19	0.702
394.39	0.701
394.60	0.702
394.81	0.704
395.01	0.702
395.22	0.700
395.43	0.700
395.63	0.704
395.84	0.705
396.04	0.701
396.25	0.703
396.46	0.706
396.66	0.704
396.87	0.701
397.08	0.698
397.28	0.700
397.49	0.701
397.69	0.697
397.90	0.692
398.11	0.693
398.31	0.694
398.52	0.690
398.73	0.691
398.93	0.690
399.14	0.689
399.34	0.688
399.55	0.689
399.76	0.690
399.96	0.691
400.17	0.689
400.37	0.687
400.58	0.694
400.79	0.696
400.99	0.694
401.20	0.699
401.41	0.702
401.61	0.703
401.82	0.707
402.02	0.705
402.23	0.707
402.44	0.707
402.64	0.706
402.85	0.700
403.05	0.700
403.26	0.699
403.47	0.693
403.67	0.691
403.88	0.692
404.08	0.686
404.29	0.684
404.50	0.684
404.70	0.684
404.91	0.683
405.11	0.680
405.32	0.680
405.52	0.680
405.73	0.679
405.94	0.677
406.14	0.680
406.35	0.682
406.55	0.682
406.76	0.678
406.97	0.679
407.17	0.683
407.38	0.682
407.58	0.680
407.79	0.683
407.99	0.686
408.20	0.686
408.41	0.682
408.61	0.680
408.82	0.681
409.02	0.682
409.23	0.679
409.43	0.677
409.64	0.679
409.84	0.678
410.05	0.674
410.26	0.672
410.46	0.672
410.67	0.672
410.87	0.672
411.08	0.674
411.28	0.675
411.49	0.677
411.69	0.675
411.90	0.676
412.11	0.678
412.31	0.679
412.52	0.678
412.72	0.679
412.93	0.680
413.13	0.679
413.34	0.675
413.54	0.677
413.75	0.678
413.95	0.677
414.16	0.674
414.37	0.677
414.57	0.678
414.78	0.680
414.98	0.678
415.19	0.680
415.39	0.678
415.60	0.680
415.80	0.679
416.01	0.677
416.21	0.679
416.42	0.678
416.62	0.673
416.83	0.674
417.03	0.674
417.24	0.674
417.44	0.671
417.65	0.670
417.86	0.671
418.06	0.669
418.27	0.667
418.47	0.669
418.68	0.670
418.88	0.670
419.09	0.668
419.29	0.669
419.50	0.670
419.70	0.669
419.91	0.668
420.11	0.666
420.32	0.668
420.52	0.668
420.73	0.666
420.93	0.666
421.14	0.668
421.34	0.667
421.55	0.663
421.75	0.663
421.96	0.664
422.16	0.664
422.37	0.663
422.57	0.661
422.78	0.663
422.98	0.660
423.19	0.658
423.39	0.657
423.60	0.661
423.80	0.663
424.01	0.662
424.21	0.664
424.42	0.666
424.62	0.666
424.83	0.665
425.03	0.666
425.23	0.667
425.44	0.668
425.64	0.667
425.85	0.666
426.05	0.667
426.26	0.667
426.46	0.663
426.67	0.662
426.87	0.668
427.08	0.668
427.28	0.666
427.49	0.667
427.69	0.669
427.90	0.668
428.10	0.665
428.31	0.664
428.51	0.666
428.71	0.665
428.92	0.666
429.12	0.664
429.33	0.665
429.53	0.668
429.74	0.672
429.94	0.672
430.15	0.672
430.35	0.672
430.56	0.669
430.76	0.668
430.96	0.669
431.17	0.667
431.37	0.663
431.58	0.662
431.78	0.660
431.99	0.653
432.19	0.656
432.40	0.657
432.60	0.659
432.80	0.661
433.01	0.660
433.21	0.660
433.42	0.662
433.62	0.662
433.83	0.661
434.03	0.663
434.23	0.666
434.44	0.665
434.64	0.663
434.85	0.667
435.05	0.668
435.26	0.668
435.46	0.666
435.66	0.666
435.87	0.666
436.07	0.666
436.28	0.662
436.48	0.659
436.69	0.659
436.89	0.659
437.09	0.652
437.30	0.652
437.50	0.653
437.71	0.665
437.91	0.664
438.11	0.665
438.32	0.670
438.52	0.670
438.73	0.669
438.93	0.667
439.13	0.667
439.34	0.671
439.54	0.668
439.75	0.668
439.95	0.658
440.15	0.662
440.36	0.662
440.56	0.659
440.77	0.661
440.97	0.661
441.17	0.660
441.38	0.661
441.58	0.659
441.79	0.659
441.99	0.657
442.19	0.657
442.40	0.655
442.60	0.655
442.81	0.653
443.01	0.653
443.21	0.654
443.42	0.654
443.62	0.652
443.82	0.651
444.03	0.654
444.23	0.654
444.44	0.654
444.64	0.653
444.84	0.654
445.05	0.654
445.25	0.651
445.45	0.651
445.66	0.654
445.86	0.653
446.06	0.655
446.27	0.654
446.47	0.658
446.68	0.656
446.88	0.655
447.08	0.654
447.29	0.657
447.49	0.656
447.69	0.656
447.90	0.655
448.10	0.659
448.30	0.656
448.51	0.657
448.71	0.654
448.91	0.657
449.12	0.656
449.32	0.657
449.52	0.655
449.73	0.660
449.93	0.658
450.14	0.658
450.34	0.657
450.54	0.660
450.75	0.657
450.95	0.657
451.15	0.656
451.36	0.660
451.56	0.656
451.76	0.655
451.97	0.652
452.17	0.653
452.37	0.651
452.58	0.648
452.78	0.648
452.98	0.650
453.19	0.649
453.39	0.650
453.59	0.648
453.79	0.650
454.00	0.651
454.20	0.649
454.40	0.650
454.61	0.653
454.81	0.654
455.01	0.652
455.22	0.654
455.42	0.656
455.62	0.654
455.83	0.653
456.03	0.657
456.23	0.658
456.44	0.659
456.64	0.657
456.84	0.657
457.04	0.658
457.25	0.658
457.45	0.654
457.65	0.653
457.86	0.654
458.06	0.653
458.26	0.648
458.47	0.648
458.67	0.650
458.87	0.650
459.07	0.647
459.28	0.649
459.48	0.652
459.68	0.652
459.89	0.650
460.09	0.649
460.29	0.651
460.49	0.653
460.70	0.651
460.90	0.650
461.10	0.651
461.31	0.651
461.51	0.647
461.71	0.648
461.91	0.650
462.12	0.650
462.32	0.649
462.52	0.649
462.72	0.652
462.93	0.653
463.13	0.651
463.33	0.652
463.53	0.653
463.74	0.653
463.94	0.649
464.14	0.650
464.35	0.652
464.55	0.652
464.75	0.650
464.95	0.648
465.16	0.651
465.36	0.649
465.56	0.648
465.76	0.648
465.97	0.648
466.17	0.649
466.37	0.646
466.57	0.648
466.78	0.649
466.98	0.648
467.18	0.646
467.38	0.645
467.59	0.647
467.79	0.649
467.99	0.648
468.19	0.648
468.39	0.652
468.60	0.652
468.80	0.650
469.00	0.651
469.20	0.653
469.41	0.653
469.61	0.652
469.81	0.652
470.01	0.652
470.22	0.652
470.42	0.650
470.62	0.648
470.82	0.650
471.02	0.649
471.23	0.646
471.43	0.647
471.63	0.650
471.83	0.649
472.04	0.647
472.24	0.646
472.44	0.652
472.64	0.652
472.84	0.650
473.05	0.649
473.25	0.652
473.45	0.652
473.65	0.649
473.85	0.649
474.06	0.651
474.26	0.651
474.46	0.652
474.66	0.648
474.86	0.650
475.07	0.650
475.27	0.648
475.47	0.645
475.67	0.647
475.87	0.649
476.08	0.645
476.28	0.646
476.48	0.648
476.68	0.645
476.88	0.643
477.09	0.645
477.29	0.647
477.49	0.647
477.69	0.645
477.89	0.645
478.09	0.645
478.30	0.647
478.50	0.644
478.70	0.643
478.90	0.644
479.10	0.646
479.31	0.647
479.51	0.645
479.71	0.646
479.91	0.647
480.11	0.645
480.31	0.645
480.52	0.644
480.72	0.644
480.92	0.642
481.12	0.641
481.32	0.639
481.52	0.637
481.72	0.636
481.93	0.640
482.13	0.641
482.33	0.641
482.53	0.638
482.73	0.639
482.93	0.640
483.14	0.640
483.34	0.640
483.54	0.641
483.74	0.641
483.94	0.640
484.14	0.636
484.34	0.635
484.55	0.636
484.75	0.636
484.95	0.634
485.15	0.633
485.35	0.633
485.55	0.633
485.75	0.630
485.96	0.631
486.16	0.632
486.36	0.632
486.56	0.630
486.76	0.631
486.96	0.632
487.16	0.631
487.36	0.629
487.57	0.629
487.77	0.630
487.97	0.631
488.17	0.629
488.37	0.628
488.57	0.629
488.77	0.629
488.97	0.628
489.18	0.627
489.38	0.630
489.58	0.631
489.78	0.630
489.98	0.629
490.18	0.630
490.38	0.630
490.58	0.629
490.78	0.629
490.98	0.631
491.19	0.631
491.39	0.630
491.59	0.629
491.79	0.632
491.99	0.633
492.19	0.632
492.39	0.635
492.59	0.635
492.79	0.637
492.99	0.637
493.20	0.638
493.40	0.638
493.60	0.639
493.80	0.637
494.00	0.635
494.20	0.636
494.40	0.635
494.60	0.633
494.80	0.637
495.00	0.636
495.20	0.635
495.40	0.633
495.61	0.635
495.81	0.635
496.01	0.639
496.21	0.639
496.41	0.638
496.61	0.639
496.81	0.638
497.01	0.633
497.21	0.632
497.41	0.633
497.61	0.632
497.81	0.630
498.01	0.630
498.21	0.628
498.41	0.626
498.61	0.626
498.82	0.628
499.02	0.630
499.22	0.631
499.42	0.630
499.62	0.631
499.82	0.632
500.02	0.634
500.22	0.632
500.42	0.634
500.62	0.635
500.82	0.635
501.02	0.633
501.22	0.633
501.42	0.634
501.62	0.636
501.82	0.635
502.02	0.635
502.22	0.635
502.42	0.637
502.62	0.634
502.82	0.634
503.02	0.636
503.22	0.635
503.42	0.633
503.63	0.633
503.83	0.631
504.03	0.630
504.23	0.629
504.43	0.629
504.63	0.630
504.83	0.630
505.03	0.628
505.23	0.630
505.43	0.632
505.63	0.632
505.83	0.632
506.03	0.634
506.23	0.636
506.43	0.637
506.63	0.636
506.83	0.635
507.03	0.637
507.23	0.637
507.43	0.635
507.63	0.635
507.83	0.635
508.03	0.636
508.23	0.634
508.43	0.633
508.63	0.635
508.83	0.636
509.03	0.636
509.23	0.635
509.43	0.636
509.63	0.636
509.83	0.635
510.03	0.637
510.23	0.639
510.43	0.640
510.63	0.640
510.83	0.640
511.03	0.641
511.23	0.639
511.43	0.638
511.63	0.640
511.83	0.642
512.03	0.642
512.22	0.639
512.42	0.639
512.62	0.640
512.82	0.639
513.02	0.638
513.22	0.638
513.42	0.640
513.62	0.643
513.82	0.641
514.02	0.641
514.22	0.642
514.42	0.643
514.62	0.642
514.82	0.642
515.02	0.645
515.22	0.648
515.42	0.647
515.62	0.649
515.82	0.648
516.02	0.649
516.22	0.649
516.42	0.650
516.62	0.652
516.82	0.653
517.01	0.651
517.21	0.650
517.41	0.653
517.61	0.654
517.81	0.650
518.01	0.649
518.21	0.649
518.41	0.647
518.61	0.646
518.81	0.647
519.01	0.648
519.21	0.648
519.41	0.647
519.61	0.642
519.81	0.645
520.00	0.646
520.20	0.646
520.40	0.648
520.60	0.650
520.80	0.649
521.00	0.649
521.20	0.649
521.40	0.654
521.60	0.655
521.80	0.654
522.00	0.654
522.20	0.657
522.39	0.657
522.59	0.653
522.79	0.655
522.99	0.658
523.19	0.656
523.39	0.654
523.59	0.652
523.79	0.655
523.99	0.657
524.19	0.655
524.38	0.654
524.58	0.656
524.78	0.656
524.98	0.654
525.18	0.656
525.38	0.658
525.58	0.658
525.78	0.655
525.98	0.654
526.18	0.655
526.37	0.654
526.57	0.656
526.77	0.656
526.97	0.657
527.17	0.657
527.37	0.653
527.57	0.655
527.77	0.657
527.96	0.658
528.16	0.656
528.36	0.657
528.56	0.659
528.76	0.657
528.96	0.656
529.16	0.657
529.36	0.661
529.55	0.661
529.75	0.658
529.95	0.658
530.15	0.659
530.35	0.662
530.55	0.659
530.75	0.660
530.94	0.661
531.14	0.661
531.34	0.659
531.54	0.657
531.74	0.660
531.94	0.663
532.13	0.661
532.33	0.662
532.53	0.661
532.73	0.661
532.93	0.658
533.13	0.660
533.33	0.660
533.52	0.660
533.72	0.664
533.92	0.662
534.12	0.660
534.32	0.660
534.52	0.658
534.71	0.659
534.91	0.663
535.11	0.665
535.31	0.663
535.51	0.665
535.71	0.667
535.90	0.664
536.10	0.665
536.30	0.667
536.50	0.668
536.70	0.669
536.89	0.666
537.09	0.666
537.29	0.667
537.49	0.668
537.69	0.665
537.89	0.666
538.08	0.666
538.28	0.664
538.48	0.664
538.68	0.666
538.88	0.668
539.07	0.667
539.27	0.666
539.47	0.665
539.67	0.665
539.87	0.667
540.06	0.664
540.26	0.664
540.46	0.668
540.66	0.665
540.86	0.662
541.05	0.662
541.25	0.665
541.45	0.665
541.65	0.663
541.84	0.664
542.04	0.665
542.24	0.666
542.44	0.665
542.64	0.665
542.83	0.669
543.03	0.669
543.23	0.666
543.43	0.667
543.62	0.668
543.82	0.668
544.02	0.667
544.22	0.667
544.42	0.670
544.61	0.671
544.81	0.669
545.01	0.667
545.21	0.670
545.40	0.670
545.60	0.668
545.80	0.672
546.00	0.673
546.19	0.673
546.39	0.671
546.59	0.669
546.79	0.671
546.98	0.671
547.18	0.669
547.38	0.670
547.58	0.673
547.77	0.673
547.97	0.668
548.17	0.670
548.37	0.670
548.56	0.670
548.76	0.670
548.96	0.672
549.16	0.674
549.35	0.674
549.55	0.672
549.75	0.672
549.95	0.677
550.14	0.677
550.34	0.675
550.54	0.681
550.73	0.684
550.93	0.684
551.13	0.680
551.33	0.678
551.52	0.680
551.72	0.680
551.92	0.677
552.12	0.677
552.31	0.678
552.51	0.678
552.71	0.673
552.90	0.673
553.10	0.675
553.30	0.675
553.50	0.674
553.69	0.675
553.89	0.676
554.09	0.676
554.28	0.673
554.48	0.675
554.68	0.677
554.87	0.677
555.07	0.674
555.27	0.674
555.47	0.676
555.66	0.676
555.86	0.675
556.06	0.677
556.25	0.678
556.45	0.686
556.65	0.684
556.84	0.687
557.04	0.690
557.24	0.692
557.43	0.691
557.63	0.694
557.83	0.697
558.02	0.697
558.22	0.701
558.42	0.703
558.61	0.695
558.81	0.695
559.01	0.690
559.21	0.690
559.40	0.691
559.60	0.691
559.80	0.687
559.99	0.688
560.19	0.690
560.39	0.684
560.58	0.681
560.78	0.683
560.97	0.686
561.17	0.686
561.37	0.683
561.56	0.684
561.76	0.686
561.96	0.685
562.15	0.683
562.35	0.685
562.55	0.687
562.74	0.687
562.94	0.685
563.14	0.683
563.33	0.684
563.53	0.684
563.73	0.681
563.92	0.683
564.12	0.686
564.31	0.688
564.51	0.686
564.71	0.687
564.90	0.691
565.10	0.691
565.30	0.694
565.49	0.695
565.69	0.697
565.89	0.698
566.08	0.695
566.28	0.696
566.47	0.698
566.67	0.695
566.87	0.692
567.06	0.694
567.26	0.700
567.46	0.695
567.65	0.694
567.85	0.696
568.04	0.699
568.24	0.697
568.44	0.694
568.63	0.692
568.83	0.694
569.02	0.692
569.22	0.686
569.42	0.682
569.61	0.686
569.81	0.684
570.00	0.682
570.20	0.683
570.40	0.684
570.59	0.684
570.79	0.682
570.98	0.680
571.18	0.682
571.38	0.682
571.57	0.679
571.77	0.677
571.96	0.681
572.16	0.678
572.35	0.673
572.55	0.674
572.75	0.672
572.94	0.672
573.14	0.671
573.33	0.671
573.53	0.672
573.73	0.671
573.92	0.669
574.12	0.668
574.31	0.671
574.51	0.671
574.70	0.668
574.90	0.670
575.09	0.672
575.29	0.672
575.49	0.669
575.68	0.670
575.88	0.671
576.07	0.673
576.27	0.670
576.46	0.669
576.66	0.668
576.86	0.668
577.05	0.665
577.25	0.664
577.44	0.665
577.64	0.665
577.83	0.663
578.03	0.664
578.22	0.663
578.42	0.662
578.61	0.660
578.81	0.661
579.00	0.662
579.20	0.662
579.40	0.660
579.59	0.659
579.79	0.660
579.98	0.659
580.18	0.658
580.37	0.659
580.57	0.661
580.76	0.666
580.96	0.664
581.15	0.665
581.35	0.667
581.54	0.666
581.74	0.665
581.93	0.667
582.13	0.669
582.32	0.666
582.52	0.664
582.71	0.663
582.91	0.660
583.10	0.660
583.30	0.659
583.49	0.657
583.69	0.662
583.88	0.663
584.08	0.662
584.27	0.664
584.47	0.667
584.66	0.668
584.86	0.666
585.05	0.669
585.25	0.671
585.44	0.670
585.64	0.668
585.83	0.665
586.03	0.666
586.22	0.664
586.42	0.661
586.61	0.663
586.81	0.665
587.00	0.665
587.20	0.662
587.39	0.663
587.59	0.666
587.78	0.667
587.98	0.667
588.17	0.668
588.37	0.672
588.56	0.673
588.76	0.669
588.95	0.670
589.15	0.674
589.34	0.676
589.54	0.674
589.73	0.675
589.92	0.679
590.12	0.678
590.31	0.675
590.51	0.679
590.70	0.681
590.90	0.681
591.09	0.679
591.29	0.677
591.48	0.677
591.68	0.678
591.87	0.676
592.06	0.676
592.26	0.679
592.45	0.679
592.65	0.672
592.84	0.672
593.04	0.675
593.23	0.677
593.43	0.674
593.62	0.674
593.81	0.674
594.01	0.674
594.20	0.671
594.40	0.670
594.59	0.673
594.79	0.674
594.98	0.673
595.17	0.671
595.37	0.673
595.56	0.675
595.76	0.675
595.95	0.676
596.14	0.680
596.34	0.680
596.53	0.678
596.73	0.680
596.92	0.681
597.12	0.683
597.31	0.682
597.50	0.680
597.70	0.683
597.89	0.682
598.09	0.678
598.28	0.679
598.47	0.682
598.67	0.680
598.86	0.676
599.06	0.678
599.25	0.679
599.44	0.678
599.64	0.675
599.83	0.673
600.03	0.677
600.22	0.678
600.41	0.677
600.61	0.675
600.80	0.678
601.00	0.679
601.19	0.674
601.38	0.673
601.58	0.676
601.77	0.677
601.96	0.678
602.16	0.678
602.35	0.688
602.55	0.685
602.74	0.685
602.93	0.687
603.13	0.692
603.32	0.693
603.51	0.692
603.71	0.696
603.90	0.698
604.09	0.698
604.29	0.695
604.48	0.689
604.68	0.691
604.87	0.689
605.06	0.685
605.26	0.682
605.45	0.683
605.64	0.682
605.84	0.677
606.03	0.677
606.22	0.676
606.42	0.676
606.61	0.672
606.80	0.672
607.00	0.674
607.19	0.674
607.38	0.673
607.58	0.674
607.77	0.678
607.96	0.678
608.16	0.675
608.35	0.680
608.54	0.684
608.74	0.687
608.93	0.692
609.12	0.695
609.32	0.698
609.51	0.701
609.70	0.700
609.90	0.702
610.09	0.707
610.28	0.712
610.48	0.705
610.67	0.706
610.86	0.707
611.06	0.701
611.25	0.698
611.44	0.699
611.64	0.699
611.83	0.701
612.02	0.697
612.21	0.695
612.41	0.694
612.60	0.694
612.79	0.690
612.99	0.690
613.18	0.693
613.37	0.691
613.57	0.688
613.76	0.689
613.95	0.688
614.14	0.689
614.34	0.686
614.53	0.687
614.72	0.690
614.92	0.690
615.11	0.686
615.30	0.684
615.49	0.686
615.69	0.689
615.88	0.685
616.07	0.687
616.26	0.690
616.46	0.691
616.65	0.687
616.84	0.686
617.04	0.688
617.23	0.692
617.42	0.692
617.61	0.695
617.81	0.696
618.00	0.698
618.19	0.695
618.38	0.699
618.58	0.702
618.77	0.704
618.96	0.703
619.15	0.705
619.35	0.707
619.54	0.708
619.73	0.703
619.92	0.704
620.12	0.709
620.31	0.709
620.50	0.702
620.69	0.702
620.89	0.706
621.08	0.706
621.27	0.706
621.46	0.705
621.66	0.710
621.85	0.711
622.04	0.707
622.23	0.708
622.43	0.709
622.62	0.710
622.81	0.708
623.00	0.708
623.19	0.712
623.39	0.711
623.58	0.707
623.77	0.706
623.96	0.709
624.16	0.709
624.35	0.702
624.54	0.706
624.73	0.710
624.92	0.708
625.12	0.705
625.31	0.705
625.50	0.709
625.69	0.711
625.88	0.706
626.08	0.705
626.27	0.708
626.46	0.709
626.65	0.705
626.84	0.705
627.04	0.710
627.23	0.710
627.42	0.705
627.61	0.707
627.80	0.711
628.00	0.711
628.19	0.710
628.38	0.713
628.57	0.716
628.76	0.716
628.96	0.712
629.15	0.712
629.34	0.716
629.53	0.716
629.72	0.710
629.91	0.710
630.11	0.716
630.30	0.716
630.49	0.718
630.68	0.718
630.87	0.722
631.06	0.725
631.26	0.719
631.45	0.720
631.64	0.730
631.83	0.732
632.02	0.728
632.21	0.728
632.41	0.736
632.60	0.730
632.79	0.729
632.98	0.729
633.17	0.731
633.36	0.733
633.55	0.730
633.75	0.726
633.94	0.728
634.13	0.729
634.32	0.726
634.51	0.719
634.70	0.721
634.89	0.720
635.09	0.716
635.28	0.717
635.47	0.718
635.66	0.721
635.85	0.716
636.04	0.717
636.23	0.722
636.43	0.723
636.62	0.720
636.81	0.719
637.00	0.724
637.19	0.727
637.38	0.723
637.57	0.723
637.76	0.725
637.95	0.726
638.15	0.722
638.34	0.718
638.53	0.722
638.72	0.724
638.91	0.721
639.10	0.718
639.29	0.719
639.48	0.721
639.67	0.720
639.87	0.719
640.06	0.724
640.25	0.723
640.44	0.724
640.63	0.725
640.82	0.728
641.01	0.728
641.20	0.727
641.39	0.727
641.58	0.731
641.78	0.730
641.97	0.725
642.16	0.740
642.35	0.742
642.54	0.741
642.73	0.734
642.92	0.734
643.11	0.738
643.30	0.739
643.49	0.733
643.68	0.734
643.87	0.736
644.06	0.736
644.25	0.715
644.45	0.718
644.64	0.719
644.83	0.720
645.02	0.715
645.21	0.715
645.40	0.717
645.59	0.717
645.78	0.710
645.97	0.712
646.16	0.714
646.35	0.714
646.54	0.711
646.73	0.712
646.92	0.714
647.11	0.713
647.30	0.708
647.49	0.710
647.68	0.710
647.88	0.709
648.07	0.701
648.26	0.704
648.45	0.706
648.64	0.702
648.83	0.700
649.02	0.702
649.21	0.714
649.40	0.713
649.59	0.707
649.78	0.708
649.97	0.725
650.16	0.724
650.35	0.719
650.54	0.721
650.73	0.730
650.92	0.726
651.11	0.719
651.30	0.716
651.49	0.721
651.68	0.721
651.87	0.717
652.06	0.705
652.25	0.709
652.44	0.710
652.63	0.705
652.82	0.704
653.01	0.705
653.20	0.702
653.39	0.689
653.58	0.686
653.77	0.685
653.96	0.681
654.15	0.673
654.34	0.671
654.53	0.667
654.72	0.662
654.91	0.653
655.10	0.649
655.29	0.648
655.48	0.646
655.67	0.640
655.86	0.638
656.05	0.637
656.24	0.636
656.43	0.631
656.62	0.631
656.81	0.632
657.00	0.631
657.19	0.628
657.38	0.628
657.57	0.629
657.76	0.632
657.95	0.631
658.14	0.635
658.33	0.639
658.51	0.645
658.70	0.645
658.89	0.646
659.08	0.655
659.27	0.662
659.46	0.661
659.65	0.668
659.84	0.671
660.03	0.674
660.22	0.673
660.41	0.677
660.60	0.677
660.79	0.678
660.98	0.684
661.17	0.684
661.36	0.683
661.55	0.683
661.74	0.680
661.92	0.683
662.11	0.686
662.30	0.685
662.49	0.677
662.68	0.676
662.87	0.680
663.06	0.673
663.25	0.673
663.44	0.674
663.63	0.676
663.82	0.674
664.01	0.668
664.20	0.667
664.38	0.668
664.57	0.669
664.76	0.669
664.95	0.670
665.14	0.675
665.33	0.670
665.52	0.676
665.71	0.679
665.90	0.680
666.09	0.683
666.28	0.680
666.46	0.678
666.65	0.680
666.84	0.678
667.03	0.672
667.22	0.671
667.41	0.674
667.60	0.664
667.79	0.657
667.98	0.658
668.16	0.659
668.35	0.658
668.54	0.654
668.73	0.655
668.92	0.656
669.11	0.654
669.30	0.647
669.49	0.643
669.67	0.645
669.86	0.648
670.05	0.644
670.24	0.642
670.43	0.640
670.62	0.640
670.81	0.634
671.00	0.634
671.18	0.635
671.37	0.634
671.56	0.631
671.75	0.630
671.94	0.627
672.13	0.625
672.32	0.620
672.50	0.619
672.69	0.619
672.88	0.620
673.07	0.615
673.26	0.617
673.45	0.618
673.63	0.619
673.82	0.615
674.01	0.617
674.20	0.617
674.39	0.617
674.58	0.616
674.76	0.616
674.95	0.614
675.14	0.614
675.33	0.609
675.52	0.608
675.71	0.608
675.89	0.608
676.08	0.603
676.27	0.603
676.46	0.605
676.65	0.604
676.84	0.604
677.02	0.607
677.21	0.610
677.40	0.609
677.59	0.606
677.78	0.607
677.96	0.610
678.15	0.608
678.34	0.606
678.53	0.607
678.72	0.607
678.90	0.604
679.09	0.599
679.28	0.595
679.47	0.596
679.66	0.595
679.84	0.592
680.03	0.590
680.22	0.590
680.41	0.592
680.60	0.587
680.78	0.587
680.97	0.589
681.16	0.590
681.35	0.589
681.53	0.587
681.72	0.589
681.91	0.590
682.10	0.588
682.29	0.591
682.47	0.588
682.66	0.588
682.85	0.586
683.04	0.584
683.22	0.583
683.41	0.585
683.60	0.584
683.79	0.584
683.97	0.584
684.16	0.583
684.35	0.579
684.54	0.580
684.72	0.581
684.91	0.582
685.10	0.580
685.29	0.581
685.47	0.578
685.66	0.577
685.85	0.574
686.04	0.572
686.22	0.576
686.41	0.578
686.60	0.575
686.79	0.578
686.97	0.580
687.16	0.581
687.35	0.579
687.54	0.583
687.72	0.587
687.91	0.586
688.10	0.588
688.29	0.587
688.47	0.586
688.66	0.585
688.85	0.581
689.03	0.578
689.22	0.583
689.41	0.584
689.60	0.578
689.78	0.576
689.97	0.577
690.16	0.574
690.34	0.570
690.53	0.569
690.72	0.570
690.91	0.568
691.09	0.566
691.28	0.559
691.47	0.558
691.65	0.557
691.84	0.553
692.03	0.551
692.21	0.550
692.40	0.549
692.59	0.547
692.77	0.546
692.96	0.547
693.15	0.548
693.34	0.547
693.52	0.547
693.71	0.547
693.90	0.549
694.08	0.549
694.27	0.550
694.46	0.561
694.64	0.562
694.83	0.560
695.02	0.559
695.20	0.559
695.39	0.559
695.58	0.558
695.76	0.559
695.95	0.559
696.14	0.559
696.32	0.556
696.51	0.546
696.70	0.546
696.88	0.548
697.07	0.546
697.26	0.547
697.44	0.549
697.63	0.547
697.81	0.545
698.00	0.544
698.19	0.544
698.37	0.544
698.56	0.544
698.75	0.544
698.93	0.543
699.12	0.543
699.31	0.542
699.49	0.541
699.68	0.543
699.87	0.546
700.05	0.545
700.24	0.544
700.42	0.547
700.61	0.546
700.80	0.543
700.98	0.543
701.17	0.545
701.36	0.544
701.54	0.543
701.73	0.544
701.91	0.541
702.10	0.541
702.29	0.538
702.47	0.537
702.66	0.539
702.84	0.540
703.03	0.538
703.22	0.540
703.40	0.541
703.59	0.542
703.77	0.541
703.96	0.542
704.15	0.543
704.33	0.543
704.52	0.542
704.70	0.540
704.89	0.541
705.08	0.539
705.26	0.534
705.45	0.534
705.63	0.534
705.82	0.531
706.00	0.528
706.19	0.527
706.38	0.528
706.56	0.527
706.75	0.524
706.93	0.523
707.12	0.525
707.30	0.526
707.49	0.523
707.68	0.522
707.86	0.521
708.05	0.522
708.23	0.519
708.42	0.520
708.60	0.523
708.79	0.523
708.98	0.521
709.16	0.520
709.35	0.523
709.53	0.527
709.72	0.525
709.90	0.528
710.09	0.529
710.27	0.532
710.46	0.535
710.64	0.533
710.83	0.536
711.02	0.537
711.20	0.535
711.39	0.533
711.57	0.531
711.76	0.532
711.94	0.530
712.13	0.530
712.31	0.530
712.50	0.526
712.68	0.523
712.87	0.524
713.05	0.524
713.24	0.525
713.42	0.523
713.61	0.524
713.79	0.525
713.98	0.525
714.16	0.526
714.35	0.526
714.54	0.527
714.72	0.527
714.91	0.524
715.09	0.531
715.28	0.534
715.46	0.534
715.65	0.531
715.83	0.531
716.02	0.534
716.20	0.530
716.39	0.528
716.57	0.530
716.76	0.532
716.94	0.532
717.12	0.524
717.31	0.525
717.49	0.528
717.68	0.531
717.86	0.530
718.05	0.532
718.23	0.536
718.42	0.538
718.60	0.539
718.79	0.547
718.97	0.551
719.16	0.551
719.34	0.549
719.53	0.549
719.71	0.550
719.90	0.551
720.08	0.548
720.27	0.548
720.45	0.549
720.63	0.548
720.82	0.542
721.00	0.545
721.19	0.548
721.37	0.548
721.56	0.548
721.74	0.551
721.93	0.560
722.11	0.566
722.30	0.564
722.48	0.569
722.66	0.570
722.85	0.570
723.03	0.570
723.22	0.569
723.40	0.573
723.59	0.572
723.77	0.576
723.95	0.569
724.14	0.572
724.32	0.574
724.51	0.572
724.69	0.573
724.88	0.574
725.06	0.572
725.24	0.572
725.43	0.574
725.61	0.578
725.80	0.570
725.98	0.567
726.16	0.564
726.35	0.570
726.53	0.569
726.72	0.567
726.90	0.577
727.09	0.578
727.27	0.585
727.45	0.580
727.64	0.591
727.82	0.601
728.01	0.605
728.19	0.602
728.37	0.607
728.56	0.612
728.74	0.619
728.92	0.606
729.11	0.608
729.29	0.607
729.48	0.609
729.66	0.597
729.84	0.597
730.03	0.601
730.21	0.603
730.40	0.592
730.58	0.594
730.76	0.595
730.95	0.598
731.13	0.597
731.31	0.611
731.50	0.623
731.68	0.626
731.86	0.622
732.05	0.637
732.23	0.641
732.42	0.644
732.60	0.647
732.78	0.654
732.97	0.676
733.15	0.683
733.33	0.668
733.52	0.676
733.70	0.689
733.88	0.697
734.07	0.680
734.25	0.708
734.43	0.718
734.62	0.721
734.80	0.712
734.98	0.701
735.17	0.710
735.35	0.717
735.53	0.703
735.72	0.707
735.90	0.733
736.08	0.755
736.27	0.729
736.45	0.739
736.63	0.754
736.82	0.767
737.00	0.767
737.18	0.780
737.37	0.817
737.55	0.843
737.73	0.834
737.92	0.838
738.10	0.838
738.28	0.861
738.46	0.844
738.65	0.855
738.83	0.882
739.01	0.943
739.20	0.926
739.38	0.908
739.56	0.903
739.75	0.908
739.93	0.864
740.11	0.890
740.29	0.894
740.48	0.899
740.66	0.879
740.84	0.871
741.03	0.835
741.21	0.848
741.39	0.823
741.57	0.839
741.76	0.862
741.94	0.873
742.12	0.831
742.31	0.837
742.49	0.866
742.67	0.891
742.85	0.907
743.04	0.910
743.22	0.925
743.40	0.990
743.58	0.962
743.77	0.981
743.95	1.029
744.13	1.096
744.31	1.065
744.50	1.057
744.68	1.073
744.86	1.042
745.04	1.051
745.23	1.130
745.41	1.117
745.59	1.125
745.77	1.081
745.96	1.055
746.14	1.069
746.32	1.072
746.50	1.060
746.69	1.031
746.87	1.049
747.05	1.028
747.23	0.939
747.42	0.919
747.60	0.959
747.78	0.959
747.96	0.993
748.14	0.945
748.33	0.984
748.51	0.978
748.69	0.964
748.87	0.995
749.06	1.000
749.24	1.000
749.42	0.971
749.60	0.948
749.78	0.960
749.97	0.912
750.15	0.901
750.33	0.900
750.51	0.936
750.69	0.942
750.88	0.940
751.06	0.952
751.24	0.987
751.42	0.976
751.60	0.962
751.79	1.050
751.97	1.112
752.15	1.108
752.33	1.064
752.51	1.141
752.69	1.180
752.88	1.145
753.06	1.197
753.24	1.166
753.42	1.228
753.60	1.501
753.78	1.249
753.97	1.270
754.15	1.299
754.33	1.340
754.51	1.152
754.69	1.124
754.87	1.165
755.06	1.072
755.24	1.064
755.42	1.074
755.60	0.960
755.78	0.971
755.96	0.906
756.15	0.905
756.33	0.911
756.51	0.930
756.69	0.909
756.87	0.868
757.05	0.891
757.23	0.872
757.42	0.832
757.60	0.829
757.78	0.817
757.96	0.814
758.14	0.795
758.32	0.780
758.50	0.798
758.69	0.797
758.87	0.787
759.05	0.792
759.23	0.804
759.41	0.807
759.59	0.799
759.77	0.829
759.95	0.861
760.13	0.920
760.32	0.917
760.50	0.909
760.68	0.945
760.86	0.952
761.04	0.914
761.22	0.922
761.40	0.979
761.58	0.978
761.76	0.937
761.95	0.918
762.13	0.867
762.31	0.864
762.49	0.826
762.67	0.839
762.85	0.853
763.03	0.849
763.21	0.825
763.39	0.806
763.57	0.814
763.75	0.808
763.94	0.787
764.12	0.789
764.30	0.819
764.48	0.825
764.66	0.785
764.84	0.783
765.02	0.827
765.20	0.837
765.38	0.811
765.56	0.816
765.74	0.865
765.92	0.870
766.10	0.871
766.28	0.863
766.46	0.898
766.65	0.898
766.83	0.880
767.01	0.862
767.19	0.869
767.37	0.869
767.55	0.851
767.73	0.828
767.91	0.833
768.09	0.824
768.27	0.809
768.45	0.801
768.63	0.810
768.81	0.814
768.99	0.782
769.17	0.814
769.35	0.832
769.53	0.830
769.71	0.805
769.89	0.815
770.07	0.824
770.25	0.806
770.43	0.777
770.61	0.805
770.79	0.812
770.97	0.822
771.15	0.782
771.33	0.790
771.51	0.800
771.69	0.811
771.87	0.818
772.05	0.824
772.24	0.837
772.42	0.846
772.60	0.816
772.78	0.886
772.96	0.925
773.14	0.921
773.32	0.889
773.49	0.894
773.67	0.894
773.85	0.869
774.03	0.850
774.21	0.888
774.39	0.903
774.57	0.932
774.75	0.846
774.93	0.837
775.11	0.868
775.29	0.876
775.47	0.873
775.65	0.890
775.83	0.912
776.01	0.939
776.19	0.876
776.37	0.880
776.55	0.879
776.73	0.878
776.91	0.874
777.09	0.851
777.27	0.853
777.45	0.840
777.63	0.812
777.81	0.810
777.99	0.800
778.17	0.800
778.35	0.773
778.53	0.761
778.71	0.770
778.89	0.753
779.07	0.741
779.24	0.744
779.42	0.747
779.60	0.767
779.78	0.761
779.96	0.766
780.14	0.778
780.32	0.803
780.50	0.785
780.68	0.782
780.86	0.775
781.04	0.792
781.22	0.797
781.40	0.811
781.58	0.799
781.75	0.791
781.93	0.769
782.11	0.770
782.29	0.756
782.47	0.754
782.65	0.740
782.83	0.769
783.01	0.766
783.19	0.757
783.37	0.737
783.55	0.742
783.72	0.763
783.90	0.776
784.08	0.763
784.26	0.776
784.44	0.799
784.62	0.800
784.80	0.762
784.98	0.767
785.16	0.775
785.33	0.792
785.51	0.775
785.69	0.760
785.87	0.761
786.05	0.773
786.23	0.765
786.41	0.762
786.59	0.770
786.77	0.771
786.94	0.754
787.12	0.760
787.30	0.764
787.48	0.758
787.66	0.743
787.84	0.742
788.02	0.735
788.19	0.734
788.37	0.718
788.55	0.722
788.73	0.725
788.91	0.719
789.09	0.698
789.27	0.687
789.44	0.704
789.62	0.709
789.80	0.718
789.98	0.745
790.16	0.731
790.34	0.727
790.51	0.713
790.69	0.734
790.87	0.742
791.05	0.739
791.23	0.730
791.41	0.731
791.58	0.742
791.76	0.718
791.94	0.683
792.12	0.694
792.30	0.696
792.48	0.692
792.65	0.684
792.83	0.693
793.01	0.703
793.19	0.699
793.37	0.681
793.54	0.678
793.72	0.692
793.90	0.689
794.08	0.675
794.26	0.678
794.43	0.690
794.61	0.670
794.79	0.656
794.97	0.656
795.15	0.664
795.32	0.667
795.50	0.654
795.68	0.649
795.86	0.654
796.04	0.657
796.21	0.650
796.39	0.647
796.57	0.664
796.75	0.674
796.92	0.673
797.10	0.677
797.28	0.681
797.46	0.684
797.64	0.686
797.81	0.697
797.99	0.700
798.17	0.705
798.35	0.698
798.52	0.701
798.70	0.699
798.88	0.708
799.06	0.708
799.23	0.712
799.41	0.724
799.59	0.714
799.77	0.697
799.94	0.708
800.12	0.719
800.30	0.737
800.48	0.734
800.65	0.731
800.83	0.719
801.01	0.708
801.19	0.705
801.36	0.701
801.54	0.707
801.72	0.719
801.90	0.703
802.07	0.698
802.25	0.684
802.43	0.668
802.60	0.663
802.78	0.674
802.96	0.681
803.14	0.676
803.31	0.672
803.49	0.671
803.67	0.667
803.84	0.671
804.02	0.660
804.20	0.665
804.38	0.670
804.55	0.669
804.73	0.651
804.91	0.653
805.08	0.667
805.26	0.662
805.44	0.723
805.61	0.727
805.79	0.728
805.97	0.728
806.15	0.717
806.32	0.714
806.50	0.722
806.68	0.721
806.85	0.708
807.03	0.698
807.21	0.718
807.38	0.653
807.56	0.641
807.74	0.653
807.91	0.662
808.09	0.664
808.27	0.681
808.44	0.710
808.62	0.723
808.80	0.724
808.97	0.719
809.15	0.712
809.33	0.732
809.50	0.737
809.68	0.719
809.86	0.727
810.03	0.765
810.21	0.741
810.39	0.719
810.56	0.725
810.74	0.755
810.91	0.832
811.09	0.818
811.27	0.844
811.44	0.857
811.62	0.861
811.80	0.841
811.97	0.806
812.15	0.806
812.33	0.799
812.50	0.780
812.68	0.768
812.85	0.710
813.03	0.712
813.21	0.675
813.38	0.668
813.56	0.672
813.74	0.682
813.91	0.689
814.09	0.724
814.26	0.721
814.44	0.723
814.62	0.709
814.79	0.713
814.97	0.721
815.14	0.724
815.32	0.725
815.50	0.745
815.67	0.751
815.85	0.739
816.02	0.724
816.20	0.732
816.38	0.751
816.55	0.760
816.73	0.758
816.90	0.773
817.08	0.809
817.26	0.818
817.43	0.788
817.61	0.814
817.78	0.842
817.96	0.820
818.13	0.806
818.31	0.808
818.49	0.823
818.66	0.808
818.84	0.787
819.01	0.763
819.19	0.773
819.36	0.777
819.54	0.743
819.71	0.788
819.89	0.806
820.07	0.819
820.24	0.808
820.42	0.810
820.59	0.836
820.77	0.864
820.94	0.851
821.12	0.876
821.29	0.897
821.47	0.900
821.64	0.823
821.82	0.839
822.00	0.839
822.17	0.834
822.35	0.825
822.52	0.834
822.70	0.821
822.87	0.831
823.05	0.800
823.22	0.813
823.40	0.847
823.57	0.872
823.75	0.847
823.92	0.879
824.10	0.910
824.27	0.956
824.45	0.933
824.62	1.016
824.80	1.044
824.97	1.070
825.15	1.053
825.32	1.074
825.50	1.085
825.67	1.105
825.85	1.067
826.02	1.096
826.20	1.140
826.37	1.351
826.55	1.207
826.72	1.596
826.90	1.826
827.07	2.153
827.25	1.833
827.42	-0.000
827.60	-0.000
827.77	-0.000
827.95	-0.000
828.12	-0.000
828.30	-0.000
828.47	-0.000
828.65	1.987
828.82	-0.000
829.00	-0.000
829.17	-0.000
829.34	-0.000
829.52	-0.000
829.69	-0.000
829.87	-0.000
830.04	-0.000
830.22	-0.000
830.39	-0.000
830.57	-0.000
830.74	-0.000
830.92	-0.000
831.09	-0.000
831.26	-0.000
831.44	-0.000
831.61	-0.000
831.79	-0.000
831.96	-0.000
832.14	-0.000
832.31	-0.000
832.49	-0.000
832.66	-0.000
832.83	-0.000
833.01	-0.000
833.18	-0.000
833.36	-0.000
833.53	-0.000
833.70	-0.000
833.88	-0.000
834.05	-0.000
834.23	-0.000
834.40	-0.000
834.58	-0.000
834.75	-0.000
834.92	-0.000
835.10	-0.000
835.27	-0.000
835.45	-0.000
835.62	-0.000
835.79	-0.000
835.97	-0.000
836.14	-0.000
836.32	-0.000
836.49	-0.000
836.66	-0.000
836.84	-0.000
837.01	-0.000
837.18	-0.000
837.36	-0.000
837.53	-0.000
837.71	-0.000
837.88	-0.000
838.05	-0.000
838.23	-0.000
838.40	-0.000
838.58	-0.000
838.75	-0.000
838.92	-0.000
839.10	-0.000
839.27	-0.000
839.44	-0.000
839.62	-0.000
839.79	-0.000
839.96	-0.000
840.14	-0.000
840.31	-0.000
840.48	-0.000
840.66	-0.000
840.83	-0.000
841.01	-0.000
841.18	-0.000
841.35	-0.000
841.53	-0.000
841.70	-0.000
841.87	-0.000
842.05	-0.000
842.22	-0.000
842.39	-0.000
842.57	-0.000
842.74	-0.000
842.91	-0.000
843.09	-0.000
843.26	-0.000
843.43	-0.000
843.60	-0.000
843.78	-0.000
843.95	-0.000
844.12	-0.000
844.30	-0.000
844.47	-0.000
844.64	-0.000
844.82	-0.000
844.99	-0.000
845.16	-0.000
845.34	-0.000
845.51	-0.000
845.68	-0.000
845.85	-0.000
846.03	-0.000
846.20	-0.000
846.37	-0.000
846.55	-0.000
846.72	-0.000
846.89	-0.000
847.06	-0.000
847.24	-0.000
847.41	-0.000
847.58	-0.000
847.76	-0.000
847.93	-0.000
848.10	-0.000
848.27	-0.000
848.45	-0.000
848.62	-0.000
848.79	-0.000
848.97	-0.000
849.14	-0.000
849.31	-0.000
849.48	-0.000
849.66	-0.000
849.83	-0.000
850.00	-0.000
850.17	-0.000
850.35	-0.000
850.52	-0.000
850.69	-0.000
850.86	-0.000
851.04	-0.000
851.21	-0.000
851.38	-0.000
851.55	-0.000
851.72	-0.000
851.90	-0.000
852.07	-0.000
852.24	-0.000
852.41	-0.000
852.59	-0.000
852.76	-0.000
852.93	-0.000
853.10	-0.000
853.28	-0.000
853.45	-0.000
853.62	-0.000
853.79	-0.000
853.96	-0.000
854.14	-0.000
854.31	-0.000
854.48	-0.000
854.65	-0.000
854.82	-0.000
855.00	-0.000
855.17	-0.000
855.34	-0.000
855.51	-0.000
855.68	-0.000
855.86	-0.000
856.03	-0.000
856.20	-0.000
856.37	-0.000
856.54	-0.000
856.72	-0.000
856.89	-0.000
857.06	-0.000
857.23	-0.000
857.40	-0.000
857.57	-0.000
857.75	-0.000
857.92	-0.000
858.09	-0.000
858.26	-0.000
858.43	-0.000
858.60	-0.000
858.78	-0.000
858.95	-0.000
859.12	-0.000
859.29	-0.000
859.46	-0.000
859.63	-0.000
859.81	-0.000
859.98	-0.000
860.15	-0.000
860.32	-0.000
860.49	-0.000
860.66	-0.000
860.83	-0.000
861.01	-0.000
861.18	-0.000
861.35	-0.000
861.52	-0.000
861.69	-0.000
861.86	-0.000
862.03	-0.000
862.21	-0.000
862.38	-0.000
862.55	-0.000
862.72	-0.000
862.89	-0.000
863.06	-0.000
863.23	-0.000
863.40	-0.000
863.58	-0.000
863.75	-0.000
863.92	-0.000
864.09	-0.000
864.26	-0.000
864.43	-0.000
864.60	-0.000
864.77	-0.000
864.94	-0.000
865.11	-0.000
865.29	-0.000
865.46	-0.000
865.63	-0.000
865.80	-0.000
865.97	-0.000
866.14	-0.000
866.31	-0.000
866.48	-0.000
866.65	-0.000
866.82	-0.000
866.99	-0.000
867.16	-0.000
867.34	-0.000
867.51	-0.000
867.68	-0.000
867.85	-0.000
868.02	-0.000
868.19	-0.000
868.36	-0.000
868.53	-0.000
868.70	-0.000
868.87	-0.000
869.04	-0.000
869.21	-0.000
869.38	-0.000
869.55	-0.000
869.72	-0.000
869.89	-0.000
870.06	-0.000
870.24	-0.000
870.41	-0.000
870.58	-0.000
870.75	-0.000
870.92	-0.000
871.09	-0.000
871.26	-0.000
871.43	-0.000
871.60	-0.000
871.77	-0.000
871.94	-0.000
872.11	-0.000
872.28	-0.000
872.45	-0.000
872.62	-0.000
872.79	-0.000
872.96	-0.000
873.13	-0.000
873.30	-0.000
873.47	-0.000
873.64	-0.000
873.81	-0.000
873.98	-0.000
874.15	-0.000
874.32	-0.000
874.49	-0.000
874.66	-0.000
874.83	-0.000
875.00	-0.000
875.17	-0.000
875.34	-0.000
875.51	-0.000
875.68	-0.000
875.85	-0.000
876.02	-0.000
876.19	-0.000
876.36	-0.000
876.53	-0.000
876.70	-0.000
876.87	-0.000
877.04	-0.000
877.21	-0.000
877.38	-0.000
877.55	-0.000
877.72	-0.000
877.89	-0.000
878.06	-0.000
878.23	-0.000
878.39	-0.000
878.56	-0.000
878.73	-0.000
878.90	-0.000
879.07	-0.000
879.24	-0.000
879.41	-0.000
879.58	-0.000
879.75	-0.000
879.92	-0.000
880.09	-0.000
880.26	-0.000
880.43	-0.000
880.60	-0.000
880.77	-0.000
880.94	-0.000
881.11	-0.000
881.27	-0.000
881.44	-0.000
881.61	-0.000
881.78	-0.000
881.95	-0.000
882.12	-0.000
882.29	-0.000
882.46	-0.000
882.63	-0.000
882.80	-0.000
882.97	-0.000
883.14	-0.000
883.30	-0.000
883.47	-0.000
883.64	-0.000
883.81	-0.000
883.98	-0.000
884.15	-0.000
884.32	-0.000
884.49	-0.000
884.66	-0.000
884.82	-0.000
884.99	-0.000
885.16	-0.000
885.33	-0.000
885.50	-0.000
885.67	-0.000
885.84	-0.000
886.01	-0.000
886.17	-0.000
886.34	-0.000
886.51	-0.000
886.68	-0.000
886.85	-0.000
887.02	-0.000
887.19	-0.000
887.36	-0.000
887.52	-0.000
887.69	-0.000
887.86	-0.000
888.03	-0.000
888.20	-0.000
888.37	-0.000
888.54	-0.000
888.70	-0.000
888.87	-0.000
889.04	-0.000
889.21	-0.000
889.38	-0.000
889.55	-0.000
889.71	-0.000
889.88	-0.000
890.05	-0.000
890.22	-0.000
890.39	-0.000
>>>>>End Processed Spectral Data<<<<<
