SpectraSuite Data File
++++++++++++++++++++++++++++++++++++
Date: Fri Jun 19 13:24:50 CEST 2015
User: introlabs
Dark Spectrum Present: Yes
Reference Spectrum Present: Yes
Number of Sampled Component Spectra: 1
Spectrometers: USB4H08886
Integration Time (usec): 745692 (USB4H08886)
Spectra Averaged: 5 (USB4H08886)
Boxcar Smoothing: 5 (USB4H08886)
Correct for Electrical Dark: Yes (USB4H08886)
Strobe/Lamp Enabled: No (USB4H08886)
Correct for Detector Non-linearity: Yes (USB4H08886)
Correct for Stray Light: Yes (USB4H08886)
Number of Pixels in Processed Spectrum: 3648
>>>>>Begin Processed Spectral Data<<<<<
178.14	-0.000
178.36	-0.000
178.57	-0.000
178.79	-0.000
179.01	-0.000
179.22	-0.000
179.44	-0.000
179.65	-0.000
179.87	-0.000
180.08	-0.000
180.30	-0.000
180.52	-0.000
180.73	-0.000
180.95	-0.000
181.16	-0.000
181.38	-0.000
181.59	-0.000
181.81	-0.000
182.03	-0.000
182.24	-0.000
182.46	-0.000
182.67	-0.000
182.89	-0.000
183.10	-0.000
183.32	-0.000
183.54	-0.000
183.75	-0.000
183.97	-0.000
184.18	-0.000
184.40	-0.000
184.61	-0.000
184.83	-0.000
185.04	-0.000
185.26	-0.000
185.48	-0.000
185.69	-0.000
185.91	-0.000
186.12	-0.000
186.34	-0.000
186.55	-0.000
186.77	-0.000
186.98	-0.000
187.20	-0.000
187.42	-0.000
187.63	-0.000
187.85	-0.000
188.06	-0.000
188.28	-0.000
188.49	-0.000
188.71	-0.000
188.92	-0.000
189.14	-0.000
189.36	-0.000
189.57	-0.000
189.79	-0.000
190.00	-0.000
190.22	-0.000
190.43	-0.000
190.65	-0.000
190.86	-0.000
191.08	-0.000
191.29	-0.000
191.51	-0.000
191.72	-0.000
191.94	-0.000
192.16	-0.000
192.37	-0.000
192.59	-0.000
192.80	-0.000
193.02	-0.000
193.23	-0.000
193.45	-0.000
193.66	-0.000
193.88	-0.000
194.09	-0.000
194.31	-0.000
194.52	-0.000
194.74	-0.000
194.95	-0.000
195.17	-0.000
195.38	-0.000
195.60	-0.000
195.81	-0.000
196.03	-0.000
196.25	-0.000
196.46	-0.000
196.68	-0.000
196.89	-0.000
197.11	-0.000
197.32	-0.000
197.54	-0.000
197.75	-0.000
197.97	-0.000
198.18	-0.000
198.40	-0.000
198.61	-0.000
198.83	-0.000
199.04	-0.000
199.26	-0.000
199.47	-0.000
199.69	-0.000
199.90	-0.000
200.12	-0.000
200.33	-0.000
200.55	-0.000
200.76	-0.000
200.98	-0.000
201.19	-0.000
201.41	-0.000
201.62	-0.000
201.84	-0.000
202.05	-0.000
202.27	-0.000
202.48	-0.000
202.70	-0.000
202.91	-0.000
203.13	-0.000
203.34	-0.000
203.56	-0.000
203.77	-0.000
203.99	-0.000
204.20	-0.000
204.42	-0.000
204.63	-0.000
204.85	-0.000
205.06	-0.000
205.28	-0.000
205.49	-0.000
205.71	-0.000
205.92	-0.000
206.14	-0.000
206.35	-0.000
206.56	-0.000
206.78	-0.000
206.99	-0.000
207.21	-0.000
207.42	-0.000
207.64	-0.000
207.85	-0.000
208.07	-0.000
208.28	-0.000
208.50	-0.000
208.71	-0.000
208.93	-0.000
209.14	-0.000
209.36	-0.000
209.57	-0.000
209.79	-0.000
210.00	-0.000
210.22	-0.000
210.43	-0.000
210.64	-0.000
210.86	-0.000
211.07	-0.000
211.29	-0.000
211.50	-0.000
211.72	-0.000
211.93	-0.000
212.15	-0.000
212.36	-0.000
212.58	-0.000
212.79	-0.000
213.01	-0.000
213.22	-0.000
213.43	-0.000
213.65	-0.000
213.86	-0.000
214.08	-0.000
214.29	-0.000
214.51	-0.000
214.72	-0.000
214.94	-0.000
215.15	-0.000
215.36	-0.000
215.58	-0.000
215.79	-0.000
216.01	-0.000
216.22	-0.000
216.44	-0.000
216.65	-0.000
216.87	-0.000
217.08	-0.000
217.29	-0.000
217.51	-0.000
217.72	-0.000
217.94	-0.000
218.15	-0.000
218.37	-0.000
218.58	-0.000
218.80	-0.000
219.01	-0.000
219.22	-0.000
219.44	-0.000
219.65	-0.000
219.87	-0.000
220.08	-0.000
220.30	-0.000
220.51	-0.000
220.72	-0.000
220.94	-0.000
221.15	-0.000
221.37	-0.000
221.58	-0.000
221.79	-0.000
222.01	-0.000
222.22	-0.000
222.44	-0.000
222.65	-0.000
222.87	-0.000
223.08	-0.000
223.29	-0.000
223.51	-0.000
223.72	-0.000
223.94	-0.000
224.15	-0.000
224.36	-0.000
224.58	-0.000
224.79	-0.000
225.01	-0.000
225.22	-0.000
225.44	-0.000
225.65	-0.000
225.86	-0.000
226.08	-0.000
226.29	-0.000
226.51	-0.000
226.72	-0.000
226.93	-0.000
227.15	-0.000
227.36	-0.000
227.58	-0.000
227.79	-0.000
228.00	-0.000
228.22	-0.000
228.43	-0.000
228.65	-0.000
228.86	-0.000
229.07	-0.000
229.29	-0.000
229.50	-0.000
229.72	-0.000
229.93	-0.000
230.14	-0.000
230.36	-0.000
230.57	-0.000
230.78	-0.000
231.00	-0.000
231.21	-0.000
231.43	-0.000
231.64	-0.000
231.85	-0.000
232.07	-0.000
232.28	-0.000
232.50	-0.000
232.71	-0.000
232.92	-0.000
233.14	-0.000
233.35	-0.000
233.56	-0.000
233.78	-0.000
233.99	-0.000
234.21	-0.000
234.42	-0.000
234.63	-0.000
234.85	-0.000
235.06	-0.000
235.27	-0.000
235.49	-0.000
235.70	-0.000
235.91	-0.000
236.13	-0.000
236.34	-0.000
236.56	-0.000
236.77	-0.000
236.98	-0.000
237.20	-0.000
237.41	-0.000
237.62	-0.000
237.84	-0.000
238.05	-0.000
238.26	-0.000
238.48	-0.000
238.69	-0.000
238.91	-0.000
239.12	-0.000
239.33	-0.000
239.55	-0.000
239.76	-0.000
239.97	-0.000
240.19	-0.000
240.40	-0.000
240.61	-0.000
240.83	-0.000
241.04	-0.000
241.25	-0.000
241.47	-0.000
241.68	-0.000
241.89	-0.000
242.11	-0.000
242.32	-0.000
242.53	-0.000
242.75	-0.000
242.96	-0.000
243.17	-0.000
243.39	-0.000
243.60	-0.000
243.81	-0.000
244.03	-0.000
244.24	-0.000
244.45	-0.000
244.67	-0.000
244.88	-0.000
245.09	-0.000
245.31	-0.000
245.52	-0.000
245.73	-0.000
245.95	-0.000
246.16	-0.000
246.37	-0.000
246.59	-0.000
246.80	-0.000
247.01	-0.000
247.23	-0.000
247.44	-0.000
247.65	-0.000
247.87	-0.000
248.08	-0.000
248.29	-0.000
248.51	-0.000
248.72	-0.000
248.93	-0.000
249.15	-0.000
249.36	-0.000
249.57	-0.000
249.78	-0.000
250.00	-0.000
250.21	-0.000
250.42	-0.000
250.64	-0.000
250.85	-0.000
251.06	-0.000
251.28	-0.000
251.49	-0.000
251.70	-0.000
251.92	-0.000
252.13	-0.000
252.34	-0.000
252.55	-0.000
252.77	-0.000
252.98	-0.000
253.19	-0.000
253.41	-0.000
253.62	-0.000
253.83	-0.000
254.05	-0.000
254.26	-0.000
254.47	-0.000
254.68	-0.000
254.90	-0.000
255.11	-0.000
255.32	-0.000
255.54	-0.000
255.75	-0.000
255.96	-0.000
256.17	-0.000
256.39	-0.000
256.60	-0.000
256.81	-0.000
257.03	-0.000
257.24	-0.000
257.45	-0.000
257.66	-0.000
257.88	-0.000
258.09	-0.000
258.30	-0.000
258.51	-0.000
258.73	-0.000
258.94	-0.000
259.15	-0.000
259.37	-0.000
259.58	-0.000
259.79	-0.000
260.00	-0.000
260.22	-0.000
260.43	-0.000
260.64	-0.000
260.85	-0.000
261.07	-0.000
261.28	-0.000
261.49	-0.000
261.71	-0.000
261.92	-0.000
262.13	-0.000
262.34	-0.000
262.56	-0.000
262.77	-0.000
262.98	-0.000
263.19	-0.000
263.41	-0.000
263.62	-0.000
263.83	-0.000
264.04	-0.000
264.26	-0.000
264.47	-0.000
264.68	-0.000
264.89	-0.000
265.11	-0.000
265.32	-0.000
265.53	-0.000
265.74	-0.000
265.96	-0.000
266.17	-0.000
266.38	-0.000
266.59	-0.000
266.81	-0.000
267.02	-0.000
267.23	-0.000
267.44	-0.000
267.65	-0.000
267.87	-0.000
268.08	-0.000
268.29	-0.000
268.50	-0.000
268.72	-0.000
268.93	-0.000
269.14	-0.000
269.35	-0.000
269.57	-0.000
269.78	-0.000
269.99	-0.000
270.20	-0.000
270.41	-0.000
270.63	-0.000
270.84	-0.000
271.05	-0.000
271.26	-0.000
271.48	-0.000
271.69	-0.000
271.90	-0.000
272.11	-0.000
272.32	-0.000
272.54	-0.000
272.75	-0.000
272.96	-0.000
273.17	-0.000
273.39	-0.000
273.60	-0.000
273.81	-0.000
274.02	-0.000
274.23	-0.000
274.45	-0.000
274.66	-0.000
274.87	-0.000
275.08	-0.000
275.29	-0.000
275.51	-0.000
275.72	-0.000
275.93	-0.000
276.14	-0.000
276.35	-0.000
276.57	-0.000
276.78	-0.000
276.99	-0.000
277.20	-0.000
277.41	-0.000
277.63	-0.000
277.84	-0.000
278.05	-0.000
278.26	-0.000
278.47	-0.000
278.69	-0.000
278.90	-0.000
279.11	-0.000
279.32	-0.000
279.53	-0.000
279.74	-0.000
279.96	-0.000
280.17	-0.000
280.38	-0.000
280.59	-0.000
280.80	-0.000
281.02	-0.000
281.23	-0.000
281.44	-0.000
281.65	-0.000
281.86	-0.000
282.07	-0.000
282.29	-0.000
282.50	-0.000
282.71	-0.000
282.92	-0.000
283.13	-0.000
283.35	-0.000
283.56	-0.000
283.77	-0.000
283.98	-0.000
284.19	-0.000
284.40	-0.000
284.62	-0.000
284.83	-0.000
285.04	-0.000
285.25	-0.000
285.46	-0.000
285.67	-0.000
285.88	-0.000
286.10	-0.000
286.31	-0.000
286.52	-0.000
286.73	-0.000
286.94	-0.000
287.15	-0.000
287.37	-0.000
287.58	-0.000
287.79	-0.000
288.00	-0.000
288.21	-0.000
288.42	-0.000
288.63	-0.000
288.85	-0.000
289.06	-0.000
289.27	-0.000
289.48	-0.000
289.69	-0.000
289.90	-0.000
290.11	-0.000
290.33	-0.000
290.54	-0.000
290.75	-0.000
290.96	-0.000
291.17	-0.000
291.38	-0.000
291.59	-0.000
291.81	-0.000
292.02	-0.000
292.23	-0.000
292.44	-0.000
292.65	-0.000
292.86	-0.000
293.07	-0.000
293.28	-0.000
293.50	-0.000
293.71	-0.000
293.92	-0.000
294.13	-0.000
294.34	-0.000
294.55	-0.000
294.76	-0.000
294.97	-0.000
295.19	-0.000
295.40	-0.000
295.61	-0.000
295.82	-0.000
296.03	-0.000
296.24	-0.000
296.45	-0.000
296.66	-0.000
296.87	-0.000
297.09	-0.000
297.30	-0.000
297.51	2.832
297.72	2.479
297.93	-0.000
298.14	-0.000
298.35	2.598
298.56	2.365
298.77	-0.000
298.99	3.493
299.20	2.601
299.41	2.403
299.62	2.228
299.83	2.172
300.04	1.985
300.25	1.922
300.46	2.026
300.67	1.960
300.88	1.829
301.10	1.834
301.31	2.028
301.52	1.887
301.73	1.782
301.94	1.786
302.15	1.837
302.36	1.734
302.57	1.622
302.78	1.642
302.99	1.716
303.20	1.757
303.41	1.593
303.63	1.562
303.84	1.573
304.05	1.563
304.26	1.472
304.47	1.476
304.68	1.489
304.89	1.474
305.10	1.410
305.31	1.387
305.52	1.440
305.73	1.428
305.94	1.370
306.15	1.361
306.37	1.389
306.58	1.393
306.79	1.350
307.00	1.374
307.21	1.422
307.42	1.413
307.63	1.372
307.84	1.333
308.05	1.379
308.26	1.380
308.47	1.350
308.68	1.343
308.89	1.347
309.10	1.340
309.31	1.288
309.52	1.275
309.73	1.294
309.95	1.284
310.16	1.245
310.37	1.233
310.58	1.254
310.79	1.252
311.00	1.244
311.21	1.246
311.42	1.252
311.63	1.247
311.84	1.225
312.05	1.224
312.26	1.252
312.47	1.269
312.68	1.238
312.89	1.219
313.10	1.228
313.31	1.198
313.52	1.200
313.73	1.200
313.94	1.205
314.15	1.183
314.36	1.154
314.57	1.145
314.78	1.131
314.99	1.124
315.21	1.108
315.42	1.115
315.63	1.129
315.84	1.102
316.05	1.084
316.26	1.093
316.47	1.116
316.68	1.116
316.89	1.093
317.10	1.117
317.31	1.124
317.52	1.125
317.73	1.099
317.94	1.098
318.15	1.146
318.36	1.146
318.57	1.123
318.78	1.109
318.99	1.145
319.20	1.141
319.41	1.101
319.62	1.102
319.83	1.117
320.04	1.112
320.25	1.095
320.46	1.059
320.67	1.064
320.88	1.058
321.09	1.043
321.30	1.027
321.51	1.046
321.72	1.044
321.93	1.026
322.14	1.017
322.35	1.046
322.56	1.048
322.77	1.033
322.98	1.045
323.19	1.056
323.40	1.062
323.61	1.040
323.82	1.032
324.03	1.037
324.24	1.034
324.45	1.020
324.66	1.000
324.87	0.997
325.08	0.999
325.29	0.976
325.50	0.969
325.71	0.974
325.92	0.982
326.13	0.969
326.34	0.970
326.55	0.979
326.76	0.979
326.97	0.966
327.18	0.959
327.39	0.986
327.60	0.986
327.80	0.986
328.01	0.984
328.22	0.984
328.43	0.987
328.64	0.973
328.85	0.977
329.06	0.979
329.27	0.979
329.48	0.975
329.69	0.955
329.90	0.966
330.11	0.959
330.32	0.951
330.53	0.944
330.74	0.945
330.95	0.942
331.16	0.927
331.37	0.935
331.58	0.935
331.79	0.933
332.00	0.923
332.21	0.916
332.42	0.920
332.63	0.910
332.83	0.905
333.04	0.907
333.25	0.920
333.46	0.918
333.67	0.904
333.88	0.907
334.09	0.918
334.30	0.915
334.51	0.906
334.72	0.902
334.93	0.907
335.14	0.905
335.35	0.897
335.56	0.893
335.77	0.903
335.98	0.901
336.18	0.894
336.39	0.887
336.60	0.892
336.81	0.890
337.02	0.888
337.23	0.894
337.44	0.897
337.65	0.898
337.86	0.887
338.07	0.883
338.28	0.888
338.49	0.884
338.70	0.877
338.91	0.884
339.11	0.891
339.32	0.886
339.53	0.873
339.74	0.870
339.95	0.866
340.16	0.864
340.37	0.855
340.58	0.854
340.79	0.858
341.00	0.856
341.21	0.844
341.41	0.844
341.62	0.847
341.83	0.847
342.04	0.843
342.25	0.854
342.46	0.860
342.67	0.858
342.88	0.849
343.09	0.848
343.30	0.856
343.50	0.860
343.71	0.850
343.92	0.847
344.13	0.852
344.34	0.852
344.55	0.834
344.76	0.833
344.97	0.838
345.18	0.837
345.38	0.835
345.59	0.830
345.80	0.831
346.01	0.829
346.22	0.824
346.43	0.818
346.64	0.826
346.85	0.826
347.06	0.818
347.26	0.818
347.47	0.822
347.68	0.817
347.89	0.813
348.10	0.808
348.31	0.815
348.52	0.814
348.73	0.812
348.93	0.808
349.14	0.811
349.35	0.810
349.56	0.804
349.77	0.799
349.98	0.806
350.19	0.803
350.39	0.797
350.60	0.792
350.81	0.810
351.02	0.808
351.23	0.803
351.44	0.806
351.65	0.810
351.86	0.808
352.06	0.806
352.27	0.807
352.48	0.808
352.69	0.808
352.90	0.802
353.11	0.788
353.31	0.795
353.52	0.791
353.73	0.782
353.94	0.783
354.15	0.789
354.36	0.789
354.57	0.780
354.77	0.782
354.98	0.782
355.19	0.781
355.40	0.780
355.61	0.786
355.82	0.791
356.02	0.790
356.23	0.782
356.44	0.785
356.65	0.788
356.86	0.789
357.07	0.782
357.27	0.785
357.48	0.788
357.69	0.784
357.90	0.769
358.11	0.766
358.32	0.771
358.52	0.774
358.73	0.763
358.94	0.765
359.15	0.771
359.36	0.771
359.56	0.765
359.77	0.762
359.98	0.769
360.19	0.768
360.40	0.765
360.61	0.765
360.81	0.764
361.02	0.765
361.23	0.757
361.44	0.756
361.65	0.757
361.85	0.756
362.06	0.754
362.27	0.756
362.48	0.757
362.69	0.758
362.89	0.752
363.10	0.754
363.31	0.758
363.52	0.762
363.73	0.756
363.93	0.757
364.14	0.759
364.35	0.761
364.56	0.750
364.77	0.752
364.97	0.755
365.18	0.756
365.39	0.750
365.60	0.746
365.81	0.746
366.01	0.747
366.22	0.743
366.43	0.742
366.64	0.745
366.84	0.750
367.05	0.746
367.26	0.746
367.47	0.748
367.68	0.748
367.88	0.745
368.09	0.743
368.30	0.745
368.51	0.746
368.71	0.745
368.92	0.748
369.13	0.746
369.34	0.746
369.55	0.744
369.75	0.743
369.96	0.751
370.17	0.751
370.38	0.748
370.58	0.747
370.79	0.752
371.00	0.751
371.21	0.741
371.41	0.747
371.62	0.752
371.83	0.747
372.04	0.745
372.24	0.737
372.45	0.739
372.66	0.739
372.87	0.735
373.07	0.732
373.28	0.733
373.49	0.737
373.70	0.727
373.90	0.725
374.11	0.735
374.32	0.734
374.53	0.733
374.73	0.733
374.94	0.736
375.15	0.736
375.36	0.734
375.56	0.743
375.77	0.743
375.98	0.744
376.19	0.741
376.39	0.735
376.60	0.739
376.81	0.739
377.02	0.737
377.22	0.736
377.43	0.736
377.64	0.735
377.84	0.726
378.05	0.731
378.26	0.737
378.47	0.736
378.67	0.732
378.88	0.729
379.09	0.730
379.30	0.729
379.50	0.726
379.71	0.729
379.92	0.732
380.12	0.730
380.33	0.721
380.54	0.717
380.75	0.724
380.95	0.725
381.16	0.722
381.37	0.723
381.57	0.725
381.78	0.725
381.99	0.724
382.20	0.724
382.40	0.727
382.61	0.728
382.82	0.725
383.02	0.718
383.23	0.721
383.44	0.722
383.64	0.720
383.85	0.722
384.06	0.725
384.27	0.723
384.47	0.721
384.68	0.721
384.89	0.726
385.09	0.726
385.30	0.725
385.51	0.724
385.71	0.727
385.92	0.727
386.13	0.725
386.33	0.727
386.54	0.728
386.75	0.727
386.95	0.723
387.16	0.718
387.37	0.721
387.58	0.721
387.78	0.719
387.99	0.716
388.20	0.718
388.40	0.715
388.61	0.711
388.82	0.714
389.02	0.716
389.23	0.716
389.44	0.713
389.64	0.713
389.85	0.724
390.06	0.724
390.26	0.724
390.47	0.723
390.68	0.726
390.88	0.724
391.09	0.719
391.30	0.718
391.50	0.718
391.71	0.718
391.92	0.715
392.12	0.707
392.33	0.707
392.53	0.707
392.74	0.707
392.95	0.707
393.15	0.710
393.36	0.711
393.57	0.709
393.77	0.712
393.98	0.714
394.19	0.714
394.39	0.714
394.60	0.715
394.81	0.717
395.01	0.714
395.22	0.712
395.43	0.713
395.63	0.718
395.84	0.719
396.04	0.714
396.25	0.715
396.46	0.717
396.66	0.716
396.87	0.713
397.08	0.709
397.28	0.711
397.49	0.712
397.69	0.708
397.90	0.703
398.11	0.705
398.31	0.706
398.52	0.702
398.73	0.703
398.93	0.703
399.14	0.702
399.34	0.701
399.55	0.702
399.76	0.702
399.96	0.703
400.17	0.701
400.37	0.699
400.58	0.706
400.79	0.708
400.99	0.704
401.20	0.709
401.41	0.712
401.61	0.712
401.82	0.717
402.02	0.716
402.23	0.718
402.44	0.717
402.64	0.717
402.85	0.712
403.05	0.711
403.26	0.710
403.47	0.704
403.67	0.704
403.88	0.705
404.08	0.699
404.29	0.697
404.50	0.697
404.70	0.698
404.91	0.697
405.11	0.693
405.32	0.694
405.52	0.694
405.73	0.694
405.94	0.691
406.14	0.693
406.35	0.695
406.55	0.695
406.76	0.692
406.97	0.693
407.17	0.696
407.38	0.696
407.58	0.694
407.79	0.697
407.99	0.700
408.20	0.701
408.41	0.696
408.61	0.694
408.82	0.696
409.02	0.695
409.23	0.693
409.43	0.691
409.64	0.692
409.84	0.691
410.05	0.688
410.26	0.686
410.46	0.686
410.67	0.685
410.87	0.687
411.08	0.689
411.28	0.691
411.49	0.692
411.69	0.690
411.90	0.692
412.11	0.693
412.31	0.694
412.52	0.692
412.72	0.693
412.93	0.694
413.13	0.693
413.34	0.688
413.54	0.689
413.75	0.691
413.95	0.691
414.16	0.688
414.37	0.690
414.57	0.690
414.78	0.693
414.98	0.691
415.19	0.692
415.39	0.690
415.60	0.692
415.80	0.691
416.01	0.690
416.21	0.691
416.42	0.691
416.62	0.687
416.83	0.687
417.03	0.686
417.24	0.686
417.44	0.684
417.65	0.683
417.86	0.684
418.06	0.682
418.27	0.680
418.47	0.682
418.68	0.683
418.88	0.683
419.09	0.680
419.29	0.682
419.50	0.682
419.70	0.682
419.91	0.680
420.11	0.678
420.32	0.680
420.52	0.680
420.73	0.679
420.93	0.679
421.14	0.681
421.34	0.681
421.55	0.677
421.75	0.677
421.96	0.678
422.16	0.678
422.37	0.677
422.57	0.674
422.78	0.677
422.98	0.673
423.19	0.671
423.39	0.670
423.60	0.673
423.80	0.675
424.01	0.673
424.21	0.676
424.42	0.677
424.62	0.677
424.83	0.676
425.03	0.676
425.23	0.679
425.44	0.679
425.64	0.679
425.85	0.678
426.05	0.679
426.26	0.679
426.46	0.676
426.67	0.675
426.87	0.680
427.08	0.680
427.28	0.678
427.49	0.678
427.69	0.680
427.90	0.679
428.10	0.676
428.31	0.676
428.51	0.677
428.71	0.676
428.92	0.676
429.12	0.673
429.33	0.675
429.53	0.679
429.74	0.682
429.94	0.682
430.15	0.682
430.35	0.682
430.56	0.680
430.76	0.680
430.96	0.680
431.17	0.679
431.37	0.676
431.58	0.674
431.78	0.671
431.99	0.664
432.19	0.666
432.40	0.668
432.60	0.669
432.80	0.671
433.01	0.669
433.21	0.669
433.42	0.671
433.62	0.671
433.83	0.671
434.03	0.673
434.23	0.677
434.44	0.676
434.64	0.674
434.85	0.679
435.05	0.680
435.26	0.680
435.46	0.679
435.66	0.679
435.87	0.678
436.07	0.678
436.28	0.674
436.48	0.671
436.69	0.670
436.89	0.670
437.09	0.663
437.30	0.662
437.50	0.663
437.71	0.674
437.91	0.673
438.11	0.676
438.32	0.680
438.52	0.681
438.73	0.680
438.93	0.679
439.13	0.679
439.34	0.682
439.54	0.680
439.75	0.679
439.95	0.670
440.15	0.674
440.36	0.672
440.56	0.670
440.77	0.671
440.97	0.671
441.17	0.670
441.38	0.671
441.58	0.669
441.79	0.668
441.99	0.667
442.19	0.666
442.40	0.664
442.60	0.664
442.81	0.662
443.01	0.662
443.21	0.662
443.42	0.662
443.62	0.660
443.82	0.660
444.03	0.663
444.23	0.662
444.44	0.662
444.64	0.661
444.84	0.662
445.05	0.662
445.25	0.660
445.45	0.660
445.66	0.663
445.86	0.663
446.06	0.664
446.27	0.662
446.47	0.666
446.68	0.664
446.88	0.663
447.08	0.662
447.29	0.664
447.49	0.664
447.69	0.663
447.90	0.662
448.10	0.665
448.30	0.662
448.51	0.664
448.71	0.662
448.91	0.664
449.12	0.663
449.32	0.665
449.52	0.664
449.73	0.668
449.93	0.667
450.14	0.668
450.34	0.667
450.54	0.670
450.75	0.667
450.95	0.666
451.15	0.665
451.36	0.668
451.56	0.665
451.76	0.664
451.97	0.661
452.17	0.660
452.37	0.659
452.58	0.655
452.78	0.655
452.98	0.658
453.19	0.658
453.39	0.659
453.59	0.657
453.79	0.658
454.00	0.659
454.20	0.658
454.40	0.659
454.61	0.661
454.81	0.662
455.01	0.661
455.22	0.661
455.42	0.663
455.62	0.660
455.83	0.660
456.03	0.662
456.23	0.664
456.44	0.665
456.64	0.664
456.84	0.664
457.04	0.664
457.25	0.663
457.45	0.660
457.65	0.658
457.86	0.660
458.06	0.659
458.26	0.654
458.47	0.653
458.67	0.654
458.87	0.655
459.07	0.652
459.28	0.654
459.48	0.656
459.68	0.657
459.89	0.656
460.09	0.655
460.29	0.656
460.49	0.658
460.70	0.657
460.90	0.657
461.10	0.657
461.31	0.657
461.51	0.654
461.71	0.656
461.91	0.657
462.12	0.657
462.32	0.656
462.52	0.657
462.72	0.660
462.93	0.661
463.13	0.659
463.33	0.660
463.53	0.662
463.74	0.662
463.94	0.658
464.14	0.658
464.35	0.659
464.55	0.659
464.75	0.657
464.95	0.654
465.16	0.656
465.36	0.654
465.56	0.653
465.76	0.652
465.97	0.652
466.17	0.653
466.37	0.651
466.57	0.652
466.78	0.653
466.98	0.653
467.18	0.651
467.38	0.651
467.59	0.653
467.79	0.654
467.99	0.653
468.19	0.655
468.39	0.658
468.60	0.658
468.80	0.656
469.00	0.658
469.20	0.659
469.41	0.659
469.61	0.658
469.81	0.658
470.01	0.657
470.22	0.658
470.42	0.655
470.62	0.654
470.82	0.655
471.02	0.654
471.23	0.652
471.43	0.653
471.63	0.655
471.83	0.655
472.04	0.653
472.24	0.653
472.44	0.659
472.64	0.658
472.84	0.656
473.05	0.656
473.25	0.658
473.45	0.658
473.65	0.655
473.85	0.656
474.06	0.657
474.26	0.656
474.46	0.657
474.66	0.653
474.86	0.655
475.07	0.655
475.27	0.653
475.47	0.650
475.67	0.651
475.87	0.653
476.08	0.650
476.28	0.651
476.48	0.652
476.68	0.651
476.88	0.649
477.09	0.650
477.29	0.652
477.49	0.652
477.69	0.651
477.89	0.651
478.09	0.651
478.30	0.653
478.50	0.650
478.70	0.650
478.90	0.651
479.10	0.654
479.31	0.655
479.51	0.653
479.71	0.654
479.91	0.654
480.11	0.652
480.31	0.652
480.52	0.651
480.72	0.651
480.92	0.649
481.12	0.647
481.32	0.645
481.52	0.642
481.72	0.642
481.93	0.646
482.13	0.647
482.33	0.647
482.53	0.644
482.73	0.645
482.93	0.646
483.14	0.646
483.34	0.645
483.54	0.646
483.74	0.646
483.94	0.645
484.14	0.640
484.34	0.641
484.55	0.641
484.75	0.641
484.95	0.639
485.15	0.639
485.35	0.639
485.55	0.638
485.75	0.636
485.96	0.636
486.16	0.638
486.36	0.638
486.56	0.636
486.76	0.636
486.96	0.637
487.16	0.636
487.36	0.635
487.57	0.634
487.77	0.636
487.97	0.636
488.17	0.634
488.37	0.633
488.57	0.634
488.77	0.634
488.97	0.633
489.18	0.632
489.38	0.634
489.58	0.635
489.78	0.634
489.98	0.633
490.18	0.633
490.38	0.634
490.58	0.633
490.78	0.634
490.98	0.636
491.19	0.636
491.39	0.635
491.59	0.635
491.79	0.638
491.99	0.638
492.19	0.638
492.39	0.641
492.59	0.641
492.79	0.643
492.99	0.643
493.20	0.643
493.40	0.643
493.60	0.644
493.80	0.642
494.00	0.640
494.20	0.640
494.40	0.640
494.60	0.637
494.80	0.642
495.00	0.642
495.20	0.640
495.40	0.639
495.61	0.641
495.81	0.640
496.01	0.644
496.21	0.645
496.41	0.645
496.61	0.645
496.81	0.644
497.01	0.639
497.21	0.638
497.41	0.639
497.61	0.638
497.81	0.635
498.01	0.636
498.21	0.634
498.41	0.632
498.61	0.631
498.82	0.633
499.02	0.636
499.22	0.636
499.42	0.636
499.62	0.637
499.82	0.638
500.02	0.639
500.22	0.638
500.42	0.640
500.62	0.640
500.82	0.641
501.02	0.638
501.22	0.638
501.42	0.638
501.62	0.639
501.82	0.638
502.02	0.639
502.22	0.638
502.42	0.640
502.62	0.638
502.82	0.638
503.02	0.639
503.22	0.639
503.42	0.637
503.63	0.637
503.83	0.635
504.03	0.634
504.23	0.633
504.43	0.633
504.63	0.634
504.83	0.633
505.03	0.633
505.23	0.634
505.43	0.636
505.63	0.636
505.83	0.636
506.03	0.637
506.23	0.640
506.43	0.640
506.63	0.639
506.83	0.638
507.03	0.640
507.23	0.640
507.43	0.637
507.63	0.638
507.83	0.639
508.03	0.639
508.23	0.638
508.43	0.637
508.63	0.639
508.83	0.639
509.03	0.640
509.23	0.639
509.43	0.640
509.63	0.640
509.83	0.639
510.03	0.641
510.23	0.643
510.43	0.644
510.63	0.644
510.83	0.644
511.03	0.646
511.23	0.643
511.43	0.643
511.63	0.644
511.83	0.647
512.03	0.646
512.22	0.643
512.42	0.642
512.62	0.644
512.82	0.643
513.02	0.642
513.22	0.642
513.42	0.644
513.62	0.647
513.82	0.645
514.02	0.644
514.22	0.646
514.42	0.646
514.62	0.646
514.82	0.645
515.02	0.648
515.22	0.651
515.42	0.650
515.62	0.653
515.82	0.652
516.02	0.653
516.22	0.654
516.42	0.655
516.62	0.657
516.82	0.658
517.01	0.656
517.21	0.655
517.41	0.659
517.61	0.660
517.81	0.655
518.01	0.654
518.21	0.654
518.41	0.653
518.61	0.651
518.81	0.652
519.01	0.652
519.21	0.653
519.41	0.652
519.61	0.647
519.81	0.648
520.00	0.649
520.20	0.650
520.40	0.653
520.60	0.654
520.80	0.653
521.00	0.653
521.20	0.654
521.40	0.659
521.60	0.659
521.80	0.658
522.00	0.658
522.20	0.661
522.39	0.660
522.59	0.657
522.79	0.659
522.99	0.661
523.19	0.659
523.39	0.657
523.59	0.655
523.79	0.658
523.99	0.661
524.19	0.660
524.38	0.659
524.58	0.661
524.78	0.661
524.98	0.659
525.18	0.661
525.38	0.663
525.58	0.664
525.78	0.661
525.98	0.659
526.18	0.660
526.37	0.659
526.57	0.660
526.77	0.660
526.97	0.660
527.17	0.661
527.37	0.656
527.57	0.658
527.77	0.660
527.96	0.660
528.16	0.659
528.36	0.660
528.56	0.662
528.76	0.659
528.96	0.659
529.16	0.660
529.36	0.664
529.55	0.665
529.75	0.661
529.95	0.661
530.15	0.663
530.35	0.666
530.55	0.663
530.75	0.664
530.94	0.666
531.14	0.666
531.34	0.663
531.54	0.661
531.74	0.664
531.94	0.667
532.13	0.665
532.33	0.667
532.53	0.665
532.73	0.664
532.93	0.661
533.13	0.662
533.33	0.663
533.52	0.664
533.72	0.667
533.92	0.666
534.12	0.664
534.32	0.664
534.52	0.663
534.71	0.665
534.91	0.668
535.11	0.670
535.31	0.668
535.51	0.670
535.71	0.672
535.90	0.669
536.10	0.670
536.30	0.671
536.50	0.673
536.70	0.673
536.89	0.670
537.09	0.668
537.29	0.670
537.49	0.671
537.69	0.670
537.89	0.670
538.08	0.670
538.28	0.668
538.48	0.668
538.68	0.670
538.88	0.671
539.07	0.672
539.27	0.671
539.47	0.669
539.67	0.669
539.87	0.670
540.06	0.668
540.26	0.668
540.46	0.671
540.66	0.668
540.86	0.665
541.05	0.666
541.25	0.667
541.45	0.667
541.65	0.666
541.84	0.668
542.04	0.669
542.24	0.670
542.44	0.668
542.64	0.670
542.83	0.673
543.03	0.673
543.23	0.671
543.43	0.672
543.62	0.673
543.82	0.673
544.02	0.672
544.22	0.672
544.42	0.675
544.61	0.676
544.81	0.672
545.01	0.671
545.21	0.673
545.40	0.674
545.60	0.672
545.80	0.675
546.00	0.676
546.19	0.675
546.39	0.673
546.59	0.671
546.79	0.672
546.98	0.672
547.18	0.671
547.38	0.672
547.58	0.675
547.77	0.675
547.97	0.671
548.17	0.672
548.37	0.673
548.56	0.673
548.76	0.672
548.96	0.675
549.16	0.678
549.35	0.678
549.55	0.675
549.75	0.676
549.95	0.680
550.14	0.680
550.34	0.679
550.54	0.684
550.73	0.688
550.93	0.688
551.13	0.685
551.33	0.683
551.52	0.684
551.72	0.684
551.92	0.682
552.12	0.682
552.31	0.683
552.51	0.683
552.71	0.678
552.90	0.678
553.10	0.679
553.30	0.679
553.50	0.678
553.69	0.680
553.89	0.681
554.09	0.680
554.28	0.677
554.48	0.678
554.68	0.680
554.87	0.681
555.07	0.678
555.27	0.679
555.47	0.680
555.66	0.681
555.86	0.678
556.06	0.681
556.25	0.683
556.45	0.691
556.65	0.688
556.84	0.692
557.04	0.695
557.24	0.697
557.43	0.695
557.63	0.698
557.83	0.700
558.02	0.701
558.22	0.705
558.42	0.706
558.61	0.699
558.81	0.699
559.01	0.695
559.21	0.695
559.40	0.696
559.60	0.696
559.80	0.692
559.99	0.693
560.19	0.696
560.39	0.689
560.58	0.686
560.78	0.686
560.97	0.690
561.17	0.689
561.37	0.686
561.56	0.687
561.76	0.688
561.96	0.688
562.15	0.685
562.35	0.687
562.55	0.689
562.74	0.689
562.94	0.688
563.14	0.686
563.33	0.687
563.53	0.687
563.73	0.684
563.92	0.686
564.12	0.688
564.31	0.691
564.51	0.689
564.71	0.691
564.90	0.694
565.10	0.695
565.30	0.697
565.49	0.698
565.69	0.701
565.89	0.701
566.08	0.698
566.28	0.699
566.47	0.701
566.67	0.699
566.87	0.696
567.06	0.697
567.26	0.703
567.46	0.699
567.65	0.697
567.85	0.698
568.04	0.702
568.24	0.700
568.44	0.696
568.63	0.694
568.83	0.696
569.02	0.695
569.22	0.690
569.42	0.687
569.61	0.690
569.81	0.688
570.00	0.686
570.20	0.688
570.40	0.689
570.59	0.690
570.79	0.688
570.98	0.686
571.18	0.688
571.38	0.687
571.57	0.684
571.77	0.681
571.96	0.685
572.16	0.683
572.35	0.677
572.55	0.678
572.75	0.676
572.94	0.676
573.14	0.674
573.33	0.674
573.53	0.675
573.73	0.674
573.92	0.671
574.12	0.669
574.31	0.672
574.51	0.673
574.70	0.670
574.90	0.672
575.09	0.674
575.29	0.674
575.49	0.671
575.68	0.672
575.88	0.674
576.07	0.676
576.27	0.673
576.46	0.672
576.66	0.671
576.86	0.671
577.05	0.668
577.25	0.666
577.44	0.668
577.64	0.668
577.83	0.665
578.03	0.666
578.22	0.666
578.42	0.665
578.61	0.663
578.81	0.664
579.00	0.665
579.20	0.664
579.40	0.663
579.59	0.662
579.79	0.663
579.98	0.662
580.18	0.661
580.37	0.662
580.57	0.664
580.76	0.669
580.96	0.667
581.15	0.668
581.35	0.670
581.54	0.670
581.74	0.669
581.93	0.670
582.13	0.672
582.32	0.669
582.52	0.667
582.71	0.667
582.91	0.663
583.10	0.663
583.30	0.662
583.49	0.661
583.69	0.665
583.88	0.666
584.08	0.665
584.27	0.667
584.47	0.670
584.66	0.672
584.86	0.670
585.05	0.673
585.25	0.675
585.44	0.674
585.64	0.673
585.83	0.669
586.03	0.670
586.22	0.669
586.42	0.665
586.61	0.667
586.81	0.669
587.00	0.669
587.20	0.666
587.39	0.667
587.59	0.669
587.78	0.670
587.98	0.671
588.17	0.671
588.37	0.674
588.56	0.676
588.76	0.672
588.95	0.672
589.15	0.676
589.34	0.679
589.54	0.677
589.73	0.678
589.92	0.682
590.12	0.682
590.31	0.679
590.51	0.684
590.70	0.686
590.90	0.686
591.09	0.683
591.29	0.682
591.48	0.682
591.68	0.683
591.87	0.680
592.06	0.680
592.26	0.682
592.45	0.682
592.65	0.675
592.84	0.675
593.04	0.678
593.23	0.681
593.43	0.678
593.62	0.677
593.81	0.678
594.01	0.677
594.20	0.674
594.40	0.674
594.59	0.676
594.79	0.677
594.98	0.675
595.17	0.674
595.37	0.675
595.56	0.677
595.76	0.677
595.95	0.678
596.14	0.681
596.34	0.683
596.53	0.681
596.73	0.682
596.92	0.683
597.12	0.686
597.31	0.686
597.50	0.685
597.70	0.686
597.89	0.685
598.09	0.682
598.28	0.683
598.47	0.686
598.67	0.684
598.86	0.681
599.06	0.683
599.25	0.684
599.44	0.681
599.64	0.679
599.83	0.677
600.03	0.680
600.22	0.681
600.41	0.680
600.61	0.678
600.80	0.681
601.00	0.681
601.19	0.677
601.38	0.675
601.58	0.678
601.77	0.679
601.96	0.681
602.16	0.680
602.35	0.690
602.55	0.687
602.74	0.687
602.93	0.689
603.13	0.694
603.32	0.695
603.51	0.694
603.71	0.698
603.90	0.699
604.09	0.700
604.29	0.697
604.48	0.692
604.68	0.694
604.87	0.692
605.06	0.689
605.26	0.686
605.45	0.687
605.64	0.686
605.84	0.681
606.03	0.681
606.22	0.679
606.42	0.679
606.61	0.675
606.80	0.675
607.00	0.677
607.19	0.677
607.38	0.675
607.58	0.677
607.77	0.680
607.96	0.680
608.16	0.678
608.35	0.683
608.54	0.687
608.74	0.690
608.93	0.695
609.12	0.697
609.32	0.700
609.51	0.703
609.70	0.702
609.90	0.703
610.09	0.708
610.28	0.713
610.48	0.707
610.67	0.708
610.86	0.709
611.06	0.703
611.25	0.700
611.44	0.701
611.64	0.701
611.83	0.703
612.02	0.700
612.21	0.698
612.41	0.698
612.60	0.697
612.79	0.693
612.99	0.693
613.18	0.696
613.37	0.694
613.57	0.691
613.76	0.693
613.95	0.691
614.14	0.690
614.34	0.688
614.53	0.689
614.72	0.692
614.92	0.692
615.11	0.688
615.30	0.685
615.49	0.687
615.69	0.690
615.88	0.686
616.07	0.687
616.26	0.690
616.46	0.692
616.65	0.689
616.84	0.688
617.04	0.689
617.23	0.693
617.42	0.694
617.61	0.698
617.81	0.699
618.00	0.701
618.19	0.699
618.38	0.703
618.58	0.707
618.77	0.707
618.96	0.706
619.15	0.708
619.35	0.709
619.54	0.710
619.73	0.704
619.92	0.706
620.12	0.711
620.31	0.711
620.50	0.705
620.69	0.705
620.89	0.708
621.08	0.708
621.27	0.708
621.46	0.707
621.66	0.711
621.85	0.711
622.04	0.707
622.23	0.708
622.43	0.709
622.62	0.709
622.81	0.708
623.00	0.707
623.19	0.712
623.39	0.710
623.58	0.707
623.77	0.706
623.96	0.709
624.16	0.708
624.35	0.702
624.54	0.706
624.73	0.711
624.92	0.708
625.12	0.705
625.31	0.706
625.50	0.710
625.69	0.711
625.88	0.707
626.08	0.707
626.27	0.710
626.46	0.711
626.65	0.707
626.84	0.706
627.04	0.712
627.23	0.712
627.42	0.708
627.61	0.710
627.80	0.713
628.00	0.714
628.19	0.712
628.38	0.716
628.57	0.719
628.76	0.719
628.96	0.715
629.15	0.716
629.34	0.719
629.53	0.719
629.72	0.713
629.91	0.714
630.11	0.719
630.30	0.719
630.49	0.721
630.68	0.722
630.87	0.726
631.06	0.729
631.26	0.723
631.45	0.724
631.64	0.733
631.83	0.734
632.02	0.731
632.21	0.730
632.41	0.737
632.60	0.732
632.79	0.729
632.98	0.730
633.17	0.731
633.36	0.734
633.55	0.730
633.75	0.726
633.94	0.727
634.13	0.728
634.32	0.725
634.51	0.719
634.70	0.721
634.89	0.721
635.09	0.716
635.28	0.718
635.47	0.719
635.66	0.722
635.85	0.718
636.04	0.721
636.23	0.726
636.43	0.728
636.62	0.726
636.81	0.725
637.00	0.728
637.19	0.731
637.38	0.727
637.57	0.727
637.76	0.727
637.95	0.729
638.15	0.725
638.34	0.722
638.53	0.726
638.72	0.728
638.91	0.724
639.10	0.721
639.29	0.722
639.48	0.724
639.67	0.723
639.87	0.722
640.06	0.729
640.25	0.728
640.44	0.728
640.63	0.728
640.82	0.731
641.01	0.731
641.20	0.731
641.39	0.733
641.58	0.735
641.78	0.735
641.97	0.731
642.16	0.744
642.35	0.745
642.54	0.744
642.73	0.737
642.92	0.736
643.11	0.740
643.30	0.739
643.49	0.733
643.68	0.736
643.87	0.738
644.06	0.739
644.25	0.717
644.45	0.720
644.64	0.722
644.83	0.722
645.02	0.719
645.21	0.719
645.40	0.721
645.59	0.721
645.78	0.714
645.97	0.715
646.16	0.716
646.35	0.717
646.54	0.715
646.73	0.716
646.92	0.718
647.11	0.717
647.30	0.713
647.49	0.714
647.68	0.714
647.88	0.712
648.07	0.705
648.26	0.709
648.45	0.710
648.64	0.706
648.83	0.703
649.02	0.706
649.21	0.715
649.40	0.715
649.59	0.709
649.78	0.710
649.97	0.725
650.16	0.724
650.35	0.717
650.54	0.720
650.73	0.729
650.92	0.726
651.11	0.719
651.30	0.717
651.49	0.721
651.68	0.722
651.87	0.718
652.06	0.708
652.25	0.711
652.44	0.714
652.63	0.709
652.82	0.708
653.01	0.708
653.20	0.706
653.39	0.693
653.58	0.691
653.77	0.691
653.96	0.686
654.15	0.677
654.34	0.675
654.53	0.670
654.72	0.665
654.91	0.656
655.10	0.652
655.29	0.650
655.48	0.648
655.67	0.642
655.86	0.640
656.05	0.639
656.24	0.639
656.43	0.634
656.62	0.633
656.81	0.633
657.00	0.631
657.19	0.629
657.38	0.629
657.57	0.629
657.76	0.631
657.95	0.629
658.14	0.633
658.33	0.636
658.51	0.642
658.70	0.642
658.89	0.644
659.08	0.653
659.27	0.660
659.46	0.660
659.65	0.667
659.84	0.671
660.03	0.675
660.22	0.675
660.41	0.679
660.60	0.679
660.79	0.680
660.98	0.685
661.17	0.685
661.36	0.684
661.55	0.686
661.74	0.683
661.92	0.685
662.11	0.687
662.30	0.686
662.49	0.678
662.68	0.677
662.87	0.681
663.06	0.675
663.25	0.675
663.44	0.674
663.63	0.675
663.82	0.675
664.01	0.669
664.20	0.668
664.38	0.670
664.57	0.671
664.76	0.670
664.95	0.671
665.14	0.676
665.33	0.671
665.52	0.678
665.71	0.683
665.90	0.682
666.09	0.683
666.28	0.681
666.46	0.679
666.65	0.680
666.84	0.678
667.03	0.672
667.22	0.670
667.41	0.673
667.60	0.663
667.79	0.656
667.98	0.657
668.16	0.659
668.35	0.658
668.54	0.654
668.73	0.655
668.92	0.656
669.11	0.655
669.30	0.649
669.49	0.646
669.67	0.648
669.86	0.650
670.05	0.648
670.24	0.645
670.43	0.644
670.62	0.642
670.81	0.637
671.00	0.638
671.18	0.638
671.37	0.638
671.56	0.635
671.75	0.634
671.94	0.631
672.13	0.629
672.32	0.625
672.50	0.624
672.69	0.625
672.88	0.625
673.07	0.621
673.26	0.622
673.45	0.624
673.63	0.624
673.82	0.620
674.01	0.621
674.20	0.621
674.39	0.620
674.58	0.619
674.76	0.619
674.95	0.618
675.14	0.618
675.33	0.614
675.52	0.612
675.71	0.612
675.89	0.612
676.08	0.607
676.27	0.607
676.46	0.607
676.65	0.607
676.84	0.606
677.02	0.607
677.21	0.609
677.40	0.608
677.59	0.605
677.78	0.606
677.96	0.609
678.15	0.608
678.34	0.606
678.53	0.607
678.72	0.607
678.90	0.604
679.09	0.599
679.28	0.595
679.47	0.596
679.66	0.595
679.84	0.591
680.03	0.589
680.22	0.587
680.41	0.589
680.60	0.585
680.78	0.584
680.97	0.587
681.16	0.588
681.35	0.587
681.53	0.586
681.72	0.588
681.91	0.591
682.10	0.589
682.29	0.592
682.47	0.590
682.66	0.589
682.85	0.588
683.04	0.586
683.22	0.586
683.41	0.588
683.60	0.586
683.79	0.587
683.97	0.586
684.16	0.584
684.35	0.580
684.54	0.582
684.72	0.582
684.91	0.582
685.10	0.580
685.29	0.581
685.47	0.579
685.66	0.578
685.85	0.574
686.04	0.573
686.22	0.576
686.41	0.578
686.60	0.575
686.79	0.579
686.97	0.580
687.16	0.581
687.35	0.579
687.54	0.583
687.72	0.587
687.91	0.587
688.10	0.589
688.29	0.588
688.47	0.586
688.66	0.585
688.85	0.581
689.03	0.578
689.22	0.583
689.41	0.583
689.60	0.578
689.78	0.575
689.97	0.576
690.16	0.573
690.34	0.569
690.53	0.569
690.72	0.570
690.91	0.568
691.09	0.565
691.28	0.559
691.47	0.558
691.65	0.557
691.84	0.553
692.03	0.552
692.21	0.550
692.40	0.550
692.59	0.548
692.77	0.547
692.96	0.548
693.15	0.549
693.34	0.547
693.52	0.547
693.71	0.549
693.90	0.551
694.08	0.551
694.27	0.552
694.46	0.562
694.64	0.564
694.83	0.563
695.02	0.562
695.20	0.562
695.39	0.562
695.58	0.561
695.76	0.562
695.95	0.560
696.14	0.560
696.32	0.557
696.51	0.547
696.70	0.547
696.88	0.547
697.07	0.546
697.26	0.547
697.44	0.549
697.63	0.547
697.81	0.545
698.00	0.544
698.19	0.544
698.37	0.544
698.56	0.543
698.75	0.543
698.93	0.543
699.12	0.543
699.31	0.542
699.49	0.541
699.68	0.542
699.87	0.545
700.05	0.545
700.24	0.544
700.42	0.546
700.61	0.546
700.80	0.543
700.98	0.543
701.17	0.545
701.36	0.544
701.54	0.543
701.73	0.545
701.91	0.543
702.10	0.542
702.29	0.540
702.47	0.539
702.66	0.541
702.84	0.543
703.03	0.541
703.22	0.542
703.40	0.542
703.59	0.543
703.77	0.542
703.96	0.542
704.15	0.543
704.33	0.544
704.52	0.543
704.70	0.542
704.89	0.541
705.08	0.540
705.26	0.535
705.45	0.536
705.63	0.536
705.82	0.532
706.00	0.531
706.19	0.530
706.38	0.530
706.56	0.529
706.75	0.527
706.93	0.525
707.12	0.527
707.30	0.528
707.49	0.525
707.68	0.523
707.86	0.523
708.05	0.523
708.23	0.521
708.42	0.521
708.60	0.524
708.79	0.524
708.98	0.523
709.16	0.522
709.35	0.524
709.53	0.528
709.72	0.526
709.90	0.528
710.09	0.530
710.27	0.532
710.46	0.536
710.64	0.534
710.83	0.537
711.02	0.538
711.20	0.536
711.39	0.534
711.57	0.532
711.76	0.533
711.94	0.531
712.13	0.532
712.31	0.532
712.50	0.527
712.68	0.524
712.87	0.524
713.05	0.525
713.24	0.526
713.42	0.525
713.61	0.526
713.79	0.527
713.98	0.527
714.16	0.528
714.35	0.528
714.54	0.529
714.72	0.529
714.91	0.527
715.09	0.534
715.28	0.537
715.46	0.537
715.65	0.535
715.83	0.535
716.02	0.537
716.20	0.533
716.39	0.532
716.57	0.533
716.76	0.536
716.94	0.536
717.12	0.528
717.31	0.529
717.49	0.532
717.68	0.535
717.86	0.534
718.05	0.536
718.23	0.539
718.42	0.543
718.60	0.543
718.79	0.552
718.97	0.555
719.16	0.555
719.34	0.552
719.53	0.551
719.71	0.550
719.90	0.552
720.08	0.548
720.27	0.548
720.45	0.548
720.63	0.547
720.82	0.541
721.00	0.543
721.19	0.547
721.37	0.546
721.56	0.546
721.74	0.550
721.93	0.559
722.11	0.567
722.30	0.567
722.48	0.571
722.66	0.572
722.85	0.570
723.03	0.571
723.22	0.569
723.40	0.572
723.59	0.572
723.77	0.575
723.95	0.569
724.14	0.570
724.32	0.571
724.51	0.571
724.69	0.572
724.88	0.573
725.06	0.571
725.24	0.572
725.43	0.574
725.61	0.578
725.80	0.571
725.98	0.568
726.16	0.564
726.35	0.571
726.53	0.570
726.72	0.568
726.90	0.579
727.09	0.580
727.27	0.585
727.45	0.582
727.64	0.591
727.82	0.601
728.01	0.605
728.19	0.602
728.37	0.607
728.56	0.611
728.74	0.618
728.92	0.605
729.11	0.609
729.29	0.609
729.48	0.612
729.66	0.600
729.84	0.599
730.03	0.604
730.21	0.607
730.40	0.596
730.58	0.598
730.76	0.598
730.95	0.601
731.13	0.600
731.31	0.613
731.50	0.623
731.68	0.626
731.86	0.622
732.05	0.636
732.23	0.639
732.42	0.644
732.60	0.646
732.78	0.653
732.97	0.673
733.15	0.678
733.33	0.666
733.52	0.675
733.70	0.687
733.88	0.697
734.07	0.682
734.25	0.711
734.43	0.720
734.62	0.725
734.80	0.718
734.98	0.707
735.17	0.716
735.35	0.723
735.53	0.710
735.72	0.715
735.90	0.740
736.08	0.762
736.27	0.737
736.45	0.749
736.63	0.763
736.82	0.773
737.00	0.773
737.18	0.786
737.37	0.822
737.55	0.848
737.73	0.840
737.92	0.842
738.10	0.840
738.28	0.864
738.46	0.849
738.65	0.861
738.83	0.887
739.01	0.951
739.20	0.939
739.38	0.920
739.56	0.910
739.75	0.917
739.93	0.876
740.11	0.902
740.29	0.902
740.48	0.908
740.66	0.884
740.84	0.881
741.03	0.843
741.21	0.856
741.39	0.836
741.57	0.853
741.76	0.872
741.94	0.885
742.12	0.845
742.31	0.851
742.49	0.876
742.67	0.906
742.85	0.922
743.04	0.929
743.22	0.940
743.40	0.997
743.58	0.972
743.77	0.995
743.95	1.035
744.13	1.097
744.31	1.070
744.50	1.064
744.68	1.065
744.86	1.027
745.04	1.039
745.23	1.117
745.41	1.108
745.59	1.112
745.77	1.062
745.96	1.048
746.14	1.059
746.32	1.062
746.50	1.048
746.69	1.023
746.87	1.041
747.05	1.027
747.23	0.940
747.42	0.922
747.60	0.960
747.78	0.970
747.96	1.007
748.14	0.958
748.33	0.994
748.51	0.986
748.69	0.979
748.87	1.018
749.06	1.016
749.24	1.014
749.42	0.992
749.60	0.965
749.78	0.974
749.97	0.916
750.15	0.912
750.33	0.910
750.51	0.948
750.69	0.951
750.88	0.950
751.06	0.959
751.24	0.993
751.42	0.979
751.60	0.967
751.79	1.059
751.97	1.130
752.15	1.126
752.33	1.084
752.51	1.163
752.69	1.193
752.88	1.149
753.06	1.206
753.24	1.174
753.42	1.232
753.60	1.512
753.78	1.259
753.97	1.271
754.15	1.303
754.33	1.349
754.51	1.160
754.69	1.139
754.87	1.179
755.06	1.084
755.24	1.074
755.42	1.081
755.60	0.965
755.78	0.972
755.96	0.907
756.15	0.905
756.33	0.914
756.51	0.935
756.69	0.915
756.87	0.877
757.05	0.904
757.23	0.891
757.42	0.851
757.60	0.850
757.78	0.839
757.96	0.839
758.14	0.820
758.32	0.802
758.50	0.817
758.69	0.816
758.87	0.807
759.05	0.811
759.23	0.820
759.41	0.821
759.59	0.809
759.77	0.837
759.95	0.867
760.13	0.919
760.32	0.915
760.50	0.908
760.68	0.937
760.86	0.938
761.04	0.906
761.22	0.914
761.40	0.975
761.58	0.978
761.76	0.943
761.95	0.920
762.13	0.876
762.31	0.874
762.49	0.838
762.67	0.860
762.85	0.874
763.03	0.867
763.21	0.841
763.39	0.818
763.57	0.823
763.75	0.814
763.94	0.801
764.12	0.796
764.30	0.825
764.48	0.828
764.66	0.786
764.84	0.782
765.02	0.826
765.20	0.834
765.38	0.813
765.56	0.821
765.74	0.867
765.92	0.867
766.10	0.878
766.28	0.871
766.46	0.904
766.65	0.905
766.83	0.895
767.01	0.874
767.19	0.885
767.37	0.884
767.55	0.865
767.73	0.843
767.91	0.846
768.09	0.833
768.27	0.819
768.45	0.808
768.63	0.815
768.81	0.813
768.99	0.783
769.17	0.810
769.35	0.827
769.53	0.826
769.71	0.802
769.89	0.814
770.07	0.822
770.25	0.803
770.43	0.782
770.61	0.811
770.79	0.821
770.97	0.832
771.15	0.794
771.33	0.798
771.51	0.803
771.69	0.813
771.87	0.818
772.05	0.824
772.24	0.834
772.42	0.844
772.60	0.817
772.78	0.883
772.96	0.920
773.14	0.915
773.32	0.888
773.49	0.894
773.67	0.898
773.85	0.875
774.03	0.858
774.21	0.896
774.39	0.909
774.57	0.934
774.75	0.850
774.93	0.843
775.11	0.873
775.29	0.875
775.47	0.876
775.65	0.890
775.83	0.914
776.01	0.941
776.19	0.881
776.37	0.886
776.55	0.888
776.73	0.884
776.91	0.877
777.09	0.857
777.27	0.863
777.45	0.845
777.63	0.817
777.81	0.811
777.99	0.802
778.17	0.804
778.35	0.776
778.53	0.764
778.71	0.770
778.89	0.756
779.07	0.743
779.24	0.747
779.42	0.749
779.60	0.768
779.78	0.762
779.96	0.763
780.14	0.769
780.32	0.790
780.50	0.769
780.68	0.770
780.86	0.762
781.04	0.780
781.22	0.784
781.40	0.798
781.58	0.791
781.75	0.783
781.93	0.766
782.11	0.768
782.29	0.755
782.47	0.756
782.65	0.740
782.83	0.772
783.01	0.764
783.19	0.757
783.37	0.740
783.55	0.742
783.72	0.763
783.90	0.775
784.08	0.765
784.26	0.776
784.44	0.798
784.62	0.799
784.80	0.762
784.98	0.769
785.16	0.775
785.33	0.791
785.51	0.773
785.69	0.757
785.87	0.757
786.05	0.767
786.23	0.762
786.41	0.758
786.59	0.768
786.77	0.767
786.94	0.751
787.12	0.755
787.30	0.757
787.48	0.754
787.66	0.741
787.84	0.742
788.02	0.735
788.19	0.731
788.37	0.716
788.55	0.717
788.73	0.719
788.91	0.712
789.09	0.693
789.27	0.681
789.44	0.694
789.62	0.702
789.80	0.710
789.98	0.736
790.16	0.725
790.34	0.720
790.51	0.707
790.69	0.729
790.87	0.736
791.05	0.735
791.23	0.729
791.41	0.729
791.58	0.738
791.76	0.715
791.94	0.683
792.12	0.691
792.30	0.693
792.48	0.692
792.65	0.684
792.83	0.693
793.01	0.701
793.19	0.699
793.37	0.682
793.54	0.678
793.72	0.690
793.90	0.690
794.08	0.677
794.26	0.679
794.43	0.687
794.61	0.669
794.79	0.655
794.97	0.653
795.15	0.660
795.32	0.665
795.50	0.651
795.68	0.647
795.86	0.650
796.04	0.654
796.21	0.649
796.39	0.649
796.57	0.665
796.75	0.674
796.92	0.674
797.10	0.679
797.28	0.683
797.46	0.687
797.64	0.686
797.81	0.691
797.99	0.697
798.17	0.701
798.35	0.693
798.52	0.696
798.70	0.692
798.88	0.701
799.06	0.698
799.23	0.701
799.41	0.711
799.59	0.705
799.77	0.694
799.94	0.702
800.12	0.711
800.30	0.730
800.48	0.729
800.65	0.730
800.83	0.721
801.01	0.712
801.19	0.710
801.36	0.706
801.54	0.710
801.72	0.723
801.90	0.707
802.07	0.703
802.25	0.687
802.43	0.670
802.60	0.665
802.78	0.670
802.96	0.677
803.14	0.672
803.31	0.669
803.49	0.669
803.67	0.663
803.84	0.666
804.02	0.657
804.20	0.659
804.38	0.665
804.55	0.664
804.73	0.651
804.91	0.651
805.08	0.663
805.26	0.659
805.44	0.728
805.61	0.732
805.79	0.734
805.97	0.733
806.15	0.723
806.32	0.719
806.50	0.726
806.68	0.724
806.85	0.712
807.03	0.703
807.21	0.722
807.38	0.650
807.56	0.639
807.74	0.649
807.91	0.657
808.09	0.660
808.27	0.678
808.44	0.706
808.62	0.717
808.80	0.721
808.97	0.714
809.15	0.707
809.33	0.724
809.50	0.730
809.68	0.713
809.86	0.720
810.03	0.756
810.21	0.737
810.39	0.714
810.56	0.722
810.74	0.746
810.91	0.824
811.09	0.813
811.27	0.838
811.44	0.846
811.62	0.851
811.80	0.833
811.97	0.799
812.15	0.798
812.33	0.792
812.50	0.775
812.68	0.763
812.85	0.704
813.03	0.708
813.21	0.673
813.38	0.669
813.56	0.673
813.74	0.683
813.91	0.690
814.09	0.720
814.26	0.716
814.44	0.718
814.62	0.706
814.79	0.710
814.97	0.716
815.14	0.721
815.32	0.722
815.50	0.740
815.67	0.744
815.85	0.734
816.02	0.723
816.20	0.731
816.38	0.749
816.55	0.754
816.73	0.755
816.90	0.764
817.08	0.798
817.26	0.805
817.43	0.784
817.61	0.812
817.78	0.835
817.96	0.812
818.13	0.799
818.31	0.801
818.49	0.820
818.66	0.811
818.84	0.798
819.01	0.773
819.19	0.783
819.36	0.782
819.54	0.746
819.71	0.794
819.89	0.812
820.07	0.827
820.24	0.818
820.42	0.817
820.59	0.840
820.77	0.863
820.94	0.853
821.12	0.873
821.29	0.896
821.47	0.899
821.64	0.827
821.82	0.844
822.00	0.843
822.17	0.842
822.35	0.834
822.52	0.837
822.70	0.829
822.87	0.842
823.05	0.815
823.22	0.829
823.40	0.863
823.57	0.886
823.75	0.859
823.92	0.891
824.10	0.918
824.27	0.966
824.45	0.949
824.62	1.022
824.80	1.045
824.97	1.062
825.15	1.049
825.32	1.073
825.50	1.089
825.67	1.102
825.85	1.062
826.02	1.092
826.20	1.139
826.37	1.349
826.55	1.219
826.72	1.605
826.90	1.876
827.07	2.164
827.25	1.855
827.42	-0.000
827.60	-0.000
827.77	-0.000
827.95	-0.000
828.12	-0.000
828.30	-0.000
828.47	-0.000
828.65	2.021
828.82	4.666
829.00	-0.000
829.17	-0.000
829.34	-0.000
829.52	-0.000
829.69	-0.000
829.87	-0.000
830.04	-0.000
830.22	-0.000
830.39	-0.000
830.57	-0.000
830.74	-0.000
830.92	-0.000
831.09	-0.000
831.26	-0.000
831.44	-0.000
831.61	-0.000
831.79	-0.000
831.96	-0.000
832.14	-0.000
832.31	-0.000
832.49	-0.000
832.66	-0.000
832.83	-0.000
833.01	-0.000
833.18	-0.000
833.36	-0.000
833.53	-0.000
833.70	-0.000
833.88	-0.000
834.05	-0.000
834.23	-0.000
834.40	-0.000
834.58	-0.000
834.75	-0.000
834.92	-0.000
835.10	-0.000
835.27	-0.000
835.45	-0.000
835.62	-0.000
835.79	-0.000
835.97	-0.000
836.14	-0.000
836.32	-0.000
836.49	-0.000
836.66	-0.000
836.84	-0.000
837.01	-0.000
837.18	-0.000
837.36	-0.000
837.53	-0.000
837.71	-0.000
837.88	-0.000
838.05	-0.000
838.23	-0.000
838.40	-0.000
838.58	-0.000
838.75	-0.000
838.92	-0.000
839.10	-0.000
839.27	-0.000
839.44	-0.000
839.62	-0.000
839.79	-0.000
839.96	-0.000
840.14	-0.000
840.31	-0.000
840.48	-0.000
840.66	-0.000
840.83	-0.000
841.01	-0.000
841.18	-0.000
841.35	-0.000
841.53	-0.000
841.70	-0.000
841.87	-0.000
842.05	-0.000
842.22	-0.000
842.39	-0.000
842.57	-0.000
842.74	-0.000
842.91	-0.000
843.09	-0.000
843.26	-0.000
843.43	-0.000
843.60	-0.000
843.78	-0.000
843.95	-0.000
844.12	-0.000
844.30	-0.000
844.47	-0.000
844.64	-0.000
844.82	-0.000
844.99	-0.000
845.16	-0.000
845.34	-0.000
845.51	-0.000
845.68	-0.000
845.85	-0.000
846.03	-0.000
846.20	-0.000
846.37	-0.000
846.55	-0.000
846.72	-0.000
846.89	-0.000
847.06	-0.000
847.24	-0.000
847.41	-0.000
847.58	-0.000
847.76	-0.000
847.93	-0.000
848.10	-0.000
848.27	-0.000
848.45	-0.000
848.62	-0.000
848.79	-0.000
848.97	-0.000
849.14	-0.000
849.31	-0.000
849.48	-0.000
849.66	-0.000
849.83	-0.000
850.00	-0.000
850.17	-0.000
850.35	-0.000
850.52	-0.000
850.69	-0.000
850.86	-0.000
851.04	-0.000
851.21	-0.000
851.38	-0.000
851.55	-0.000
851.72	-0.000
851.90	-0.000
852.07	-0.000
852.24	-0.000
852.41	-0.000
852.59	-0.000
852.76	-0.000
852.93	-0.000
853.10	-0.000
853.28	-0.000
853.45	-0.000
853.62	-0.000
853.79	-0.000
853.96	-0.000
854.14	-0.000
854.31	-0.000
854.48	-0.000
854.65	-0.000
854.82	-0.000
855.00	-0.000
855.17	-0.000
855.34	-0.000
855.51	-0.000
855.68	-0.000
855.86	-0.000
856.03	-0.000
856.20	-0.000
856.37	-0.000
856.54	-0.000
856.72	-0.000
856.89	-0.000
857.06	-0.000
857.23	-0.000
857.40	-0.000
857.57	-0.000
857.75	-0.000
857.92	-0.000
858.09	-0.000
858.26	-0.000
858.43	-0.000
858.60	-0.000
858.78	-0.000
858.95	-0.000
859.12	-0.000
859.29	-0.000
859.46	-0.000
859.63	-0.000
859.81	-0.000
859.98	-0.000
860.15	-0.000
860.32	-0.000
860.49	-0.000
860.66	-0.000
860.83	-0.000
861.01	-0.000
861.18	-0.000
861.35	-0.000
861.52	-0.000
861.69	-0.000
861.86	-0.000
862.03	-0.000
862.21	-0.000
862.38	-0.000
862.55	-0.000
862.72	-0.000
862.89	-0.000
863.06	-0.000
863.23	-0.000
863.40	-0.000
863.58	-0.000
863.75	-0.000
863.92	-0.000
864.09	-0.000
864.26	-0.000
864.43	-0.000
864.60	-0.000
864.77	-0.000
864.94	-0.000
865.11	-0.000
865.29	-0.000
865.46	-0.000
865.63	-0.000
865.80	-0.000
865.97	-0.000
866.14	-0.000
866.31	-0.000
866.48	-0.000
866.65	-0.000
866.82	-0.000
866.99	-0.000
867.16	-0.000
867.34	-0.000
867.51	-0.000
867.68	-0.000
867.85	-0.000
868.02	-0.000
868.19	-0.000
868.36	-0.000
868.53	-0.000
868.70	-0.000
868.87	-0.000
869.04	-0.000
869.21	-0.000
869.38	-0.000
869.55	-0.000
869.72	-0.000
869.89	-0.000
870.06	-0.000
870.24	-0.000
870.41	-0.000
870.58	-0.000
870.75	-0.000
870.92	-0.000
871.09	-0.000
871.26	-0.000
871.43	-0.000
871.60	-0.000
871.77	-0.000
871.94	-0.000
872.11	-0.000
872.28	-0.000
872.45	-0.000
872.62	-0.000
872.79	-0.000
872.96	-0.000
873.13	-0.000
873.30	-0.000
873.47	-0.000
873.64	-0.000
873.81	-0.000
873.98	-0.000
874.15	-0.000
874.32	-0.000
874.49	-0.000
874.66	-0.000
874.83	-0.000
875.00	-0.000
875.17	-0.000
875.34	-0.000
875.51	-0.000
875.68	-0.000
875.85	-0.000
876.02	-0.000
876.19	-0.000
876.36	-0.000
876.53	-0.000
876.70	-0.000
876.87	-0.000
877.04	-0.000
877.21	-0.000
877.38	-0.000
877.55	-0.000
877.72	-0.000
877.89	-0.000
878.06	-0.000
878.23	-0.000
878.39	-0.000
878.56	-0.000
878.73	-0.000
878.90	-0.000
879.07	-0.000
879.24	-0.000
879.41	-0.000
879.58	-0.000
879.75	-0.000
879.92	-0.000
880.09	-0.000
880.26	-0.000
880.43	-0.000
880.60	-0.000
880.77	-0.000
880.94	-0.000
881.11	-0.000
881.27	-0.000
881.44	-0.000
881.61	-0.000
881.78	-0.000
881.95	-0.000
882.12	-0.000
882.29	-0.000
882.46	-0.000
882.63	-0.000
882.80	-0.000
882.97	-0.000
883.14	-0.000
883.30	-0.000
883.47	-0.000
883.64	-0.000
883.81	-0.000
883.98	-0.000
884.15	-0.000
884.32	-0.000
884.49	-0.000
884.66	-0.000
884.82	-0.000
884.99	-0.000
885.16	-0.000
885.33	-0.000
885.50	-0.000
885.67	-0.000
885.84	-0.000
886.01	-0.000
886.17	-0.000
886.34	-0.000
886.51	-0.000
886.68	-0.000
886.85	-0.000
887.02	-0.000
887.19	-0.000
887.36	-0.000
887.52	-0.000
887.69	-0.000
887.86	-0.000
888.03	-0.000
888.20	-0.000
888.37	-0.000
888.54	-0.000
888.70	-0.000
888.87	-0.000
889.04	-0.000
889.21	-0.000
889.38	-0.000
889.55	-0.000
889.71	-0.000
889.88	-0.000
890.05	-0.000
890.22	-0.000
890.39	-0.000
>>>>>End Processed Spectral Data<<<<<
