SpectraSuite Data File
++++++++++++++++++++++++++++++++++++
Date: Fri Jun 19 13:56:12 CEST 2015
User: introlabs
Dark Spectrum Present: Yes
Reference Spectrum Present: Yes
Number of Sampled Component Spectra: 1
Spectrometers: USB4H08886
Integration Time (usec): 745692 (USB4H08886)
Spectra Averaged: 5 (USB4H08886)
Boxcar Smoothing: 5 (USB4H08886)
Correct for Electrical Dark: Yes (USB4H08886)
Strobe/Lamp Enabled: No (USB4H08886)
Correct for Detector Non-linearity: Yes (USB4H08886)
Correct for Stray Light: Yes (USB4H08886)
Number of Pixels in Processed Spectrum: 3648
>>>>>Begin Processed Spectral Data<<<<<
178.14	-0.000
178.36	-0.000
178.57	-0.000
178.79	-0.000
179.01	-0.000
179.22	-0.000
179.44	-0.000
179.65	-0.000
179.87	-0.000
180.08	-0.000
180.30	-0.000
180.52	-0.000
180.73	-0.000
180.95	-0.000
181.16	-0.000
181.38	-0.000
181.59	-0.000
181.81	-0.000
182.03	-0.000
182.24	-0.000
182.46	-0.000
182.67	-0.000
182.89	-0.000
183.10	-0.000
183.32	-0.000
183.54	-0.000
183.75	-0.000
183.97	-0.000
184.18	-0.000
184.40	-0.000
184.61	-0.000
184.83	-0.000
185.04	-0.000
185.26	-0.000
185.48	-0.000
185.69	-0.000
185.91	-0.000
186.12	-0.000
186.34	-0.000
186.55	-0.000
186.77	-0.000
186.98	-0.000
187.20	-0.000
187.42	-0.000
187.63	-0.000
187.85	-0.000
188.06	-0.000
188.28	-0.000
188.49	-0.000
188.71	-0.000
188.92	-0.000
189.14	-0.000
189.36	-0.000
189.57	-0.000
189.79	-0.000
190.00	-0.000
190.22	-0.000
190.43	-0.000
190.65	-0.000
190.86	-0.000
191.08	-0.000
191.29	-0.000
191.51	-0.000
191.72	-0.000
191.94	-0.000
192.16	-0.000
192.37	-0.000
192.59	-0.000
192.80	-0.000
193.02	-0.000
193.23	-0.000
193.45	-0.000
193.66	-0.000
193.88	-0.000
194.09	-0.000
194.31	-0.000
194.52	-0.000
194.74	-0.000
194.95	-0.000
195.17	-0.000
195.38	-0.000
195.60	-0.000
195.81	-0.000
196.03	-0.000
196.25	-0.000
196.46	-0.000
196.68	-0.000
196.89	-0.000
197.11	-0.000
197.32	-0.000
197.54	-0.000
197.75	-0.000
197.97	-0.000
198.18	-0.000
198.40	-0.000
198.61	-0.000
198.83	-0.000
199.04	-0.000
199.26	-0.000
199.47	-0.000
199.69	-0.000
199.90	-0.000
200.12	-0.000
200.33	-0.000
200.55	-0.000
200.76	-0.000
200.98	-0.000
201.19	-0.000
201.41	-0.000
201.62	-0.000
201.84	-0.000
202.05	-0.000
202.27	-0.000
202.48	-0.000
202.70	-0.000
202.91	-0.000
203.13	-0.000
203.34	-0.000
203.56	-0.000
203.77	-0.000
203.99	-0.000
204.20	-0.000
204.42	-0.000
204.63	-0.000
204.85	-0.000
205.06	-0.000
205.28	-0.000
205.49	-0.000
205.71	-0.000
205.92	-0.000
206.14	-0.000
206.35	-0.000
206.56	-0.000
206.78	-0.000
206.99	-0.000
207.21	-0.000
207.42	-0.000
207.64	-0.000
207.85	-0.000
208.07	-0.000
208.28	-0.000
208.50	-0.000
208.71	-0.000
208.93	-0.000
209.14	-0.000
209.36	-0.000
209.57	-0.000
209.79	-0.000
210.00	-0.000
210.22	-0.000
210.43	-0.000
210.64	-0.000
210.86	-0.000
211.07	-0.000
211.29	-0.000
211.50	-0.000
211.72	-0.000
211.93	-0.000
212.15	-0.000
212.36	-0.000
212.58	-0.000
212.79	-0.000
213.01	-0.000
213.22	-0.000
213.43	-0.000
213.65	-0.000
213.86	-0.000
214.08	-0.000
214.29	-0.000
214.51	-0.000
214.72	-0.000
214.94	-0.000
215.15	-0.000
215.36	-0.000
215.58	-0.000
215.79	-0.000
216.01	-0.000
216.22	-0.000
216.44	-0.000
216.65	-0.000
216.87	-0.000
217.08	-0.000
217.29	-0.000
217.51	-0.000
217.72	-0.000
217.94	-0.000
218.15	-0.000
218.37	-0.000
218.58	-0.000
218.80	-0.000
219.01	-0.000
219.22	-0.000
219.44	-0.000
219.65	-0.000
219.87	-0.000
220.08	-0.000
220.30	-0.000
220.51	-0.000
220.72	-0.000
220.94	-0.000
221.15	-0.000
221.37	-0.000
221.58	-0.000
221.79	-0.000
222.01	-0.000
222.22	-0.000
222.44	-0.000
222.65	-0.000
222.87	-0.000
223.08	-0.000
223.29	-0.000
223.51	-0.000
223.72	-0.000
223.94	-0.000
224.15	-0.000
224.36	-0.000
224.58	-0.000
224.79	-0.000
225.01	-0.000
225.22	-0.000
225.44	-0.000
225.65	-0.000
225.86	-0.000
226.08	-0.000
226.29	-0.000
226.51	-0.000
226.72	-0.000
226.93	-0.000
227.15	-0.000
227.36	-0.000
227.58	-0.000
227.79	-0.000
228.00	-0.000
228.22	-0.000
228.43	-0.000
228.65	-0.000
228.86	-0.000
229.07	-0.000
229.29	-0.000
229.50	-0.000
229.72	-0.000
229.93	-0.000
230.14	-0.000
230.36	-0.000
230.57	-0.000
230.78	-0.000
231.00	-0.000
231.21	-0.000
231.43	-0.000
231.64	-0.000
231.85	-0.000
232.07	-0.000
232.28	-0.000
232.50	-0.000
232.71	-0.000
232.92	-0.000
233.14	-0.000
233.35	-0.000
233.56	-0.000
233.78	-0.000
233.99	-0.000
234.21	-0.000
234.42	-0.000
234.63	-0.000
234.85	-0.000
235.06	-0.000
235.27	-0.000
235.49	-0.000
235.70	-0.000
235.91	-0.000
236.13	-0.000
236.34	-0.000
236.56	-0.000
236.77	-0.000
236.98	-0.000
237.20	-0.000
237.41	-0.000
237.62	-0.000
237.84	-0.000
238.05	-0.000
238.26	-0.000
238.48	-0.000
238.69	-0.000
238.91	-0.000
239.12	-0.000
239.33	-0.000
239.55	-0.000
239.76	-0.000
239.97	-0.000
240.19	-0.000
240.40	-0.000
240.61	-0.000
240.83	-0.000
241.04	-0.000
241.25	-0.000
241.47	-0.000
241.68	-0.000
241.89	-0.000
242.11	-0.000
242.32	-0.000
242.53	-0.000
242.75	-0.000
242.96	-0.000
243.17	-0.000
243.39	-0.000
243.60	-0.000
243.81	-0.000
244.03	-0.000
244.24	-0.000
244.45	-0.000
244.67	-0.000
244.88	-0.000
245.09	-0.000
245.31	-0.000
245.52	-0.000
245.73	-0.000
245.95	-0.000
246.16	-0.000
246.37	-0.000
246.59	-0.000
246.80	-0.000
247.01	-0.000
247.23	-0.000
247.44	-0.000
247.65	-0.000
247.87	-0.000
248.08	-0.000
248.29	-0.000
248.51	-0.000
248.72	-0.000
248.93	-0.000
249.15	-0.000
249.36	-0.000
249.57	-0.000
249.78	-0.000
250.00	-0.000
250.21	-0.000
250.42	-0.000
250.64	-0.000
250.85	-0.000
251.06	-0.000
251.28	-0.000
251.49	-0.000
251.70	-0.000
251.92	-0.000
252.13	-0.000
252.34	-0.000
252.55	-0.000
252.77	-0.000
252.98	-0.000
253.19	-0.000
253.41	-0.000
253.62	-0.000
253.83	-0.000
254.05	-0.000
254.26	-0.000
254.47	-0.000
254.68	-0.000
254.90	-0.000
255.11	-0.000
255.32	-0.000
255.54	-0.000
255.75	-0.000
255.96	-0.000
256.17	-0.000
256.39	-0.000
256.60	-0.000
256.81	-0.000
257.03	-0.000
257.24	-0.000
257.45	-0.000
257.66	-0.000
257.88	-0.000
258.09	-0.000
258.30	-0.000
258.51	-0.000
258.73	-0.000
258.94	-0.000
259.15	-0.000
259.37	-0.000
259.58	-0.000
259.79	-0.000
260.00	-0.000
260.22	-0.000
260.43	-0.000
260.64	-0.000
260.85	-0.000
261.07	-0.000
261.28	-0.000
261.49	-0.000
261.71	-0.000
261.92	-0.000
262.13	-0.000
262.34	-0.000
262.56	-0.000
262.77	-0.000
262.98	-0.000
263.19	-0.000
263.41	-0.000
263.62	-0.000
263.83	-0.000
264.04	-0.000
264.26	-0.000
264.47	-0.000
264.68	-0.000
264.89	-0.000
265.11	-0.000
265.32	-0.000
265.53	-0.000
265.74	-0.000
265.96	-0.000
266.17	-0.000
266.38	-0.000
266.59	-0.000
266.81	-0.000
267.02	-0.000
267.23	-0.000
267.44	-0.000
267.65	-0.000
267.87	-0.000
268.08	-0.000
268.29	-0.000
268.50	-0.000
268.72	-0.000
268.93	-0.000
269.14	-0.000
269.35	-0.000
269.57	-0.000
269.78	-0.000
269.99	-0.000
270.20	-0.000
270.41	-0.000
270.63	-0.000
270.84	-0.000
271.05	-0.000
271.26	-0.000
271.48	-0.000
271.69	-0.000
271.90	-0.000
272.11	-0.000
272.32	-0.000
272.54	-0.000
272.75	-0.000
272.96	-0.000
273.17	-0.000
273.39	-0.000
273.60	-0.000
273.81	-0.000
274.02	-0.000
274.23	-0.000
274.45	-0.000
274.66	-0.000
274.87	-0.000
275.08	-0.000
275.29	-0.000
275.51	-0.000
275.72	-0.000
275.93	-0.000
276.14	-0.000
276.35	-0.000
276.57	-0.000
276.78	-0.000
276.99	-0.000
277.20	-0.000
277.41	-0.000
277.63	-0.000
277.84	-0.000
278.05	-0.000
278.26	-0.000
278.47	-0.000
278.69	-0.000
278.90	-0.000
279.11	-0.000
279.32	-0.000
279.53	-0.000
279.74	-0.000
279.96	-0.000
280.17	-0.000
280.38	-0.000
280.59	-0.000
280.80	-0.000
281.02	-0.000
281.23	-0.000
281.44	-0.000
281.65	-0.000
281.86	-0.000
282.07	-0.000
282.29	-0.000
282.50	-0.000
282.71	-0.000
282.92	-0.000
283.13	-0.000
283.35	-0.000
283.56	-0.000
283.77	-0.000
283.98	-0.000
284.19	-0.000
284.40	-0.000
284.62	-0.000
284.83	-0.000
285.04	-0.000
285.25	-0.000
285.46	-0.000
285.67	-0.000
285.88	-0.000
286.10	-0.000
286.31	-0.000
286.52	-0.000
286.73	-0.000
286.94	-0.000
287.15	-0.000
287.37	-0.000
287.58	-0.000
287.79	-0.000
288.00	-0.000
288.21	-0.000
288.42	-0.000
288.63	-0.000
288.85	-0.000
289.06	-0.000
289.27	-0.000
289.48	-0.000
289.69	-0.000
289.90	-0.000
290.11	-0.000
290.33	-0.000
290.54	-0.000
290.75	-0.000
290.96	-0.000
291.17	-0.000
291.38	-0.000
291.59	-0.000
291.81	-0.000
292.02	-0.000
292.23	-0.000
292.44	-0.000
292.65	-0.000
292.86	-0.000
293.07	-0.000
293.28	-0.000
293.50	-0.000
293.71	-0.000
293.92	-0.000
294.13	-0.000
294.34	-0.000
294.55	-0.000
294.76	-0.000
294.97	-0.000
295.19	-0.000
295.40	-0.000
295.61	-0.000
295.82	-0.000
296.03	-0.000
296.24	-0.000
296.45	-0.000
296.66	2.429
296.87	2.570
297.09	4.302
297.30	-0.000
297.51	2.225
297.72	2.093
297.93	2.442
298.14	2.270
298.35	2.106
298.56	2.040
298.77	2.488
298.99	2.366
299.20	2.230
299.41	2.139
299.62	2.016
299.83	1.979
300.04	1.842
300.25	1.813
300.46	1.892
300.67	1.839
300.88	1.739
301.10	1.729
301.31	1.854
301.52	1.740
301.73	1.651
301.94	1.652
302.15	1.677
302.36	1.610
302.57	1.523
302.78	1.526
302.99	1.582
303.20	1.601
303.41	1.489
303.63	1.461
303.84	1.473
304.05	1.463
304.26	1.392
304.47	1.395
304.68	1.399
304.89	1.390
305.10	1.341
305.31	1.328
305.52	1.378
305.73	1.369
305.94	1.321
306.15	1.312
306.37	1.341
306.58	1.348
306.79	1.315
307.00	1.341
307.21	1.389
307.42	1.384
307.63	1.338
307.84	1.301
308.05	1.342
308.26	1.342
308.47	1.316
308.68	1.307
308.89	1.304
309.10	1.300
309.31	1.255
309.52	1.244
309.73	1.260
309.95	1.253
310.16	1.222
310.37	1.209
310.58	1.229
310.79	1.225
311.00	1.223
311.21	1.224
311.42	1.227
311.63	1.220
311.84	1.198
312.05	1.196
312.26	1.220
312.47	1.230
312.68	1.205
312.89	1.187
313.10	1.196
313.31	1.165
313.52	1.168
313.73	1.166
313.94	1.169
314.15	1.151
314.36	1.125
314.57	1.116
314.78	1.104
314.99	1.099
315.21	1.085
315.42	1.089
315.63	1.102
315.84	1.077
316.05	1.064
316.26	1.073
316.47	1.093
316.68	1.090
316.89	1.072
317.10	1.094
317.31	1.100
317.52	1.101
317.73	1.078
317.94	1.080
318.15	1.127
318.36	1.127
318.57	1.105
318.78	1.092
318.99	1.129
319.20	1.124
319.41	1.087
319.62	1.087
319.83	1.102
320.04	1.096
320.25	1.080
320.46	1.046
320.67	1.048
320.88	1.045
321.09	1.029
321.30	1.015
321.51	1.031
321.72	1.028
321.93	1.010
322.14	1.002
322.35	1.031
322.56	1.032
322.77	1.017
322.98	1.029
323.19	1.039
323.40	1.045
323.61	1.023
323.82	1.016
324.03	1.022
324.24	1.020
324.45	1.006
324.66	0.986
324.87	0.984
325.08	0.984
325.29	0.962
325.50	0.954
325.71	0.959
325.92	0.966
326.13	0.953
326.34	0.955
326.55	0.963
326.76	0.962
326.97	0.951
327.18	0.945
327.39	0.970
327.60	0.972
327.80	0.972
328.01	0.971
328.22	0.970
328.43	0.974
328.64	0.961
328.85	0.966
329.06	0.967
329.27	0.966
329.48	0.962
329.69	0.942
329.90	0.953
330.11	0.945
330.32	0.938
330.53	0.931
330.74	0.930
330.95	0.928
331.16	0.913
331.37	0.921
331.58	0.922
331.79	0.922
332.00	0.914
332.21	0.909
332.42	0.914
332.63	0.905
332.83	0.901
333.04	0.903
333.25	0.916
333.46	0.915
333.67	0.900
333.88	0.900
334.09	0.911
334.30	0.907
334.51	0.896
334.72	0.893
334.93	0.896
335.14	0.894
335.35	0.888
335.56	0.883
335.77	0.893
335.98	0.893
336.18	0.887
336.39	0.879
336.60	0.884
336.81	0.882
337.02	0.880
337.23	0.885
337.44	0.889
337.65	0.891
337.86	0.878
338.07	0.872
338.28	0.876
338.49	0.873
338.70	0.866
338.91	0.872
339.11	0.880
339.32	0.876
339.53	0.864
339.74	0.861
339.95	0.858
340.16	0.858
340.37	0.850
340.58	0.849
340.79	0.854
341.00	0.853
341.21	0.842
341.41	0.842
341.62	0.843
341.83	0.845
342.04	0.840
342.25	0.851
342.46	0.855
342.67	0.854
342.88	0.846
343.09	0.844
343.30	0.852
343.50	0.855
343.71	0.845
343.92	0.842
344.13	0.847
344.34	0.846
344.55	0.829
344.76	0.829
344.97	0.833
345.18	0.833
345.38	0.831
345.59	0.825
345.80	0.824
346.01	0.821
346.22	0.817
346.43	0.811
346.64	0.819
346.85	0.818
347.06	0.810
347.26	0.810
347.47	0.814
347.68	0.810
347.89	0.806
348.10	0.801
348.31	0.808
348.52	0.807
348.73	0.805
348.93	0.803
349.14	0.805
349.35	0.805
349.56	0.799
349.77	0.795
349.98	0.801
350.19	0.799
350.39	0.794
350.60	0.790
350.81	0.805
351.02	0.804
351.23	0.798
351.44	0.802
351.65	0.805
351.86	0.803
352.06	0.800
352.27	0.800
352.48	0.801
352.69	0.802
352.90	0.796
353.11	0.783
353.31	0.790
353.52	0.787
353.73	0.777
353.94	0.779
354.15	0.784
354.36	0.785
354.57	0.776
354.77	0.779
354.98	0.779
355.19	0.778
355.40	0.777
355.61	0.783
355.82	0.787
356.02	0.787
356.23	0.779
356.44	0.782
356.65	0.785
356.86	0.785
357.07	0.778
357.27	0.782
357.48	0.785
357.69	0.781
357.90	0.765
358.11	0.762
358.32	0.765
358.52	0.768
358.73	0.757
358.94	0.760
359.15	0.765
359.36	0.766
359.56	0.760
359.77	0.757
359.98	0.765
360.19	0.764
360.40	0.762
360.61	0.763
360.81	0.762
361.02	0.762
361.23	0.754
361.44	0.753
361.65	0.753
361.85	0.752
362.06	0.750
362.27	0.751
362.48	0.751
362.69	0.753
362.89	0.747
363.10	0.748
363.31	0.754
363.52	0.757
363.73	0.752
363.93	0.752
364.14	0.755
364.35	0.757
364.56	0.746
364.77	0.749
364.97	0.751
365.18	0.751
365.39	0.746
365.60	0.742
365.81	0.743
366.01	0.742
366.22	0.739
366.43	0.738
366.64	0.740
366.84	0.746
367.05	0.743
367.26	0.742
367.47	0.744
367.68	0.744
367.88	0.741
368.09	0.739
368.30	0.741
368.51	0.741
368.71	0.740
368.92	0.744
369.13	0.742
369.34	0.741
369.55	0.740
369.75	0.740
369.96	0.747
370.17	0.747
370.38	0.743
370.58	0.743
370.79	0.749
371.00	0.747
371.21	0.738
371.41	0.744
371.62	0.747
371.83	0.743
372.04	0.741
372.24	0.733
372.45	0.736
372.66	0.736
372.87	0.733
373.07	0.730
373.28	0.731
373.49	0.734
373.70	0.724
373.90	0.724
374.11	0.732
374.32	0.732
374.53	0.731
374.73	0.731
374.94	0.734
375.15	0.734
375.36	0.730
375.56	0.739
375.77	0.740
375.98	0.741
376.19	0.738
376.39	0.732
376.60	0.736
376.81	0.736
377.02	0.734
377.22	0.733
377.43	0.733
377.64	0.733
377.84	0.723
378.05	0.728
378.26	0.734
378.47	0.733
378.67	0.730
378.88	0.727
379.09	0.727
379.30	0.728
379.50	0.725
379.71	0.727
379.92	0.731
380.12	0.730
380.33	0.721
380.54	0.717
380.75	0.724
380.95	0.723
381.16	0.721
381.37	0.722
381.57	0.723
381.78	0.724
381.99	0.723
382.20	0.722
382.40	0.725
382.61	0.726
382.82	0.722
383.02	0.716
383.23	0.719
383.44	0.719
383.64	0.717
383.85	0.718
384.06	0.722
384.27	0.719
384.47	0.718
384.68	0.718
384.89	0.724
385.09	0.723
385.30	0.723
385.51	0.722
385.71	0.725
385.92	0.725
386.13	0.724
386.33	0.726
386.54	0.727
386.75	0.725
386.95	0.721
387.16	0.716
387.37	0.720
387.58	0.720
387.78	0.716
387.99	0.715
388.20	0.718
388.40	0.714
388.61	0.709
388.82	0.713
389.02	0.716
389.23	0.716
389.44	0.715
389.64	0.715
389.85	0.726
390.06	0.726
390.26	0.726
390.47	0.725
390.68	0.728
390.88	0.726
391.09	0.722
391.30	0.720
391.50	0.719
391.71	0.719
391.92	0.716
392.12	0.707
392.33	0.708
392.53	0.708
392.74	0.708
392.95	0.707
393.15	0.710
393.36	0.711
393.57	0.710
393.77	0.714
393.98	0.716
394.19	0.715
394.39	0.715
394.60	0.717
394.81	0.718
395.01	0.717
395.22	0.715
395.43	0.716
395.63	0.720
395.84	0.721
396.04	0.716
396.25	0.718
396.46	0.720
396.66	0.719
396.87	0.715
397.08	0.712
397.28	0.714
397.49	0.716
397.69	0.712
397.90	0.707
398.11	0.709
398.31	0.710
398.52	0.705
398.73	0.707
398.93	0.705
399.14	0.705
399.34	0.705
399.55	0.706
399.76	0.706
399.96	0.707
400.17	0.705
400.37	0.702
400.58	0.709
400.79	0.711
400.99	0.708
401.20	0.714
401.41	0.716
401.61	0.717
401.82	0.722
402.02	0.721
402.23	0.722
402.44	0.723
402.64	0.723
402.85	0.717
403.05	0.717
403.26	0.715
403.47	0.709
403.67	0.708
403.88	0.709
404.08	0.703
404.29	0.702
404.50	0.701
404.70	0.701
404.91	0.699
405.11	0.695
405.32	0.695
405.52	0.696
405.73	0.695
405.94	0.694
406.14	0.696
406.35	0.698
406.55	0.698
406.76	0.695
406.97	0.696
407.17	0.699
407.38	0.700
407.58	0.698
407.79	0.701
407.99	0.703
408.20	0.703
408.41	0.699
408.61	0.698
408.82	0.699
409.02	0.699
409.23	0.697
409.43	0.697
409.64	0.698
409.84	0.698
410.05	0.694
410.26	0.693
410.46	0.692
410.67	0.691
410.87	0.692
411.08	0.694
411.28	0.695
411.49	0.696
411.69	0.694
411.90	0.696
412.11	0.698
412.31	0.698
412.52	0.696
412.72	0.697
412.93	0.698
413.13	0.697
413.34	0.693
413.54	0.695
413.75	0.696
413.95	0.695
414.16	0.692
414.37	0.694
414.57	0.695
414.78	0.697
414.98	0.695
415.19	0.697
415.39	0.694
415.60	0.696
415.80	0.696
416.01	0.694
416.21	0.696
416.42	0.696
416.62	0.691
416.83	0.691
417.03	0.691
417.24	0.691
417.44	0.689
417.65	0.688
417.86	0.689
418.06	0.687
418.27	0.685
418.47	0.687
418.68	0.688
418.88	0.688
419.09	0.686
419.29	0.686
419.50	0.687
419.70	0.687
419.91	0.686
420.11	0.684
420.32	0.686
420.52	0.685
420.73	0.684
420.93	0.685
421.14	0.686
421.34	0.686
421.55	0.683
421.75	0.683
421.96	0.684
422.16	0.684
422.37	0.683
422.57	0.680
422.78	0.682
422.98	0.679
423.19	0.677
423.39	0.675
423.60	0.679
423.80	0.679
424.01	0.678
424.21	0.680
424.42	0.681
424.62	0.682
424.83	0.681
425.03	0.681
425.23	0.683
425.44	0.683
425.64	0.683
425.85	0.682
426.05	0.684
426.26	0.684
426.46	0.680
426.67	0.679
426.87	0.683
427.08	0.683
427.28	0.680
427.49	0.682
427.69	0.683
427.90	0.682
428.10	0.678
428.31	0.678
428.51	0.680
428.71	0.680
428.92	0.681
429.12	0.678
429.33	0.679
429.53	0.683
429.74	0.687
429.94	0.687
430.15	0.687
430.35	0.687
430.56	0.684
430.76	0.683
430.96	0.684
431.17	0.682
431.37	0.679
431.58	0.677
431.78	0.674
431.99	0.668
432.19	0.670
432.40	0.672
432.60	0.673
432.80	0.675
433.01	0.673
433.21	0.673
433.42	0.675
433.62	0.676
433.83	0.675
434.03	0.678
434.23	0.681
434.44	0.679
434.64	0.677
434.85	0.682
435.05	0.683
435.26	0.684
435.46	0.683
435.66	0.682
435.87	0.682
436.07	0.682
436.28	0.677
436.48	0.674
436.69	0.673
436.89	0.673
437.09	0.667
437.30	0.665
437.50	0.665
437.71	0.677
437.91	0.676
438.11	0.678
438.32	0.683
438.52	0.684
438.73	0.682
438.93	0.682
439.13	0.682
439.34	0.685
439.54	0.683
439.75	0.683
439.95	0.673
440.15	0.677
440.36	0.675
440.56	0.671
440.77	0.672
440.97	0.673
441.17	0.671
441.38	0.672
441.58	0.669
441.79	0.669
441.99	0.668
442.19	0.667
442.40	0.665
442.60	0.665
442.81	0.663
443.01	0.664
443.21	0.664
443.42	0.664
443.62	0.662
443.82	0.662
444.03	0.664
444.23	0.664
444.44	0.663
444.64	0.662
444.84	0.664
445.05	0.663
445.25	0.661
445.45	0.661
445.66	0.663
445.86	0.663
446.06	0.664
446.27	0.663
446.47	0.666
446.68	0.665
446.88	0.664
447.08	0.663
447.29	0.665
447.49	0.665
447.69	0.665
447.90	0.663
448.10	0.667
448.30	0.664
448.51	0.665
448.71	0.663
448.91	0.665
449.12	0.664
449.32	0.666
449.52	0.665
449.73	0.669
449.93	0.668
450.14	0.669
450.34	0.668
450.54	0.671
450.75	0.668
450.95	0.667
451.15	0.666
451.36	0.669
451.56	0.666
451.76	0.665
451.97	0.662
452.17	0.662
452.37	0.661
452.58	0.657
452.78	0.658
452.98	0.660
453.19	0.660
453.39	0.660
453.59	0.659
453.79	0.661
454.00	0.660
454.20	0.659
454.40	0.660
454.61	0.663
454.81	0.663
455.01	0.661
455.22	0.662
455.42	0.664
455.62	0.661
455.83	0.661
456.03	0.664
456.23	0.665
456.44	0.666
456.64	0.664
456.84	0.663
457.04	0.664
457.25	0.663
457.45	0.660
457.65	0.659
457.86	0.661
458.06	0.659
458.26	0.654
458.47	0.653
458.67	0.655
458.87	0.656
459.07	0.654
459.28	0.656
459.48	0.658
459.68	0.659
459.89	0.657
460.09	0.656
460.29	0.658
460.49	0.660
460.70	0.659
460.90	0.658
461.10	0.659
461.31	0.659
461.51	0.655
461.71	0.656
461.91	0.657
462.12	0.657
462.32	0.656
462.52	0.656
462.72	0.659
462.93	0.659
463.13	0.659
463.33	0.659
463.53	0.661
463.74	0.661
463.94	0.658
464.14	0.657
464.35	0.659
464.55	0.660
464.75	0.658
464.95	0.655
465.16	0.657
465.36	0.655
465.56	0.654
465.76	0.653
465.97	0.653
466.17	0.654
466.37	0.652
466.57	0.653
466.78	0.654
466.98	0.654
467.18	0.652
467.38	0.651
467.59	0.653
467.79	0.654
467.99	0.653
468.19	0.654
468.39	0.657
468.60	0.658
468.80	0.656
469.00	0.657
469.20	0.659
469.41	0.659
469.61	0.658
469.81	0.658
470.01	0.658
470.22	0.658
470.42	0.656
470.62	0.654
470.82	0.655
471.02	0.654
471.23	0.652
471.43	0.653
471.63	0.655
471.83	0.655
472.04	0.653
472.24	0.652
472.44	0.657
472.64	0.657
472.84	0.655
473.05	0.655
473.25	0.658
473.45	0.657
473.65	0.655
473.85	0.655
474.06	0.656
474.26	0.656
474.46	0.657
474.66	0.654
474.86	0.655
475.07	0.655
475.27	0.653
475.47	0.650
475.67	0.651
475.87	0.653
476.08	0.649
476.28	0.650
476.48	0.651
476.68	0.650
476.88	0.647
477.09	0.648
477.29	0.650
477.49	0.650
477.69	0.649
477.89	0.650
478.09	0.649
478.30	0.651
478.50	0.648
478.70	0.648
478.90	0.649
479.10	0.652
479.31	0.653
479.51	0.650
479.71	0.651
479.91	0.651
480.11	0.650
480.31	0.651
480.52	0.650
480.72	0.650
480.92	0.648
481.12	0.647
481.32	0.644
481.52	0.642
481.72	0.643
481.93	0.646
482.13	0.646
482.33	0.646
482.53	0.643
482.73	0.644
482.93	0.645
483.14	0.645
483.34	0.644
483.54	0.646
483.74	0.645
483.94	0.643
484.14	0.640
484.34	0.640
484.55	0.640
484.75	0.640
484.95	0.638
485.15	0.638
485.35	0.638
485.55	0.637
485.75	0.635
485.96	0.635
486.16	0.637
486.36	0.636
486.56	0.635
486.76	0.635
486.96	0.636
487.16	0.634
487.36	0.632
487.57	0.632
487.77	0.632
487.97	0.633
488.17	0.631
488.37	0.631
488.57	0.631
488.77	0.631
488.97	0.630
489.18	0.629
489.38	0.633
489.58	0.634
489.78	0.633
489.98	0.633
490.18	0.633
490.38	0.633
490.58	0.632
490.78	0.633
490.98	0.635
491.19	0.635
491.39	0.635
491.59	0.634
491.79	0.637
491.99	0.637
492.19	0.637
492.39	0.640
492.59	0.640
492.79	0.642
492.99	0.642
493.20	0.642
493.40	0.642
493.60	0.643
493.80	0.642
494.00	0.639
494.20	0.640
494.40	0.639
494.60	0.637
494.80	0.642
495.00	0.641
495.20	0.639
495.40	0.638
495.61	0.640
495.81	0.639
496.01	0.643
496.21	0.643
496.41	0.643
496.61	0.644
496.81	0.642
497.01	0.637
497.21	0.636
497.41	0.637
497.61	0.636
497.81	0.634
498.01	0.634
498.21	0.632
498.41	0.630
498.61	0.630
498.82	0.631
499.02	0.634
499.22	0.635
499.42	0.634
499.62	0.635
499.82	0.636
500.02	0.638
500.22	0.636
500.42	0.638
500.62	0.639
500.82	0.639
501.02	0.637
501.22	0.637
501.42	0.637
501.62	0.639
501.82	0.638
502.02	0.638
502.22	0.637
502.42	0.639
502.62	0.636
502.82	0.637
503.02	0.638
503.22	0.637
503.42	0.635
503.63	0.635
503.83	0.633
504.03	0.632
504.23	0.631
504.43	0.632
504.63	0.633
504.83	0.633
505.03	0.631
505.23	0.633
505.43	0.634
505.63	0.635
505.83	0.635
506.03	0.636
506.23	0.639
506.43	0.639
506.63	0.637
506.83	0.636
507.03	0.638
507.23	0.638
507.43	0.636
507.63	0.637
507.83	0.638
508.03	0.638
508.23	0.637
508.43	0.636
508.63	0.637
508.83	0.638
509.03	0.639
509.23	0.638
509.43	0.639
509.63	0.639
509.83	0.638
510.03	0.641
510.23	0.642
510.43	0.643
510.63	0.644
510.83	0.644
511.03	0.645
511.23	0.642
511.43	0.642
511.63	0.643
511.83	0.646
512.03	0.646
512.22	0.642
512.42	0.642
512.62	0.642
512.82	0.642
513.02	0.641
513.22	0.641
513.42	0.643
513.62	0.646
513.82	0.644
514.02	0.644
514.22	0.645
514.42	0.646
514.62	0.645
514.82	0.646
515.02	0.648
515.22	0.651
515.42	0.649
515.62	0.652
515.82	0.651
516.02	0.652
516.22	0.652
516.42	0.653
516.62	0.655
516.82	0.656
517.01	0.654
517.21	0.654
517.41	0.658
517.61	0.658
517.81	0.654
518.01	0.654
518.21	0.653
518.41	0.652
518.61	0.650
518.81	0.651
519.01	0.652
519.21	0.651
519.41	0.650
519.61	0.644
519.81	0.647
520.00	0.647
520.20	0.648
520.40	0.651
520.60	0.652
520.80	0.652
521.00	0.652
521.20	0.653
521.40	0.658
521.60	0.659
521.80	0.658
522.00	0.657
522.20	0.660
522.39	0.659
522.59	0.655
522.79	0.657
522.99	0.659
523.19	0.657
523.39	0.655
523.59	0.653
523.79	0.656
523.99	0.659
524.19	0.659
524.38	0.658
524.58	0.660
524.78	0.660
524.98	0.658
525.18	0.660
525.38	0.661
525.58	0.662
525.78	0.660
525.98	0.658
526.18	0.659
526.37	0.657
526.57	0.658
526.77	0.658
526.97	0.659
527.17	0.660
527.37	0.656
527.57	0.658
527.77	0.659
527.96	0.660
528.16	0.659
528.36	0.659
528.56	0.662
528.76	0.660
528.96	0.659
529.16	0.660
529.36	0.663
529.55	0.663
529.75	0.659
529.95	0.660
530.15	0.661
530.35	0.663
530.55	0.660
530.75	0.660
530.94	0.662
531.14	0.662
531.34	0.660
531.54	0.658
531.74	0.661
531.94	0.665
532.13	0.663
532.33	0.665
532.53	0.664
532.73	0.663
532.93	0.662
533.13	0.663
533.33	0.663
533.52	0.664
533.72	0.668
533.92	0.666
534.12	0.665
534.32	0.665
534.52	0.663
534.71	0.665
534.91	0.668
535.11	0.670
535.31	0.667
535.51	0.669
535.71	0.671
535.90	0.667
536.10	0.669
536.30	0.670
536.50	0.671
536.70	0.671
536.89	0.669
537.09	0.668
537.29	0.669
537.49	0.670
537.69	0.668
537.89	0.668
538.08	0.669
538.28	0.667
538.48	0.666
538.68	0.668
538.88	0.669
539.07	0.669
539.27	0.668
539.47	0.667
539.67	0.668
539.87	0.668
540.06	0.666
540.26	0.667
540.46	0.669
540.66	0.667
540.86	0.664
541.05	0.665
541.25	0.666
541.45	0.666
541.65	0.665
541.84	0.667
542.04	0.667
542.24	0.668
542.44	0.667
542.64	0.668
542.83	0.671
543.03	0.672
543.23	0.669
543.43	0.670
543.62	0.672
543.82	0.671
544.02	0.670
544.22	0.670
544.42	0.674
544.61	0.674
544.81	0.670
545.01	0.669
545.21	0.670
545.40	0.671
545.60	0.669
545.80	0.672
546.00	0.673
546.19	0.672
546.39	0.671
546.59	0.668
546.79	0.670
546.98	0.671
547.18	0.670
547.38	0.671
547.58	0.674
547.77	0.674
547.97	0.671
548.17	0.673
548.37	0.673
548.56	0.674
548.76	0.672
548.96	0.674
549.16	0.677
549.35	0.677
549.55	0.674
549.75	0.675
549.95	0.678
550.14	0.679
550.34	0.676
550.54	0.681
550.73	0.685
550.93	0.687
551.13	0.683
551.33	0.682
551.52	0.682
551.72	0.683
551.92	0.681
552.12	0.682
552.31	0.682
552.51	0.682
552.71	0.677
552.90	0.676
553.10	0.677
553.30	0.677
553.50	0.676
553.69	0.678
553.89	0.678
554.09	0.678
554.28	0.676
554.48	0.677
554.68	0.680
554.87	0.680
555.07	0.677
555.27	0.676
555.47	0.678
555.66	0.679
555.86	0.677
556.06	0.678
556.25	0.680
556.45	0.687
556.65	0.685
556.84	0.688
557.04	0.692
557.24	0.693
557.43	0.693
557.63	0.697
557.83	0.699
558.02	0.699
558.22	0.704
558.42	0.704
558.61	0.697
558.81	0.697
559.01	0.693
559.21	0.693
559.40	0.694
559.60	0.694
559.80	0.690
559.99	0.691
560.19	0.693
560.39	0.686
560.58	0.684
560.78	0.685
560.97	0.689
561.17	0.687
561.37	0.685
561.56	0.685
561.76	0.687
561.96	0.687
562.15	0.684
562.35	0.687
562.55	0.688
562.74	0.687
562.94	0.685
563.14	0.683
563.33	0.684
563.53	0.684
563.73	0.682
563.92	0.683
564.12	0.686
564.31	0.689
564.51	0.687
564.71	0.689
564.90	0.693
565.10	0.693
565.30	0.696
565.49	0.698
565.69	0.699
565.89	0.700
566.08	0.697
566.28	0.698
566.47	0.699
566.67	0.697
566.87	0.694
567.06	0.695
567.26	0.703
567.46	0.698
567.65	0.697
567.85	0.699
568.04	0.701
568.24	0.701
568.44	0.697
568.63	0.696
568.83	0.697
569.02	0.696
569.22	0.691
569.42	0.687
569.61	0.689
569.81	0.687
570.00	0.685
570.20	0.687
570.40	0.688
570.59	0.688
570.79	0.686
570.98	0.684
571.18	0.685
571.38	0.685
571.57	0.682
571.77	0.680
571.96	0.685
572.16	0.681
572.35	0.675
572.55	0.676
572.75	0.674
572.94	0.674
573.14	0.672
573.33	0.672
573.53	0.673
573.73	0.673
573.92	0.670
574.12	0.668
574.31	0.671
574.51	0.672
574.70	0.669
574.90	0.671
575.09	0.673
575.29	0.673
575.49	0.670
575.68	0.671
575.88	0.672
576.07	0.674
576.27	0.671
576.46	0.670
576.66	0.669
576.86	0.668
577.05	0.666
577.25	0.664
577.44	0.666
577.64	0.666
577.83	0.663
578.03	0.664
578.22	0.664
578.42	0.663
578.61	0.661
578.81	0.662
579.00	0.663
579.20	0.662
579.40	0.661
579.59	0.660
579.79	0.661
579.98	0.660
580.18	0.660
580.37	0.660
580.57	0.663
580.76	0.668
580.96	0.666
581.15	0.666
581.35	0.669
581.54	0.668
581.74	0.667
581.93	0.669
582.13	0.670
582.32	0.668
582.52	0.666
582.71	0.665
582.91	0.661
583.10	0.662
583.30	0.660
583.49	0.659
583.69	0.664
583.88	0.665
584.08	0.664
584.27	0.666
584.47	0.669
584.66	0.670
584.86	0.669
585.05	0.671
585.25	0.673
585.44	0.673
585.64	0.671
585.83	0.668
586.03	0.668
586.22	0.666
586.42	0.663
586.61	0.664
586.81	0.667
587.00	0.667
587.20	0.665
587.39	0.665
587.59	0.667
587.78	0.669
587.98	0.669
588.17	0.669
588.37	0.672
588.56	0.674
588.76	0.670
588.95	0.670
589.15	0.673
589.34	0.676
589.54	0.674
589.73	0.675
589.92	0.678
590.12	0.678
590.31	0.676
590.51	0.681
590.70	0.683
590.90	0.683
591.09	0.681
591.29	0.679
591.48	0.680
591.68	0.681
591.87	0.679
592.06	0.678
592.26	0.681
592.45	0.680
592.65	0.674
592.84	0.674
593.04	0.677
593.23	0.679
593.43	0.676
593.62	0.676
593.81	0.676
594.01	0.675
594.20	0.673
594.40	0.672
594.59	0.674
594.79	0.675
594.98	0.674
595.17	0.672
595.37	0.673
595.56	0.675
595.76	0.675
595.95	0.677
596.14	0.680
596.34	0.682
596.53	0.680
596.73	0.681
596.92	0.683
597.12	0.686
597.31	0.685
597.50	0.684
597.70	0.687
597.89	0.686
598.09	0.682
598.28	0.683
598.47	0.685
598.67	0.684
598.86	0.681
599.06	0.683
599.25	0.683
599.44	0.681
599.64	0.678
599.83	0.676
600.03	0.679
600.22	0.680
600.41	0.680
600.61	0.677
600.80	0.679
601.00	0.680
601.19	0.675
601.38	0.674
601.58	0.676
601.77	0.678
601.96	0.679
602.16	0.680
602.35	0.689
602.55	0.686
602.74	0.687
602.93	0.689
603.13	0.695
603.32	0.697
603.51	0.696
603.71	0.699
603.90	0.701
604.09	0.701
604.29	0.697
604.48	0.692
604.68	0.693
604.87	0.692
605.06	0.688
605.26	0.684
605.45	0.685
605.64	0.684
605.84	0.679
606.03	0.678
606.22	0.677
606.42	0.677
606.61	0.673
606.80	0.673
607.00	0.675
607.19	0.675
607.38	0.673
607.58	0.675
607.77	0.678
607.96	0.678
608.16	0.676
608.35	0.681
608.54	0.684
608.74	0.688
608.93	0.692
609.12	0.696
609.32	0.698
609.51	0.701
609.70	0.700
609.90	0.702
610.09	0.708
610.28	0.713
610.48	0.706
610.67	0.707
610.86	0.709
611.06	0.703
611.25	0.701
611.44	0.701
611.64	0.702
611.83	0.704
612.02	0.700
612.21	0.699
612.41	0.697
612.60	0.696
612.79	0.692
612.99	0.692
613.18	0.694
613.37	0.692
613.57	0.689
613.76	0.691
613.95	0.688
614.14	0.687
614.34	0.684
614.53	0.685
614.72	0.689
614.92	0.689
615.11	0.686
615.30	0.682
615.49	0.684
615.69	0.687
615.88	0.684
616.07	0.685
616.26	0.688
616.46	0.690
616.65	0.686
616.84	0.685
617.04	0.686
617.23	0.689
617.42	0.691
617.61	0.694
617.81	0.695
618.00	0.697
618.19	0.695
618.38	0.699
618.58	0.702
618.77	0.704
618.96	0.703
619.15	0.705
619.35	0.707
619.54	0.707
619.73	0.702
619.92	0.704
620.12	0.709
620.31	0.709
620.50	0.703
620.69	0.703
620.89	0.707
621.08	0.707
621.27	0.707
621.46	0.705
621.66	0.709
621.85	0.709
622.04	0.705
622.23	0.705
622.43	0.706
622.62	0.707
622.81	0.706
623.00	0.706
623.19	0.710
623.39	0.709
623.58	0.706
623.77	0.706
623.96	0.709
624.16	0.708
624.35	0.704
624.54	0.706
624.73	0.710
624.92	0.708
625.12	0.705
625.31	0.706
625.50	0.709
625.69	0.710
625.88	0.706
626.08	0.705
626.27	0.707
626.46	0.707
626.65	0.704
626.84	0.704
627.04	0.709
627.23	0.709
627.42	0.704
627.61	0.707
627.80	0.710
628.00	0.710
628.19	0.708
628.38	0.711
628.57	0.714
628.76	0.714
628.96	0.711
629.15	0.711
629.34	0.715
629.53	0.715
629.72	0.709
629.91	0.709
630.11	0.714
630.30	0.715
630.49	0.718
630.68	0.719
630.87	0.723
631.06	0.725
631.26	0.720
631.45	0.722
631.64	0.730
631.83	0.734
632.02	0.730
632.21	0.729
632.41	0.737
632.60	0.731
632.79	0.729
632.98	0.729
633.17	0.731
633.36	0.733
633.55	0.729
633.75	0.724
633.94	0.726
634.13	0.726
634.32	0.724
634.51	0.718
634.70	0.720
634.89	0.720
635.09	0.716
635.28	0.717
635.47	0.718
635.66	0.721
635.85	0.717
636.04	0.718
636.23	0.723
636.43	0.724
636.62	0.723
636.81	0.721
637.00	0.723
637.19	0.728
637.38	0.723
637.57	0.722
637.76	0.723
637.95	0.724
638.15	0.722
638.34	0.718
638.53	0.721
638.72	0.723
638.91	0.721
639.10	0.719
639.29	0.720
639.48	0.721
639.67	0.721
639.87	0.721
640.06	0.726
640.25	0.725
640.44	0.726
640.63	0.726
640.82	0.729
641.01	0.729
641.20	0.728
641.39	0.729
641.58	0.731
641.78	0.731
641.97	0.726
642.16	0.740
642.35	0.741
642.54	0.740
642.73	0.733
642.92	0.731
643.11	0.735
643.30	0.734
643.49	0.728
643.68	0.731
643.87	0.733
644.06	0.734
644.25	0.714
644.45	0.717
644.64	0.718
644.83	0.720
645.02	0.716
645.21	0.716
645.40	0.718
645.59	0.718
645.78	0.711
645.97	0.713
646.16	0.714
646.35	0.713
646.54	0.710
646.73	0.712
646.92	0.714
647.11	0.713
647.30	0.708
647.49	0.710
647.68	0.709
647.88	0.707
648.07	0.699
648.26	0.703
648.45	0.706
648.64	0.701
648.83	0.698
649.02	0.701
649.21	0.712
649.40	0.711
649.59	0.706
649.78	0.707
649.97	0.722
650.16	0.722
650.35	0.716
650.54	0.718
650.73	0.728
650.92	0.725
651.11	0.718
651.30	0.715
651.49	0.720
651.68	0.720
651.87	0.717
652.06	0.707
652.25	0.710
652.44	0.713
652.63	0.709
652.82	0.708
653.01	0.708
653.20	0.705
653.39	0.692
653.58	0.690
653.77	0.690
653.96	0.685
654.15	0.677
654.34	0.674
654.53	0.669
654.72	0.663
654.91	0.653
655.10	0.650
655.29	0.648
655.48	0.646
655.67	0.640
655.86	0.637
656.05	0.636
656.24	0.635
656.43	0.630
656.62	0.629
656.81	0.630
657.00	0.627
657.19	0.624
657.38	0.625
657.57	0.624
657.76	0.627
657.95	0.625
658.14	0.629
658.33	0.632
658.51	0.637
658.70	0.638
658.89	0.640
659.08	0.650
659.27	0.657
659.46	0.657
659.65	0.664
659.84	0.669
660.03	0.672
660.22	0.673
660.41	0.678
660.60	0.678
660.79	0.680
660.98	0.686
661.17	0.685
661.36	0.685
661.55	0.686
661.74	0.682
661.92	0.685
662.11	0.687
662.30	0.685
662.49	0.678
662.68	0.677
662.87	0.681
663.06	0.675
663.25	0.675
663.44	0.675
663.63	0.676
663.82	0.675
664.01	0.669
664.20	0.668
664.38	0.671
664.57	0.671
664.76	0.670
664.95	0.671
665.14	0.676
665.33	0.670
665.52	0.677
665.71	0.681
665.90	0.680
666.09	0.681
666.28	0.679
666.46	0.678
666.65	0.679
666.84	0.677
667.03	0.670
667.22	0.667
667.41	0.672
667.60	0.661
667.79	0.654
667.98	0.656
668.16	0.658
668.35	0.658
668.54	0.654
668.73	0.654
668.92	0.655
669.11	0.655
669.30	0.648
669.49	0.645
669.67	0.647
669.86	0.648
670.05	0.645
670.24	0.642
670.43	0.640
670.62	0.639
670.81	0.634
671.00	0.635
671.18	0.635
671.37	0.634
671.56	0.632
671.75	0.631
671.94	0.628
672.13	0.626
672.32	0.622
672.50	0.621
672.69	0.622
672.88	0.622
673.07	0.618
673.26	0.620
673.45	0.622
673.63	0.622
673.82	0.619
674.01	0.621
674.20	0.620
674.39	0.619
674.58	0.619
674.76	0.618
674.95	0.617
675.14	0.616
675.33	0.612
675.52	0.610
675.71	0.610
675.89	0.609
676.08	0.605
676.27	0.605
676.46	0.606
676.65	0.606
676.84	0.605
677.02	0.606
677.21	0.608
677.40	0.607
677.59	0.605
677.78	0.606
677.96	0.608
678.15	0.607
678.34	0.605
678.53	0.605
678.72	0.606
678.90	0.602
679.09	0.599
679.28	0.595
679.47	0.595
679.66	0.594
679.84	0.591
680.03	0.588
680.22	0.588
680.41	0.590
680.60	0.586
680.78	0.585
680.97	0.587
681.16	0.587
681.35	0.586
681.53	0.585
681.72	0.586
681.91	0.588
682.10	0.586
682.29	0.589
682.47	0.587
682.66	0.587
682.85	0.585
683.04	0.583
683.22	0.584
683.41	0.585
683.60	0.584
683.79	0.585
683.97	0.584
684.16	0.583
684.35	0.579
684.54	0.580
684.72	0.580
684.91	0.581
685.10	0.579
685.29	0.580
685.47	0.577
685.66	0.576
685.85	0.572
686.04	0.572
686.22	0.575
686.41	0.577
686.60	0.574
686.79	0.577
686.97	0.578
687.16	0.580
687.35	0.577
687.54	0.581
687.72	0.584
687.91	0.584
688.10	0.586
688.29	0.585
688.47	0.584
688.66	0.583
688.85	0.579
689.03	0.577
689.22	0.582
689.41	0.582
689.60	0.577
689.78	0.574
689.97	0.575
690.16	0.572
690.34	0.568
690.53	0.567
690.72	0.568
690.91	0.566
691.09	0.564
691.28	0.558
691.47	0.557
691.65	0.556
691.84	0.553
692.03	0.552
692.21	0.551
692.40	0.551
692.59	0.549
692.77	0.547
692.96	0.548
693.15	0.549
693.34	0.546
693.52	0.546
693.71	0.548
693.90	0.548
694.08	0.549
694.27	0.550
694.46	0.559
694.64	0.559
694.83	0.559
695.02	0.558
695.20	0.558
695.39	0.557
695.58	0.557
695.76	0.557
695.95	0.557
696.14	0.557
696.32	0.554
696.51	0.545
696.70	0.545
696.88	0.546
697.07	0.545
697.26	0.547
697.44	0.548
697.63	0.547
697.81	0.545
698.00	0.544
698.19	0.544
698.37	0.544
698.56	0.543
698.75	0.543
698.93	0.542
699.12	0.541
699.31	0.540
699.49	0.539
699.68	0.541
699.87	0.543
700.05	0.543
700.24	0.542
700.42	0.544
700.61	0.543
700.80	0.541
700.98	0.542
701.17	0.543
701.36	0.543
701.54	0.541
701.73	0.542
701.91	0.540
702.10	0.539
702.29	0.537
702.47	0.536
702.66	0.538
702.84	0.539
703.03	0.537
703.22	0.539
703.40	0.539
703.59	0.541
703.77	0.541
703.96	0.541
704.15	0.542
704.33	0.541
704.52	0.541
704.70	0.540
704.89	0.540
705.08	0.538
705.26	0.534
705.45	0.533
705.63	0.533
705.82	0.530
706.00	0.528
706.19	0.528
706.38	0.528
706.56	0.527
706.75	0.525
706.93	0.524
707.12	0.526
707.30	0.526
707.49	0.523
707.68	0.521
707.86	0.521
708.05	0.520
708.23	0.517
708.42	0.518
708.60	0.521
708.79	0.520
708.98	0.519
709.16	0.518
709.35	0.520
709.53	0.525
709.72	0.524
709.90	0.526
710.09	0.528
710.27	0.530
710.46	0.534
710.64	0.532
710.83	0.534
711.02	0.535
711.20	0.534
711.39	0.532
711.57	0.529
711.76	0.530
711.94	0.528
712.13	0.529
712.31	0.529
712.50	0.525
712.68	0.521
712.87	0.523
713.05	0.523
713.24	0.524
713.42	0.524
713.61	0.525
713.79	0.526
713.98	0.525
714.16	0.526
714.35	0.526
714.54	0.527
714.72	0.528
714.91	0.525
715.09	0.532
715.28	0.535
715.46	0.535
715.65	0.532
715.83	0.532
716.02	0.535
716.20	0.532
716.39	0.531
716.57	0.532
716.76	0.535
716.94	0.535
717.12	0.528
717.31	0.529
717.49	0.533
717.68	0.534
717.86	0.534
718.05	0.535
718.23	0.538
718.42	0.540
718.60	0.540
718.79	0.549
718.97	0.552
719.16	0.552
719.34	0.549
719.53	0.549
719.71	0.549
719.90	0.551
720.08	0.548
720.27	0.548
720.45	0.548
720.63	0.547
720.82	0.540
721.00	0.542
721.19	0.545
721.37	0.545
721.56	0.544
721.74	0.548
721.93	0.557
722.11	0.564
722.30	0.563
722.48	0.567
722.66	0.568
722.85	0.567
723.03	0.568
723.22	0.567
723.40	0.570
723.59	0.571
723.77	0.574
723.95	0.567
724.14	0.568
724.32	0.570
724.51	0.570
724.69	0.572
724.88	0.574
725.06	0.573
725.24	0.573
725.43	0.574
725.61	0.576
725.80	0.569
725.98	0.568
726.16	0.565
726.35	0.572
726.53	0.571
726.72	0.569
726.90	0.579
727.09	0.579
727.27	0.585
727.45	0.582
727.64	0.593
727.82	0.602
728.01	0.607
728.19	0.603
728.37	0.609
728.56	0.612
728.74	0.618
728.92	0.606
729.11	0.611
729.29	0.609
729.48	0.611
729.66	0.601
729.84	0.602
730.03	0.604
730.21	0.607
730.40	0.596
730.58	0.598
730.76	0.598
730.95	0.601
731.13	0.600
731.31	0.613
731.50	0.623
731.68	0.628
731.86	0.622
732.05	0.637
732.23	0.640
732.42	0.644
732.60	0.649
732.78	0.655
732.97	0.675
733.15	0.682
733.33	0.671
733.52	0.679
733.70	0.688
733.88	0.700
734.07	0.684
734.25	0.713
734.43	0.721
734.62	0.722
734.80	0.716
734.98	0.704
735.17	0.711
735.35	0.720
735.53	0.707
735.72	0.713
735.90	0.736
736.08	0.756
736.27	0.731
736.45	0.741
736.63	0.757
736.82	0.772
737.00	0.774
737.18	0.789
737.37	0.822
737.55	0.847
737.73	0.840
737.92	0.845
738.10	0.846
738.28	0.870
738.46	0.855
738.65	0.865
738.83	0.887
739.01	0.950
739.20	0.938
739.38	0.916
739.56	0.910
739.75	0.914
739.93	0.874
740.11	0.902
740.29	0.905
740.48	0.914
740.66	0.893
740.84	0.888
741.03	0.849
741.21	0.860
741.39	0.842
741.57	0.858
741.76	0.878
741.94	0.887
742.12	0.844
742.31	0.847
742.49	0.874
742.67	0.900
742.85	0.917
743.04	0.924
743.22	0.934
743.40	0.995
743.58	0.968
743.77	0.992
743.95	1.036
744.13	1.101
744.31	1.072
744.50	1.059
744.68	1.065
744.86	1.029
745.04	1.037
745.23	1.122
745.41	1.102
745.59	1.112
745.77	1.069
745.96	1.048
746.14	1.058
746.32	1.063
746.50	1.052
746.69	1.026
746.87	1.040
747.05	1.018
747.23	0.934
747.42	0.919
747.60	0.953
747.78	0.954
747.96	0.992
748.14	0.941
748.33	0.977
748.51	0.971
748.69	0.964
748.87	0.998
749.06	1.003
749.24	0.999
749.42	0.976
749.60	0.953
749.78	0.967
749.97	0.913
750.15	0.905
750.33	0.903
750.51	0.934
750.69	0.935
750.88	0.938
751.06	0.950
751.24	0.986
751.42	0.978
751.60	0.962
751.79	1.047
751.97	1.100
752.15	1.101
752.33	1.062
752.51	1.147
752.69	1.169
752.88	1.125
753.06	1.180
753.24	1.139
753.42	1.184
753.60	1.420
753.78	1.198
753.97	1.233
754.15	1.253
754.33	1.283
754.51	1.113
754.69	1.096
754.87	1.134
755.06	1.046
755.24	1.045
755.42	1.058
755.60	0.947
755.78	0.965
755.96	0.899
756.15	0.901
756.33	0.907
756.51	0.930
756.69	0.913
756.87	0.879
757.05	0.900
757.23	0.883
757.42	0.844
757.60	0.844
757.78	0.829
757.96	0.828
758.14	0.808
758.32	0.795
758.50	0.809
758.69	0.810
758.87	0.800
759.05	0.806
759.23	0.815
759.41	0.817
759.59	0.805
759.77	0.832
759.95	0.865
760.13	0.920
760.32	0.919
760.50	0.911
760.68	0.939
760.86	0.940
761.04	0.908
761.22	0.916
761.40	0.972
761.58	0.976
761.76	0.940
761.95	0.917
762.13	0.873
762.31	0.867
762.49	0.834
762.67	0.853
762.85	0.864
763.03	0.858
763.21	0.836
763.39	0.813
763.57	0.817
763.75	0.809
763.94	0.794
764.12	0.791
764.30	0.820
764.48	0.822
764.66	0.782
764.84	0.781
765.02	0.821
765.20	0.828
765.38	0.808
765.56	0.815
765.74	0.861
765.92	0.860
766.10	0.869
766.28	0.862
766.46	0.897
766.65	0.900
766.83	0.884
767.01	0.868
767.19	0.880
767.37	0.879
767.55	0.861
767.73	0.839
767.91	0.843
768.09	0.831
768.27	0.816
768.45	0.804
768.63	0.807
768.81	0.811
768.99	0.785
769.17	0.806
769.35	0.822
769.53	0.821
769.71	0.799
769.89	0.812
770.07	0.820
770.25	0.801
770.43	0.775
770.61	0.802
770.79	0.809
770.97	0.817
771.15	0.786
771.33	0.791
771.51	0.792
771.69	0.803
771.87	0.805
772.05	0.808
772.24	0.821
772.42	0.830
772.60	0.803
772.78	0.870
772.96	0.899
773.14	0.890
773.32	0.865
773.49	0.877
773.67	0.874
773.85	0.853
774.03	0.840
774.21	0.873
774.39	0.890
774.57	0.918
774.75	0.835
774.93	0.833
775.11	0.861
775.29	0.866
775.47	0.863
775.65	0.879
775.83	0.904
776.01	0.929
776.19	0.871
776.37	0.875
776.55	0.875
776.73	0.869
776.91	0.864
777.09	0.846
777.27	0.845
777.45	0.836
777.63	0.811
777.81	0.805
777.99	0.792
778.17	0.795
778.35	0.769
778.53	0.758
778.71	0.766
778.89	0.749
779.07	0.738
779.24	0.745
779.42	0.748
779.60	0.767
779.78	0.760
779.96	0.768
780.14	0.779
780.32	0.799
780.50	0.780
780.68	0.778
780.86	0.771
781.04	0.788
781.22	0.793
781.40	0.803
781.58	0.794
781.75	0.785
781.93	0.764
782.11	0.763
782.29	0.749
782.47	0.747
782.65	0.733
782.83	0.765
783.01	0.759
783.19	0.751
783.37	0.733
783.55	0.735
783.72	0.756
783.90	0.766
784.08	0.756
784.26	0.769
784.44	0.791
784.62	0.796
784.80	0.758
784.98	0.765
785.16	0.770
785.33	0.784
785.51	0.766
785.69	0.751
785.87	0.749
786.05	0.760
786.23	0.754
786.41	0.752
786.59	0.758
786.77	0.755
786.94	0.740
787.12	0.745
787.30	0.748
787.48	0.747
787.66	0.733
787.84	0.736
788.02	0.727
788.19	0.724
788.37	0.708
788.55	0.709
788.73	0.710
788.91	0.706
789.09	0.686
789.27	0.676
789.44	0.689
789.62	0.697
789.80	0.704
789.98	0.731
790.16	0.717
790.34	0.713
790.51	0.699
790.69	0.722
790.87	0.729
791.05	0.727
791.23	0.721
791.41	0.721
791.58	0.728
791.76	0.705
791.94	0.672
792.12	0.681
792.30	0.685
792.48	0.683
792.65	0.675
792.83	0.682
793.01	0.688
793.19	0.684
793.37	0.667
793.54	0.663
793.72	0.676
793.90	0.676
794.08	0.663
794.26	0.663
794.43	0.676
794.61	0.659
794.79	0.648
794.97	0.648
795.15	0.656
795.32	0.661
795.50	0.650
795.68	0.644
795.86	0.648
796.04	0.651
796.21	0.646
796.39	0.639
796.57	0.653
796.75	0.662
796.92	0.660
797.10	0.664
797.28	0.668
797.46	0.672
797.64	0.673
797.81	0.682
797.99	0.686
798.17	0.690
798.35	0.687
798.52	0.689
798.70	0.684
798.88	0.693
799.06	0.693
799.23	0.695
799.41	0.705
799.59	0.698
799.77	0.684
799.94	0.695
800.12	0.706
800.30	0.724
800.48	0.723
800.65	0.724
800.83	0.716
801.01	0.708
801.19	0.704
801.36	0.699
801.54	0.704
801.72	0.715
801.90	0.698
802.07	0.692
802.25	0.676
802.43	0.660
802.60	0.655
802.78	0.661
802.96	0.667
803.14	0.662
803.31	0.660
803.49	0.658
803.67	0.655
803.84	0.659
804.02	0.649
804.20	0.653
804.38	0.659
804.55	0.658
804.73	0.643
804.91	0.643
805.08	0.656
805.26	0.652
805.44	0.722
805.61	0.725
805.79	0.727
805.97	0.725
806.15	0.717
806.32	0.711
806.50	0.717
806.68	0.714
806.85	0.705
807.03	0.696
807.21	0.715
807.38	0.641
807.56	0.629
807.74	0.638
807.91	0.646
808.09	0.647
808.27	0.666
808.44	0.691
808.62	0.703
808.80	0.704
808.97	0.699
809.15	0.694
809.33	0.714
809.50	0.721
809.68	0.706
809.86	0.714
810.03	0.752
810.21	0.731
810.39	0.714
810.56	0.723
810.74	0.750
810.91	0.828
811.09	0.814
811.27	0.839
811.44	0.850
811.62	0.854
811.80	0.833
811.97	0.800
812.15	0.801
812.33	0.794
812.50	0.775
812.68	0.762
812.85	0.700
813.03	0.705
813.21	0.668
813.38	0.661
813.56	0.664
813.74	0.676
813.91	0.680
814.09	0.710
814.26	0.704
814.44	0.709
814.62	0.699
814.79	0.704
814.97	0.707
815.14	0.713
815.32	0.716
815.50	0.735
815.67	0.739
815.85	0.731
816.02	0.717
816.20	0.727
816.38	0.745
816.55	0.751
816.73	0.750
816.90	0.765
817.08	0.799
817.26	0.807
817.43	0.781
817.61	0.808
817.78	0.830
817.96	0.810
818.13	0.794
818.31	0.792
818.49	0.805
818.66	0.795
818.84	0.778
819.01	0.754
819.19	0.763
819.36	0.768
819.54	0.731
819.71	0.777
819.89	0.794
820.07	0.810
820.24	0.806
820.42	0.807
820.59	0.828
820.77	0.851
820.94	0.840
821.12	0.857
821.29	0.877
821.47	0.882
821.64	0.812
821.82	0.827
822.00	0.826
822.17	0.820
822.35	0.813
822.52	0.818
822.70	0.810
822.87	0.826
823.05	0.805
823.22	0.820
823.40	0.856
823.57	0.881
823.75	0.857
823.92	0.888
824.10	0.913
824.27	0.963
824.45	0.949
824.62	1.025
824.80	1.050
824.97	1.068
825.15	1.048
825.32	1.067
825.50	1.075
825.67	1.098
825.85	1.067
826.02	1.100
826.20	1.139
826.37	1.354
826.55	1.228
826.72	1.595
826.90	1.864
827.07	2.200
827.25	1.914
827.42	-0.000
827.60	-0.000
827.77	-0.000
827.95	-0.000
828.12	-0.000
828.30	-0.000
828.47	-0.000
828.65	1.896
828.82	2.337
829.00	-0.000
829.17	-0.000
829.34	-0.000
829.52	-0.000
829.69	-0.000
829.87	-0.000
830.04	-0.000
830.22	-0.000
830.39	-0.000
830.57	-0.000
830.74	-0.000
830.92	-0.000
831.09	-0.000
831.26	-0.000
831.44	-0.000
831.61	-0.000
831.79	-0.000
831.96	-0.000
832.14	-0.000
832.31	-0.000
832.49	-0.000
832.66	-0.000
832.83	-0.000
833.01	-0.000
833.18	-0.000
833.36	-0.000
833.53	-0.000
833.70	-0.000
833.88	-0.000
834.05	-0.000
834.23	-0.000
834.40	-0.000
834.58	-0.000
834.75	-0.000
834.92	-0.000
835.10	-0.000
835.27	-0.000
835.45	-0.000
835.62	-0.000
835.79	-0.000
835.97	-0.000
836.14	-0.000
836.32	-0.000
836.49	-0.000
836.66	-0.000
836.84	-0.000
837.01	-0.000
837.18	-0.000
837.36	-0.000
837.53	-0.000
837.71	-0.000
837.88	-0.000
838.05	-0.000
838.23	-0.000
838.40	-0.000
838.58	-0.000
838.75	-0.000
838.92	-0.000
839.10	-0.000
839.27	-0.000
839.44	-0.000
839.62	-0.000
839.79	-0.000
839.96	-0.000
840.14	-0.000
840.31	-0.000
840.48	-0.000
840.66	-0.000
840.83	-0.000
841.01	-0.000
841.18	-0.000
841.35	-0.000
841.53	-0.000
841.70	-0.000
841.87	-0.000
842.05	-0.000
842.22	-0.000
842.39	-0.000
842.57	-0.000
842.74	-0.000
842.91	-0.000
843.09	-0.000
843.26	-0.000
843.43	-0.000
843.60	-0.000
843.78	-0.000
843.95	-0.000
844.12	-0.000
844.30	-0.000
844.47	-0.000
844.64	-0.000
844.82	-0.000
844.99	-0.000
845.16	-0.000
845.34	-0.000
845.51	-0.000
845.68	-0.000
845.85	-0.000
846.03	-0.000
846.20	-0.000
846.37	-0.000
846.55	-0.000
846.72	-0.000
846.89	-0.000
847.06	-0.000
847.24	-0.000
847.41	-0.000
847.58	-0.000
847.76	-0.000
847.93	-0.000
848.10	-0.000
848.27	-0.000
848.45	-0.000
848.62	-0.000
848.79	-0.000
848.97	-0.000
849.14	-0.000
849.31	-0.000
849.48	-0.000
849.66	-0.000
849.83	-0.000
850.00	-0.000
850.17	-0.000
850.35	-0.000
850.52	-0.000
850.69	-0.000
850.86	-0.000
851.04	-0.000
851.21	-0.000
851.38	-0.000
851.55	-0.000
851.72	-0.000
851.90	-0.000
852.07	-0.000
852.24	-0.000
852.41	-0.000
852.59	-0.000
852.76	-0.000
852.93	-0.000
853.10	-0.000
853.28	-0.000
853.45	-0.000
853.62	-0.000
853.79	-0.000
853.96	-0.000
854.14	-0.000
854.31	-0.000
854.48	-0.000
854.65	-0.000
854.82	-0.000
855.00	-0.000
855.17	-0.000
855.34	-0.000
855.51	-0.000
855.68	-0.000
855.86	-0.000
856.03	-0.000
856.20	-0.000
856.37	-0.000
856.54	-0.000
856.72	-0.000
856.89	-0.000
857.06	-0.000
857.23	-0.000
857.40	-0.000
857.57	-0.000
857.75	-0.000
857.92	-0.000
858.09	-0.000
858.26	-0.000
858.43	-0.000
858.60	-0.000
858.78	-0.000
858.95	-0.000
859.12	-0.000
859.29	-0.000
859.46	-0.000
859.63	-0.000
859.81	-0.000
859.98	-0.000
860.15	-0.000
860.32	-0.000
860.49	-0.000
860.66	-0.000
860.83	-0.000
861.01	-0.000
861.18	-0.000
861.35	-0.000
861.52	-0.000
861.69	-0.000
861.86	-0.000
862.03	-0.000
862.21	-0.000
862.38	-0.000
862.55	-0.000
862.72	-0.000
862.89	-0.000
863.06	-0.000
863.23	-0.000
863.40	-0.000
863.58	-0.000
863.75	-0.000
863.92	-0.000
864.09	-0.000
864.26	-0.000
864.43	-0.000
864.60	-0.000
864.77	-0.000
864.94	-0.000
865.11	-0.000
865.29	-0.000
865.46	-0.000
865.63	-0.000
865.80	-0.000
865.97	-0.000
866.14	-0.000
866.31	-0.000
866.48	-0.000
866.65	-0.000
866.82	-0.000
866.99	-0.000
867.16	-0.000
867.34	-0.000
867.51	-0.000
867.68	-0.000
867.85	-0.000
868.02	-0.000
868.19	-0.000
868.36	-0.000
868.53	-0.000
868.70	-0.000
868.87	-0.000
869.04	-0.000
869.21	-0.000
869.38	-0.000
869.55	-0.000
869.72	-0.000
869.89	-0.000
870.06	-0.000
870.24	-0.000
870.41	-0.000
870.58	-0.000
870.75	-0.000
870.92	-0.000
871.09	-0.000
871.26	-0.000
871.43	-0.000
871.60	-0.000
871.77	-0.000
871.94	-0.000
872.11	-0.000
872.28	-0.000
872.45	-0.000
872.62	-0.000
872.79	-0.000
872.96	-0.000
873.13	-0.000
873.30	-0.000
873.47	-0.000
873.64	-0.000
873.81	-0.000
873.98	-0.000
874.15	-0.000
874.32	-0.000
874.49	-0.000
874.66	-0.000
874.83	-0.000
875.00	-0.000
875.17	-0.000
875.34	-0.000
875.51	-0.000
875.68	-0.000
875.85	-0.000
876.02	-0.000
876.19	-0.000
876.36	-0.000
876.53	-0.000
876.70	-0.000
876.87	-0.000
877.04	-0.000
877.21	-0.000
877.38	-0.000
877.55	-0.000
877.72	-0.000
877.89	-0.000
878.06	-0.000
878.23	-0.000
878.39	-0.000
878.56	-0.000
878.73	-0.000
878.90	-0.000
879.07	-0.000
879.24	-0.000
879.41	-0.000
879.58	-0.000
879.75	-0.000
879.92	-0.000
880.09	-0.000
880.26	-0.000
880.43	-0.000
880.60	-0.000
880.77	-0.000
880.94	-0.000
881.11	-0.000
881.27	-0.000
881.44	-0.000
881.61	-0.000
881.78	-0.000
881.95	-0.000
882.12	-0.000
882.29	-0.000
882.46	-0.000
882.63	-0.000
882.80	-0.000
882.97	-0.000
883.14	-0.000
883.30	-0.000
883.47	-0.000
883.64	-0.000
883.81	-0.000
883.98	-0.000
884.15	-0.000
884.32	-0.000
884.49	-0.000
884.66	-0.000
884.82	-0.000
884.99	-0.000
885.16	-0.000
885.33	-0.000
885.50	-0.000
885.67	-0.000
885.84	-0.000
886.01	-0.000
886.17	-0.000
886.34	-0.000
886.51	-0.000
886.68	-0.000
886.85	-0.000
887.02	-0.000
887.19	-0.000
887.36	-0.000
887.52	-0.000
887.69	-0.000
887.86	-0.000
888.03	-0.000
888.20	-0.000
888.37	-0.000
888.54	-0.000
888.70	-0.000
888.87	-0.000
889.04	-0.000
889.21	-0.000
889.38	-0.000
889.55	-0.000
889.71	-0.000
889.88	-0.000
890.05	-0.000
890.22	-0.000
890.39	-0.000
>>>>>End Processed Spectral Data<<<<<
