SpectraSuite Data File
++++++++++++++++++++++++++++++++++++
Date: Fri Jun 19 13:10:01 CEST 2015
User: introlabs
Dark Spectrum Present: Yes
Reference Spectrum Present: Yes
Number of Sampled Component Spectra: 1
Spectrometers: USB4H08886
Integration Time (usec): 745692 (USB4H08886)
Spectra Averaged: 5 (USB4H08886)
Boxcar Smoothing: 5 (USB4H08886)
Correct for Electrical Dark: Yes (USB4H08886)
Strobe/Lamp Enabled: No (USB4H08886)
Correct for Detector Non-linearity: Yes (USB4H08886)
Correct for Stray Light: Yes (USB4H08886)
Number of Pixels in Processed Spectrum: 3648
>>>>>Begin Processed Spectral Data<<<<<
178.14	-0.000
178.36	-0.000
178.57	-0.000
178.79	-0.000
179.01	-0.000
179.22	-0.000
179.44	-0.000
179.65	-0.000
179.87	-0.000
180.08	-0.000
180.30	-0.000
180.52	-0.000
180.73	-0.000
180.95	-0.000
181.16	-0.000
181.38	-0.000
181.59	-0.000
181.81	-0.000
182.03	-0.000
182.24	-0.000
182.46	-0.000
182.67	-0.000
182.89	-0.000
183.10	-0.000
183.32	-0.000
183.54	-0.000
183.75	-0.000
183.97	-0.000
184.18	-0.000
184.40	-0.000
184.61	-0.000
184.83	-0.000
185.04	-0.000
185.26	-0.000
185.48	-0.000
185.69	-0.000
185.91	-0.000
186.12	-0.000
186.34	-0.000
186.55	-0.000
186.77	-0.000
186.98	-0.000
187.20	-0.000
187.42	-0.000
187.63	-0.000
187.85	-0.000
188.06	-0.000
188.28	-0.000
188.49	-0.000
188.71	-0.000
188.92	-0.000
189.14	-0.000
189.36	-0.000
189.57	-0.000
189.79	-0.000
190.00	-0.000
190.22	-0.000
190.43	-0.000
190.65	-0.000
190.86	-0.000
191.08	-0.000
191.29	-0.000
191.51	-0.000
191.72	-0.000
191.94	-0.000
192.16	-0.000
192.37	-0.000
192.59	-0.000
192.80	-0.000
193.02	-0.000
193.23	-0.000
193.45	-0.000
193.66	-0.000
193.88	-0.000
194.09	-0.000
194.31	-0.000
194.52	-0.000
194.74	-0.000
194.95	-0.000
195.17	-0.000
195.38	-0.000
195.60	-0.000
195.81	-0.000
196.03	-0.000
196.25	-0.000
196.46	-0.000
196.68	-0.000
196.89	-0.000
197.11	-0.000
197.32	-0.000
197.54	-0.000
197.75	-0.000
197.97	-0.000
198.18	-0.000
198.40	-0.000
198.61	-0.000
198.83	-0.000
199.04	-0.000
199.26	-0.000
199.47	-0.000
199.69	-0.000
199.90	-0.000
200.12	-0.000
200.33	-0.000
200.55	-0.000
200.76	-0.000
200.98	-0.000
201.19	-0.000
201.41	-0.000
201.62	-0.000
201.84	-0.000
202.05	-0.000
202.27	-0.000
202.48	-0.000
202.70	-0.000
202.91	-0.000
203.13	-0.000
203.34	-0.000
203.56	-0.000
203.77	-0.000
203.99	-0.000
204.20	-0.000
204.42	-0.000
204.63	-0.000
204.85	-0.000
205.06	-0.000
205.28	-0.000
205.49	-0.000
205.71	-0.000
205.92	-0.000
206.14	-0.000
206.35	-0.000
206.56	-0.000
206.78	-0.000
206.99	-0.000
207.21	-0.000
207.42	-0.000
207.64	-0.000
207.85	-0.000
208.07	-0.000
208.28	-0.000
208.50	-0.000
208.71	-0.000
208.93	-0.000
209.14	-0.000
209.36	-0.000
209.57	-0.000
209.79	-0.000
210.00	-0.000
210.22	-0.000
210.43	-0.000
210.64	-0.000
210.86	-0.000
211.07	-0.000
211.29	-0.000
211.50	-0.000
211.72	-0.000
211.93	-0.000
212.15	-0.000
212.36	-0.000
212.58	-0.000
212.79	-0.000
213.01	-0.000
213.22	-0.000
213.43	-0.000
213.65	-0.000
213.86	-0.000
214.08	-0.000
214.29	-0.000
214.51	-0.000
214.72	-0.000
214.94	-0.000
215.15	-0.000
215.36	-0.000
215.58	-0.000
215.79	-0.000
216.01	-0.000
216.22	-0.000
216.44	-0.000
216.65	-0.000
216.87	-0.000
217.08	-0.000
217.29	-0.000
217.51	-0.000
217.72	-0.000
217.94	-0.000
218.15	-0.000
218.37	-0.000
218.58	-0.000
218.80	-0.000
219.01	-0.000
219.22	-0.000
219.44	-0.000
219.65	-0.000
219.87	-0.000
220.08	-0.000
220.30	-0.000
220.51	-0.000
220.72	-0.000
220.94	-0.000
221.15	-0.000
221.37	-0.000
221.58	-0.000
221.79	-0.000
222.01	-0.000
222.22	-0.000
222.44	-0.000
222.65	-0.000
222.87	-0.000
223.08	-0.000
223.29	-0.000
223.51	-0.000
223.72	-0.000
223.94	-0.000
224.15	-0.000
224.36	-0.000
224.58	-0.000
224.79	-0.000
225.01	-0.000
225.22	-0.000
225.44	-0.000
225.65	-0.000
225.86	-0.000
226.08	-0.000
226.29	-0.000
226.51	-0.000
226.72	-0.000
226.93	-0.000
227.15	-0.000
227.36	-0.000
227.58	-0.000
227.79	-0.000
228.00	-0.000
228.22	-0.000
228.43	-0.000
228.65	-0.000
228.86	-0.000
229.07	-0.000
229.29	-0.000
229.50	-0.000
229.72	-0.000
229.93	-0.000
230.14	-0.000
230.36	-0.000
230.57	-0.000
230.78	-0.000
231.00	-0.000
231.21	-0.000
231.43	-0.000
231.64	-0.000
231.85	-0.000
232.07	-0.000
232.28	-0.000
232.50	-0.000
232.71	-0.000
232.92	-0.000
233.14	-0.000
233.35	-0.000
233.56	-0.000
233.78	-0.000
233.99	-0.000
234.21	-0.000
234.42	-0.000
234.63	-0.000
234.85	-0.000
235.06	-0.000
235.27	-0.000
235.49	-0.000
235.70	-0.000
235.91	-0.000
236.13	-0.000
236.34	-0.000
236.56	-0.000
236.77	-0.000
236.98	-0.000
237.20	-0.000
237.41	-0.000
237.62	-0.000
237.84	-0.000
238.05	-0.000
238.26	-0.000
238.48	-0.000
238.69	-0.000
238.91	-0.000
239.12	-0.000
239.33	-0.000
239.55	-0.000
239.76	-0.000
239.97	-0.000
240.19	-0.000
240.40	-0.000
240.61	-0.000
240.83	-0.000
241.04	-0.000
241.25	-0.000
241.47	-0.000
241.68	-0.000
241.89	-0.000
242.11	-0.000
242.32	-0.000
242.53	-0.000
242.75	-0.000
242.96	-0.000
243.17	-0.000
243.39	-0.000
243.60	-0.000
243.81	-0.000
244.03	-0.000
244.24	-0.000
244.45	-0.000
244.67	-0.000
244.88	-0.000
245.09	-0.000
245.31	-0.000
245.52	-0.000
245.73	-0.000
245.95	-0.000
246.16	-0.000
246.37	-0.000
246.59	-0.000
246.80	-0.000
247.01	-0.000
247.23	-0.000
247.44	-0.000
247.65	-0.000
247.87	-0.000
248.08	-0.000
248.29	-0.000
248.51	-0.000
248.72	-0.000
248.93	-0.000
249.15	-0.000
249.36	-0.000
249.57	-0.000
249.78	-0.000
250.00	-0.000
250.21	-0.000
250.42	-0.000
250.64	-0.000
250.85	-0.000
251.06	-0.000
251.28	-0.000
251.49	-0.000
251.70	-0.000
251.92	-0.000
252.13	-0.000
252.34	-0.000
252.55	-0.000
252.77	-0.000
252.98	-0.000
253.19	-0.000
253.41	-0.000
253.62	-0.000
253.83	-0.000
254.05	-0.000
254.26	-0.000
254.47	-0.000
254.68	-0.000
254.90	-0.000
255.11	-0.000
255.32	-0.000
255.54	-0.000
255.75	-0.000
255.96	-0.000
256.17	-0.000
256.39	-0.000
256.60	-0.000
256.81	-0.000
257.03	-0.000
257.24	-0.000
257.45	-0.000
257.66	-0.000
257.88	-0.000
258.09	-0.000
258.30	-0.000
258.51	-0.000
258.73	-0.000
258.94	-0.000
259.15	-0.000
259.37	-0.000
259.58	-0.000
259.79	-0.000
260.00	-0.000
260.22	-0.000
260.43	-0.000
260.64	-0.000
260.85	-0.000
261.07	-0.000
261.28	-0.000
261.49	-0.000
261.71	-0.000
261.92	-0.000
262.13	-0.000
262.34	-0.000
262.56	-0.000
262.77	-0.000
262.98	-0.000
263.19	-0.000
263.41	-0.000
263.62	-0.000
263.83	-0.000
264.04	-0.000
264.26	-0.000
264.47	-0.000
264.68	-0.000
264.89	-0.000
265.11	-0.000
265.32	-0.000
265.53	-0.000
265.74	-0.000
265.96	-0.000
266.17	-0.000
266.38	-0.000
266.59	-0.000
266.81	-0.000
267.02	-0.000
267.23	-0.000
267.44	-0.000
267.65	-0.000
267.87	-0.000
268.08	-0.000
268.29	-0.000
268.50	-0.000
268.72	-0.000
268.93	-0.000
269.14	-0.000
269.35	-0.000
269.57	-0.000
269.78	-0.000
269.99	-0.000
270.20	-0.000
270.41	-0.000
270.63	-0.000
270.84	-0.000
271.05	-0.000
271.26	-0.000
271.48	-0.000
271.69	-0.000
271.90	-0.000
272.11	-0.000
272.32	-0.000
272.54	-0.000
272.75	-0.000
272.96	-0.000
273.17	-0.000
273.39	-0.000
273.60	-0.000
273.81	-0.000
274.02	-0.000
274.23	-0.000
274.45	-0.000
274.66	-0.000
274.87	-0.000
275.08	-0.000
275.29	-0.000
275.51	-0.000
275.72	-0.000
275.93	-0.000
276.14	-0.000
276.35	-0.000
276.57	-0.000
276.78	-0.000
276.99	-0.000
277.20	-0.000
277.41	-0.000
277.63	-0.000
277.84	-0.000
278.05	-0.000
278.26	-0.000
278.47	-0.000
278.69	-0.000
278.90	-0.000
279.11	-0.000
279.32	-0.000
279.53	-0.000
279.74	-0.000
279.96	-0.000
280.17	-0.000
280.38	-0.000
280.59	-0.000
280.80	-0.000
281.02	-0.000
281.23	-0.000
281.44	-0.000
281.65	-0.000
281.86	-0.000
282.07	-0.000
282.29	-0.000
282.50	-0.000
282.71	-0.000
282.92	-0.000
283.13	-0.000
283.35	-0.000
283.56	-0.000
283.77	-0.000
283.98	-0.000
284.19	-0.000
284.40	-0.000
284.62	-0.000
284.83	-0.000
285.04	-0.000
285.25	-0.000
285.46	-0.000
285.67	-0.000
285.88	-0.000
286.10	-0.000
286.31	-0.000
286.52	-0.000
286.73	-0.000
286.94	-0.000
287.15	-0.000
287.37	-0.000
287.58	-0.000
287.79	-0.000
288.00	-0.000
288.21	-0.000
288.42	-0.000
288.63	-0.000
288.85	-0.000
289.06	-0.000
289.27	-0.000
289.48	-0.000
289.69	-0.000
289.90	-0.000
290.11	-0.000
290.33	-0.000
290.54	-0.000
290.75	-0.000
290.96	-0.000
291.17	-0.000
291.38	-0.000
291.59	-0.000
291.81	-0.000
292.02	-0.000
292.23	-0.000
292.44	-0.000
292.65	-0.000
292.86	-0.000
293.07	-0.000
293.28	-0.000
293.50	-0.000
293.71	-0.000
293.92	-0.000
294.13	-0.000
294.34	-0.000
294.55	-0.000
294.76	-0.000
294.97	-0.000
295.19	-0.000
295.40	-0.000
295.61	-0.000
295.82	-0.000
296.03	-0.000
296.24	-0.000
296.45	-0.000
296.66	-0.000
296.87	-0.000
297.09	-0.000
297.30	-0.000
297.51	2.680
297.72	2.422
297.93	-0.000
298.14	2.911
298.35	2.513
298.56	2.358
298.77	-0.000
298.99	-0.000
299.20	3.118
299.41	2.839
299.62	2.548
299.83	2.419
300.04	2.104
300.25	2.077
300.46	2.248
300.67	2.116
300.88	1.922
301.10	1.942
301.31	2.190
301.52	1.967
301.73	1.812
301.94	1.809
302.15	1.853
302.36	1.754
302.57	1.627
302.78	1.634
302.99	1.712
303.20	1.756
303.41	1.583
303.63	1.549
303.84	1.568
304.05	1.558
304.26	1.468
304.47	1.475
304.68	1.479
304.89	1.468
305.10	1.409
305.31	1.389
305.52	1.442
305.73	1.433
305.94	1.377
306.15	1.361
306.37	1.396
306.58	1.402
306.79	1.362
307.00	1.390
307.21	1.445
307.42	1.437
307.63	1.386
307.84	1.344
308.05	1.392
308.26	1.395
308.47	1.364
308.68	1.356
308.89	1.356
309.10	1.347
309.31	1.296
309.52	1.280
309.73	1.299
309.95	1.291
310.16	1.254
310.37	1.244
310.58	1.264
310.79	1.261
311.00	1.255
311.21	1.258
311.42	1.264
311.63	1.256
311.84	1.234
312.05	1.230
312.26	1.259
312.47	1.274
312.68	1.240
312.89	1.221
313.10	1.229
313.31	1.196
313.52	1.196
313.73	1.195
313.94	1.201
314.15	1.179
314.36	1.152
314.57	1.142
314.78	1.129
314.99	1.122
315.21	1.108
315.42	1.113
315.63	1.131
315.84	1.105
316.05	1.089
316.26	1.096
316.47	1.118
316.68	1.114
316.89	1.093
317.10	1.114
317.31	1.121
317.52	1.122
317.73	1.097
317.94	1.095
318.15	1.147
318.36	1.144
318.57	1.124
318.78	1.112
318.99	1.153
319.20	1.149
319.41	1.109
319.62	1.110
319.83	1.125
320.04	1.119
320.25	1.100
320.46	1.063
320.67	1.067
320.88	1.062
321.09	1.044
321.30	1.029
321.51	1.044
321.72	1.043
321.93	1.025
322.14	1.016
322.35	1.045
322.56	1.047
322.77	1.032
322.98	1.044
323.19	1.053
323.40	1.060
323.61	1.034
323.82	1.028
324.03	1.034
324.24	1.030
324.45	1.017
324.66	0.997
324.87	0.995
325.08	0.995
325.29	0.973
325.50	0.971
325.71	0.977
325.92	0.987
326.13	0.973
326.34	0.974
326.55	0.985
326.76	0.983
326.97	0.971
327.18	0.964
327.39	0.991
327.60	0.991
327.80	0.984
328.01	0.982
328.22	0.982
328.43	0.985
328.64	0.969
328.85	0.972
329.06	0.975
329.27	0.975
329.48	0.970
329.69	0.950
329.90	0.962
330.11	0.956
330.32	0.948
330.53	0.942
330.74	0.942
330.95	0.941
331.16	0.925
331.37	0.933
331.58	0.934
331.79	0.932
332.00	0.923
332.21	0.917
332.42	0.920
332.63	0.911
332.83	0.905
333.04	0.909
333.25	0.923
333.46	0.920
333.67	0.905
333.88	0.906
334.09	0.917
334.30	0.913
334.51	0.903
334.72	0.899
334.93	0.903
335.14	0.902
335.35	0.892
335.56	0.887
335.77	0.897
335.98	0.896
336.18	0.890
336.39	0.882
336.60	0.886
336.81	0.884
337.02	0.883
337.23	0.888
337.44	0.892
337.65	0.893
337.86	0.882
338.07	0.877
338.28	0.882
338.49	0.879
338.70	0.871
338.91	0.879
339.11	0.887
339.32	0.882
339.53	0.869
339.74	0.865
339.95	0.863
340.16	0.861
340.37	0.853
340.58	0.851
340.79	0.856
341.00	0.856
341.21	0.843
341.41	0.843
341.62	0.845
341.83	0.845
342.04	0.839
342.25	0.850
342.46	0.857
342.67	0.856
342.88	0.848
343.09	0.846
343.30	0.852
343.50	0.855
343.71	0.846
343.92	0.843
344.13	0.849
344.34	0.848
344.55	0.831
344.76	0.829
344.97	0.833
345.18	0.831
345.38	0.830
345.59	0.826
345.80	0.825
346.01	0.823
346.22	0.820
346.43	0.814
346.64	0.824
346.85	0.823
347.06	0.816
347.26	0.816
347.47	0.820
347.68	0.815
347.89	0.811
348.10	0.807
348.31	0.815
348.52	0.813
348.73	0.811
348.93	0.806
349.14	0.810
349.35	0.808
349.56	0.802
349.77	0.797
349.98	0.804
350.19	0.800
350.39	0.795
350.60	0.791
350.81	0.807
351.02	0.805
351.23	0.800
351.44	0.803
351.65	0.808
351.86	0.805
352.06	0.802
352.27	0.802
352.48	0.804
352.69	0.803
352.90	0.798
353.11	0.784
353.31	0.792
353.52	0.789
353.73	0.780
353.94	0.782
354.15	0.788
354.36	0.789
354.57	0.780
354.77	0.782
354.98	0.782
355.19	0.781
355.40	0.781
355.61	0.787
355.82	0.791
356.02	0.789
356.23	0.780
356.44	0.782
356.65	0.785
356.86	0.786
357.07	0.780
357.27	0.783
357.48	0.786
357.69	0.781
357.90	0.766
358.11	0.762
358.32	0.766
358.52	0.769
358.73	0.759
358.94	0.761
359.15	0.765
359.36	0.765
359.56	0.760
359.77	0.757
359.98	0.763
360.19	0.763
360.40	0.760
360.61	0.760
360.81	0.759
361.02	0.760
361.23	0.752
361.44	0.751
361.65	0.751
361.85	0.751
362.06	0.749
362.27	0.752
362.48	0.752
362.69	0.754
362.89	0.748
363.10	0.750
363.31	0.755
363.52	0.758
363.73	0.752
363.93	0.753
364.14	0.755
364.35	0.756
364.56	0.746
364.77	0.748
364.97	0.750
365.18	0.750
365.39	0.743
365.60	0.740
365.81	0.741
366.01	0.741
366.22	0.737
366.43	0.738
366.64	0.740
366.84	0.747
367.05	0.743
367.26	0.742
367.47	0.745
367.68	0.746
367.88	0.742
368.09	0.740
368.30	0.743
368.51	0.743
368.71	0.741
368.92	0.745
369.13	0.743
369.34	0.743
369.55	0.740
369.75	0.740
369.96	0.749
370.17	0.749
370.38	0.744
370.58	0.744
370.79	0.750
371.00	0.749
371.21	0.739
371.41	0.744
371.62	0.749
371.83	0.745
372.04	0.742
372.24	0.734
372.45	0.735
372.66	0.736
372.87	0.732
373.07	0.729
373.28	0.729
373.49	0.733
373.70	0.723
373.90	0.722
374.11	0.731
374.32	0.730
374.53	0.729
374.73	0.730
374.94	0.733
375.15	0.733
375.36	0.730
375.56	0.739
375.77	0.740
375.98	0.739
376.19	0.737
376.39	0.730
376.60	0.734
376.81	0.734
377.02	0.731
377.22	0.730
377.43	0.729
377.64	0.729
377.84	0.720
378.05	0.724
378.26	0.731
378.47	0.729
378.67	0.726
378.88	0.722
379.09	0.724
379.30	0.725
379.50	0.722
379.71	0.724
379.92	0.728
380.12	0.727
380.33	0.718
380.54	0.714
380.75	0.721
380.95	0.721
381.16	0.719
381.37	0.719
381.57	0.720
381.78	0.720
381.99	0.720
382.20	0.719
382.40	0.723
382.61	0.724
382.82	0.720
383.02	0.713
383.23	0.717
383.44	0.716
383.64	0.714
383.85	0.717
384.06	0.721
384.27	0.718
384.47	0.716
384.68	0.716
384.89	0.722
385.09	0.721
385.30	0.720
385.51	0.719
385.71	0.723
385.92	0.724
386.13	0.722
386.33	0.723
386.54	0.724
386.75	0.722
386.95	0.718
387.16	0.713
387.37	0.716
387.58	0.715
387.78	0.713
387.99	0.710
388.20	0.713
388.40	0.709
388.61	0.704
388.82	0.708
389.02	0.710
389.23	0.709
389.44	0.708
389.64	0.708
389.85	0.719
390.06	0.719
390.26	0.719
390.47	0.718
390.68	0.721
390.88	0.719
391.09	0.714
391.30	0.714
391.50	0.714
391.71	0.714
391.92	0.710
392.12	0.702
392.33	0.703
392.53	0.703
392.74	0.702
392.95	0.701
393.15	0.704
393.36	0.707
393.57	0.704
393.77	0.707
393.98	0.709
394.19	0.710
394.39	0.709
394.60	0.710
394.81	0.712
395.01	0.710
395.22	0.708
395.43	0.709
395.63	0.714
395.84	0.715
396.04	0.710
396.25	0.712
396.46	0.714
396.66	0.712
396.87	0.709
397.08	0.705
397.28	0.708
397.49	0.709
397.69	0.704
397.90	0.700
398.11	0.701
398.31	0.701
398.52	0.697
398.73	0.698
398.93	0.697
399.14	0.696
399.34	0.696
399.55	0.697
399.76	0.697
399.96	0.699
400.17	0.697
400.37	0.696
400.58	0.702
400.79	0.703
400.99	0.701
401.20	0.706
401.41	0.708
401.61	0.709
401.82	0.712
402.02	0.711
402.23	0.712
402.44	0.711
402.64	0.711
402.85	0.706
403.05	0.705
403.26	0.703
403.47	0.697
403.67	0.697
403.88	0.697
404.08	0.692
404.29	0.690
404.50	0.689
404.70	0.690
404.91	0.689
405.11	0.686
405.32	0.686
405.52	0.687
405.73	0.687
405.94	0.684
406.14	0.687
406.35	0.689
406.55	0.689
406.76	0.687
406.97	0.688
407.17	0.690
407.38	0.690
407.58	0.688
407.79	0.691
407.99	0.694
408.20	0.694
408.41	0.689
408.61	0.687
408.82	0.688
409.02	0.688
409.23	0.685
409.43	0.684
409.64	0.686
409.84	0.685
410.05	0.681
410.26	0.679
410.46	0.679
410.67	0.679
410.87	0.680
411.08	0.682
411.28	0.683
411.49	0.684
411.69	0.682
411.90	0.683
412.11	0.685
412.31	0.685
412.52	0.685
412.72	0.685
412.93	0.686
413.13	0.685
413.34	0.680
413.54	0.682
413.75	0.684
413.95	0.683
414.16	0.679
414.37	0.682
414.57	0.683
414.78	0.685
414.98	0.682
415.19	0.683
415.39	0.682
415.60	0.684
415.80	0.683
416.01	0.681
416.21	0.684
416.42	0.685
416.62	0.679
416.83	0.679
417.03	0.679
417.24	0.680
417.44	0.678
417.65	0.677
417.86	0.678
418.06	0.675
418.27	0.673
418.47	0.675
418.68	0.675
418.88	0.676
419.09	0.674
419.29	0.674
419.50	0.675
419.70	0.675
419.91	0.673
420.11	0.671
420.32	0.674
420.52	0.674
420.73	0.672
420.93	0.673
421.14	0.675
421.34	0.674
421.55	0.670
421.75	0.670
421.96	0.672
422.16	0.671
422.37	0.670
422.57	0.667
422.78	0.669
422.98	0.666
423.19	0.664
423.39	0.662
423.60	0.666
423.80	0.669
424.01	0.667
424.21	0.670
424.42	0.672
424.62	0.672
424.83	0.672
425.03	0.672
425.23	0.674
425.44	0.675
425.64	0.675
425.85	0.674
426.05	0.675
426.26	0.675
426.46	0.671
426.67	0.669
426.87	0.675
427.08	0.675
427.28	0.672
427.49	0.673
427.69	0.673
427.90	0.672
428.10	0.669
428.31	0.669
428.51	0.670
428.71	0.670
428.92	0.670
429.12	0.667
429.33	0.668
429.53	0.672
429.74	0.676
429.94	0.676
430.15	0.676
430.35	0.676
430.56	0.673
430.76	0.672
430.96	0.673
431.17	0.671
431.37	0.668
431.58	0.666
431.78	0.663
431.99	0.657
432.19	0.659
432.40	0.661
432.60	0.662
432.80	0.664
433.01	0.663
433.21	0.663
433.42	0.666
433.62	0.666
433.83	0.666
434.03	0.668
434.23	0.672
434.44	0.670
434.64	0.668
434.85	0.672
435.05	0.673
435.26	0.673
435.46	0.672
435.66	0.671
435.87	0.671
436.07	0.671
436.28	0.666
436.48	0.663
436.69	0.663
436.89	0.663
437.09	0.657
437.30	0.657
437.50	0.658
437.71	0.670
437.91	0.669
438.11	0.671
438.32	0.675
438.52	0.676
438.73	0.675
438.93	0.673
439.13	0.673
439.34	0.676
439.54	0.673
439.75	0.674
439.95	0.664
440.15	0.668
440.36	0.666
440.56	0.664
440.77	0.664
440.97	0.664
441.17	0.663
441.38	0.665
441.58	0.662
441.79	0.662
441.99	0.660
442.19	0.660
442.40	0.658
442.60	0.658
442.81	0.656
443.01	0.657
443.21	0.658
443.42	0.658
443.62	0.656
443.82	0.656
444.03	0.658
444.23	0.658
444.44	0.658
444.64	0.657
444.84	0.659
445.05	0.659
445.25	0.656
445.45	0.656
445.66	0.659
445.86	0.658
446.06	0.660
446.27	0.659
446.47	0.662
446.68	0.660
446.88	0.658
447.08	0.657
447.29	0.660
447.49	0.660
447.69	0.660
447.90	0.659
448.10	0.662
448.30	0.659
448.51	0.661
448.71	0.659
448.91	0.661
449.12	0.660
449.32	0.661
449.52	0.659
449.73	0.664
449.93	0.662
450.14	0.663
450.34	0.662
450.54	0.665
450.75	0.662
450.95	0.661
451.15	0.661
451.36	0.664
451.56	0.662
451.76	0.660
451.97	0.657
452.17	0.657
452.37	0.655
452.58	0.652
452.78	0.651
452.98	0.654
453.19	0.654
453.39	0.654
453.59	0.653
453.79	0.654
454.00	0.655
454.20	0.653
454.40	0.654
454.61	0.657
454.81	0.658
455.01	0.656
455.22	0.657
455.42	0.660
455.62	0.657
455.83	0.657
456.03	0.660
456.23	0.662
456.44	0.663
456.64	0.661
456.84	0.661
457.04	0.662
457.25	0.662
457.45	0.658
457.65	0.656
457.86	0.659
458.06	0.657
458.26	0.653
458.47	0.652
458.67	0.653
458.87	0.653
459.07	0.651
459.28	0.652
459.48	0.655
459.68	0.655
459.89	0.654
460.09	0.652
460.29	0.654
460.49	0.655
460.70	0.654
460.90	0.654
461.10	0.655
461.31	0.655
461.51	0.652
461.71	0.653
461.91	0.655
462.12	0.655
462.32	0.654
462.52	0.655
462.72	0.658
462.93	0.658
463.13	0.657
463.33	0.657
463.53	0.659
463.74	0.658
463.94	0.653
464.14	0.653
464.35	0.655
464.55	0.655
464.75	0.653
464.95	0.650
465.16	0.652
465.36	0.651
465.56	0.650
465.76	0.650
465.97	0.651
466.17	0.652
466.37	0.650
466.57	0.651
466.78	0.652
466.98	0.653
467.18	0.651
467.38	0.649
467.59	0.651
467.79	0.653
467.99	0.652
468.19	0.653
468.39	0.656
468.60	0.656
468.80	0.654
469.00	0.656
469.20	0.657
469.41	0.657
469.61	0.656
469.81	0.656
470.01	0.656
470.22	0.656
470.42	0.654
470.62	0.653
470.82	0.654
471.02	0.653
471.23	0.650
471.43	0.651
471.63	0.654
471.83	0.653
472.04	0.651
472.24	0.650
472.44	0.656
472.64	0.656
472.84	0.653
473.05	0.653
473.25	0.656
473.45	0.655
473.65	0.653
473.85	0.653
474.06	0.655
474.26	0.655
474.46	0.656
474.66	0.652
474.86	0.653
475.07	0.654
475.27	0.652
475.47	0.649
475.67	0.650
475.87	0.652
476.08	0.648
476.28	0.649
476.48	0.650
476.68	0.649
476.88	0.646
477.09	0.648
477.29	0.650
477.49	0.650
477.69	0.649
477.89	0.650
478.09	0.649
478.30	0.652
478.50	0.649
478.70	0.648
478.90	0.648
479.10	0.651
479.31	0.652
479.51	0.650
479.71	0.650
479.91	0.650
480.11	0.649
480.31	0.649
480.52	0.648
480.72	0.648
480.92	0.647
481.12	0.646
481.32	0.643
481.52	0.641
481.72	0.641
481.93	0.645
482.13	0.645
482.33	0.644
482.53	0.642
482.73	0.642
482.93	0.644
483.14	0.644
483.34	0.643
483.54	0.644
483.74	0.643
483.94	0.642
484.14	0.637
484.34	0.637
484.55	0.638
484.75	0.638
484.95	0.636
485.15	0.635
485.35	0.636
485.55	0.635
485.75	0.634
485.96	0.634
486.16	0.636
486.36	0.636
486.56	0.634
486.76	0.634
486.96	0.635
487.16	0.634
487.36	0.633
487.57	0.632
487.77	0.634
487.97	0.635
488.17	0.632
488.37	0.632
488.57	0.633
488.77	0.633
488.97	0.631
489.18	0.631
489.38	0.633
489.58	0.634
489.78	0.633
489.98	0.632
490.18	0.632
490.38	0.633
490.58	0.631
490.78	0.631
490.98	0.633
491.19	0.633
491.39	0.632
491.59	0.631
491.79	0.634
491.99	0.634
492.19	0.634
492.39	0.637
492.59	0.637
492.79	0.640
492.99	0.639
493.20	0.640
493.40	0.640
493.60	0.642
493.80	0.640
494.00	0.638
494.20	0.639
494.40	0.638
494.60	0.635
494.80	0.640
495.00	0.639
495.20	0.638
495.40	0.637
495.61	0.639
495.81	0.639
496.01	0.642
496.21	0.643
496.41	0.642
496.61	0.643
496.81	0.642
497.01	0.637
497.21	0.636
497.41	0.637
497.61	0.636
497.81	0.633
498.01	0.634
498.21	0.632
498.41	0.630
498.61	0.630
498.82	0.631
499.02	0.634
499.22	0.635
499.42	0.634
499.62	0.635
499.82	0.635
500.02	0.636
500.22	0.635
500.42	0.637
500.62	0.638
500.82	0.638
501.02	0.636
501.22	0.636
501.42	0.636
501.62	0.639
501.82	0.638
502.02	0.638
502.22	0.638
502.42	0.640
502.62	0.637
502.82	0.637
503.02	0.638
503.22	0.638
503.42	0.636
503.63	0.636
503.83	0.634
504.03	0.633
504.23	0.631
504.43	0.632
504.63	0.634
504.83	0.633
505.03	0.632
505.23	0.634
505.43	0.635
505.63	0.636
505.83	0.635
506.03	0.637
506.23	0.639
506.43	0.639
506.63	0.638
506.83	0.636
507.03	0.638
507.23	0.639
507.43	0.636
507.63	0.637
507.83	0.638
508.03	0.638
508.23	0.637
508.43	0.635
508.63	0.637
508.83	0.638
509.03	0.639
509.23	0.638
509.43	0.639
509.63	0.639
509.83	0.638
510.03	0.640
510.23	0.642
510.43	0.642
510.63	0.643
510.83	0.643
511.03	0.645
511.23	0.642
511.43	0.642
511.63	0.644
511.83	0.647
512.03	0.646
512.22	0.643
512.42	0.643
512.62	0.644
512.82	0.643
513.02	0.641
513.22	0.641
513.42	0.643
513.62	0.645
513.82	0.643
514.02	0.642
514.22	0.643
514.42	0.644
514.62	0.644
514.82	0.644
515.02	0.647
515.22	0.650
515.42	0.649
515.62	0.651
515.82	0.650
516.02	0.651
516.22	0.651
516.42	0.652
516.62	0.654
516.82	0.655
517.01	0.653
517.21	0.651
517.41	0.655
517.61	0.655
517.81	0.651
518.01	0.651
518.21	0.651
518.41	0.650
518.61	0.649
518.81	0.650
519.01	0.651
519.21	0.651
519.41	0.651
519.61	0.645
519.81	0.648
520.00	0.648
520.20	0.648
520.40	0.651
520.60	0.652
520.80	0.651
521.00	0.652
521.20	0.652
521.40	0.657
521.60	0.657
521.80	0.656
522.00	0.656
522.20	0.659
522.39	0.659
522.59	0.655
522.79	0.657
522.99	0.659
523.19	0.657
523.39	0.655
523.59	0.653
523.79	0.657
523.99	0.659
524.19	0.658
524.38	0.657
524.58	0.658
524.78	0.659
524.98	0.657
525.18	0.660
525.38	0.661
525.58	0.662
525.78	0.659
525.98	0.657
526.18	0.657
526.37	0.656
526.57	0.658
526.77	0.658
526.97	0.659
527.17	0.659
527.37	0.654
527.57	0.657
527.77	0.658
527.96	0.659
528.16	0.657
528.36	0.658
528.56	0.661
528.76	0.659
528.96	0.658
529.16	0.659
529.36	0.662
529.55	0.662
529.75	0.659
529.95	0.659
530.15	0.660
530.35	0.663
530.55	0.660
530.75	0.660
530.94	0.662
531.14	0.662
531.34	0.660
531.54	0.658
531.74	0.662
531.94	0.665
532.13	0.663
532.33	0.665
532.53	0.664
532.73	0.664
532.93	0.662
533.13	0.663
533.33	0.663
533.52	0.664
533.72	0.667
533.92	0.665
534.12	0.663
534.32	0.662
534.52	0.661
534.71	0.661
534.91	0.665
535.11	0.666
535.31	0.663
535.51	0.665
535.71	0.667
535.90	0.664
536.10	0.666
536.30	0.668
536.50	0.669
536.70	0.670
536.89	0.667
537.09	0.667
537.29	0.669
537.49	0.669
537.69	0.667
537.89	0.668
538.08	0.668
538.28	0.666
538.48	0.666
538.68	0.668
538.88	0.670
539.07	0.670
539.27	0.668
539.47	0.668
539.67	0.668
539.87	0.670
540.06	0.668
540.26	0.668
540.46	0.671
540.66	0.668
540.86	0.665
541.05	0.665
541.25	0.667
541.45	0.667
541.65	0.665
541.84	0.667
542.04	0.667
542.24	0.668
542.44	0.667
542.64	0.667
542.83	0.671
543.03	0.671
543.23	0.668
543.43	0.669
543.62	0.671
543.82	0.672
544.02	0.670
544.22	0.670
544.42	0.673
544.61	0.673
544.81	0.671
545.01	0.670
545.21	0.672
545.40	0.672
545.60	0.670
545.80	0.673
546.00	0.673
546.19	0.673
546.39	0.671
546.59	0.669
546.79	0.671
546.98	0.672
547.18	0.671
547.38	0.672
547.58	0.675
547.77	0.675
547.97	0.671
548.17	0.672
548.37	0.673
548.56	0.673
548.76	0.672
548.96	0.673
549.16	0.676
549.35	0.675
549.55	0.673
549.75	0.674
549.95	0.678
550.14	0.678
550.34	0.676
550.54	0.681
550.73	0.685
550.93	0.686
551.13	0.683
551.33	0.682
551.52	0.682
551.72	0.682
551.92	0.679
552.12	0.679
552.31	0.680
552.51	0.681
552.71	0.675
552.90	0.675
553.10	0.676
553.30	0.677
553.50	0.676
553.69	0.677
553.89	0.678
554.09	0.679
554.28	0.675
554.48	0.677
554.68	0.679
554.87	0.680
555.07	0.677
555.27	0.677
555.47	0.679
555.66	0.680
555.86	0.677
556.06	0.680
556.25	0.681
556.45	0.689
556.65	0.687
556.84	0.689
557.04	0.693
557.24	0.694
557.43	0.693
557.63	0.696
557.83	0.698
558.02	0.699
558.22	0.703
558.42	0.703
558.61	0.696
558.81	0.697
559.01	0.693
559.21	0.692
559.40	0.694
559.60	0.694
559.80	0.690
559.99	0.691
560.19	0.694
560.39	0.687
560.58	0.685
560.78	0.685
560.97	0.688
561.17	0.687
561.37	0.685
561.56	0.686
561.76	0.688
561.96	0.688
562.15	0.684
562.35	0.687
562.55	0.688
562.74	0.688
562.94	0.686
563.14	0.684
563.33	0.685
563.53	0.685
563.73	0.682
563.92	0.684
564.12	0.687
564.31	0.690
564.51	0.688
564.71	0.690
564.90	0.694
565.10	0.694
565.30	0.697
565.49	0.698
565.69	0.701
565.89	0.701
566.08	0.698
566.28	0.699
566.47	0.700
566.67	0.698
566.87	0.695
567.06	0.696
567.26	0.703
567.46	0.699
567.65	0.698
567.85	0.699
568.04	0.702
568.24	0.700
568.44	0.697
568.63	0.695
568.83	0.697
569.02	0.695
569.22	0.690
569.42	0.686
569.61	0.689
569.81	0.687
570.00	0.684
570.20	0.686
570.40	0.688
570.59	0.688
570.79	0.686
570.98	0.684
571.18	0.686
571.38	0.685
571.57	0.682
571.77	0.679
571.96	0.684
572.16	0.681
572.35	0.675
572.55	0.676
572.75	0.675
572.94	0.674
573.14	0.673
573.33	0.673
573.53	0.673
573.73	0.672
573.92	0.671
574.12	0.668
574.31	0.671
574.51	0.672
574.70	0.669
574.90	0.671
575.09	0.673
575.29	0.673
575.49	0.670
575.68	0.671
575.88	0.673
576.07	0.674
576.27	0.672
576.46	0.671
576.66	0.670
576.86	0.669
577.05	0.666
577.25	0.664
577.44	0.666
577.64	0.666
577.83	0.664
578.03	0.665
578.22	0.665
578.42	0.664
578.61	0.663
578.81	0.663
579.00	0.664
579.20	0.664
579.40	0.663
579.59	0.662
579.79	0.663
579.98	0.662
580.18	0.661
580.37	0.662
580.57	0.664
580.76	0.669
580.96	0.667
581.15	0.668
581.35	0.670
581.54	0.669
581.74	0.668
581.93	0.669
582.13	0.671
582.32	0.668
582.52	0.666
582.71	0.665
582.91	0.661
583.10	0.662
583.30	0.660
583.49	0.659
583.69	0.664
583.88	0.665
584.08	0.664
584.27	0.666
584.47	0.669
584.66	0.670
584.86	0.669
585.05	0.671
585.25	0.673
585.44	0.673
585.64	0.671
585.83	0.668
586.03	0.669
586.22	0.667
586.42	0.664
586.61	0.666
586.81	0.668
587.00	0.668
587.20	0.665
587.39	0.666
587.59	0.668
587.78	0.668
587.98	0.669
588.17	0.669
588.37	0.672
588.56	0.674
588.76	0.669
588.95	0.669
589.15	0.673
589.34	0.676
589.54	0.674
589.73	0.675
589.92	0.679
590.12	0.678
590.31	0.676
590.51	0.681
590.70	0.683
590.90	0.684
591.09	0.682
591.29	0.681
591.48	0.681
591.68	0.682
591.87	0.680
592.06	0.679
592.26	0.683
592.45	0.682
592.65	0.675
592.84	0.675
593.04	0.677
593.23	0.679
593.43	0.676
593.62	0.676
593.81	0.677
594.01	0.676
594.20	0.673
594.40	0.673
594.59	0.675
594.79	0.676
594.98	0.675
595.17	0.674
595.37	0.675
595.56	0.677
595.76	0.676
595.95	0.678
596.14	0.681
596.34	0.682
596.53	0.679
596.73	0.680
596.92	0.681
597.12	0.684
597.31	0.683
597.50	0.683
597.70	0.685
597.89	0.685
598.09	0.680
598.28	0.682
598.47	0.684
598.67	0.683
598.86	0.680
599.06	0.682
599.25	0.682
599.44	0.681
599.64	0.678
599.83	0.676
600.03	0.679
600.22	0.680
600.41	0.680
600.61	0.678
600.80	0.681
601.00	0.682
601.19	0.677
601.38	0.675
601.58	0.678
601.77	0.680
601.96	0.681
602.16	0.681
602.35	0.691
602.55	0.688
602.74	0.688
602.93	0.689
603.13	0.695
603.32	0.696
603.51	0.695
603.71	0.698
603.90	0.700
604.09	0.700
604.29	0.697
604.48	0.691
604.68	0.693
604.87	0.692
605.06	0.688
605.26	0.685
605.45	0.686
605.64	0.686
605.84	0.680
606.03	0.679
606.22	0.678
606.42	0.678
606.61	0.675
606.80	0.674
607.00	0.676
607.19	0.677
607.38	0.675
607.58	0.676
607.77	0.679
607.96	0.679
608.16	0.677
608.35	0.682
608.54	0.686
608.74	0.689
608.93	0.694
609.12	0.697
609.32	0.700
609.51	0.703
609.70	0.702
609.90	0.704
610.09	0.709
610.28	0.715
610.48	0.708
610.67	0.710
610.86	0.711
611.06	0.705
611.25	0.702
611.44	0.702
611.64	0.702
611.83	0.704
612.02	0.700
612.21	0.698
612.41	0.696
612.60	0.695
612.79	0.691
612.99	0.691
613.18	0.693
613.37	0.692
613.57	0.689
613.76	0.691
613.95	0.689
614.14	0.688
614.34	0.686
614.53	0.687
614.72	0.690
614.92	0.690
615.11	0.687
615.30	0.684
615.49	0.686
615.69	0.689
615.88	0.685
616.07	0.687
616.26	0.689
616.46	0.690
616.65	0.687
616.84	0.686
617.04	0.688
617.23	0.692
617.42	0.692
617.61	0.696
617.81	0.697
618.00	0.699
618.19	0.697
618.38	0.701
618.58	0.704
618.77	0.706
618.96	0.705
619.15	0.707
619.35	0.708
619.54	0.710
619.73	0.705
619.92	0.707
620.12	0.712
620.31	0.712
620.50	0.705
620.69	0.706
620.89	0.710
621.08	0.711
621.27	0.711
621.46	0.709
621.66	0.713
621.85	0.712
622.04	0.708
622.23	0.709
622.43	0.710
622.62	0.711
622.81	0.709
623.00	0.709
623.19	0.713
623.39	0.711
623.58	0.708
623.77	0.707
623.96	0.710
624.16	0.709
624.35	0.704
624.54	0.707
624.73	0.711
624.92	0.709
625.12	0.706
625.31	0.707
625.50	0.711
625.69	0.711
625.88	0.707
626.08	0.708
626.27	0.710
626.46	0.711
626.65	0.707
626.84	0.707
627.04	0.713
627.23	0.712
627.42	0.708
627.61	0.710
627.80	0.713
628.00	0.713
628.19	0.711
628.38	0.715
628.57	0.719
628.76	0.718
628.96	0.714
629.15	0.714
629.34	0.718
629.53	0.718
629.72	0.713
629.91	0.713
630.11	0.718
630.30	0.718
630.49	0.720
630.68	0.720
630.87	0.724
631.06	0.726
631.26	0.721
631.45	0.724
631.64	0.733
631.83	0.735
632.02	0.732
632.21	0.730
632.41	0.739
632.60	0.734
632.79	0.732
632.98	0.732
633.17	0.733
633.36	0.734
633.55	0.729
633.75	0.725
633.94	0.727
634.13	0.727
634.32	0.725
634.51	0.718
634.70	0.721
634.89	0.721
635.09	0.717
635.28	0.718
635.47	0.720
635.66	0.723
635.85	0.718
636.04	0.720
636.23	0.725
636.43	0.726
636.62	0.725
636.81	0.723
637.00	0.726
637.19	0.730
637.38	0.725
637.57	0.725
637.76	0.728
637.95	0.728
638.15	0.724
638.34	0.720
638.53	0.724
638.72	0.726
638.91	0.723
639.10	0.720
639.29	0.721
639.48	0.721
639.67	0.720
639.87	0.719
640.06	0.725
640.25	0.725
640.44	0.725
640.63	0.724
640.82	0.727
641.01	0.727
641.20	0.726
641.39	0.728
641.58	0.732
641.78	0.731
641.97	0.726
642.16	0.741
642.35	0.743
642.54	0.742
642.73	0.736
642.92	0.735
643.11	0.739
643.30	0.738
643.49	0.732
643.68	0.735
643.87	0.737
644.06	0.737
644.25	0.716
644.45	0.718
644.64	0.720
644.83	0.721
645.02	0.717
645.21	0.716
645.40	0.720
645.59	0.720
645.78	0.713
645.97	0.715
646.16	0.717
646.35	0.717
646.54	0.714
646.73	0.715
646.92	0.717
647.11	0.717
647.30	0.713
647.49	0.714
647.68	0.714
647.88	0.713
648.07	0.704
648.26	0.708
648.45	0.710
648.64	0.706
648.83	0.703
649.02	0.705
649.21	0.716
649.40	0.715
649.59	0.710
649.78	0.712
649.97	0.727
650.16	0.727
650.35	0.720
650.54	0.722
650.73	0.731
650.92	0.728
651.11	0.720
651.30	0.718
651.49	0.723
651.68	0.723
651.87	0.718
652.06	0.708
652.25	0.712
652.44	0.714
652.63	0.710
652.82	0.709
653.01	0.710
653.20	0.707
653.39	0.694
653.58	0.691
653.77	0.690
653.96	0.684
654.15	0.675
654.34	0.673
654.53	0.669
654.72	0.663
654.91	0.653
655.10	0.649
655.29	0.648
655.48	0.646
655.67	0.641
655.86	0.639
656.05	0.639
656.24	0.639
656.43	0.634
656.62	0.633
656.81	0.634
657.00	0.632
657.19	0.630
657.38	0.630
657.57	0.630
657.76	0.633
657.95	0.630
658.14	0.634
658.33	0.637
658.51	0.642
658.70	0.642
658.89	0.644
659.08	0.653
659.27	0.660
659.46	0.659
659.65	0.665
659.84	0.670
660.03	0.673
660.22	0.674
660.41	0.678
660.60	0.678
660.79	0.680
660.98	0.686
661.17	0.686
661.36	0.686
661.55	0.687
661.74	0.684
661.92	0.686
662.11	0.688
662.30	0.686
662.49	0.679
662.68	0.678
662.87	0.682
663.06	0.675
663.25	0.675
663.44	0.675
663.63	0.677
663.82	0.676
664.01	0.670
664.20	0.670
664.38	0.672
664.57	0.671
664.76	0.671
664.95	0.671
665.14	0.677
665.33	0.671
665.52	0.679
665.71	0.682
665.90	0.682
666.09	0.683
666.28	0.680
666.46	0.678
666.65	0.680
666.84	0.678
667.03	0.672
667.22	0.669
667.41	0.674
667.60	0.664
667.79	0.656
667.98	0.658
668.16	0.660
668.35	0.660
668.54	0.656
668.73	0.657
668.92	0.658
669.11	0.657
669.30	0.652
669.49	0.647
669.67	0.650
669.86	0.651
670.05	0.649
670.24	0.645
670.43	0.643
670.62	0.642
670.81	0.637
671.00	0.638
671.18	0.638
671.37	0.637
671.56	0.634
671.75	0.633
671.94	0.630
672.13	0.629
672.32	0.624
672.50	0.623
672.69	0.623
672.88	0.624
673.07	0.619
673.26	0.621
673.45	0.623
673.63	0.623
673.82	0.619
674.01	0.620
674.20	0.620
674.39	0.619
674.58	0.618
674.76	0.619
674.95	0.618
675.14	0.618
675.33	0.613
675.52	0.611
675.71	0.611
675.89	0.611
676.08	0.606
676.27	0.606
676.46	0.607
676.65	0.606
676.84	0.605
677.02	0.607
677.21	0.610
677.40	0.609
677.59	0.606
677.78	0.607
677.96	0.610
678.15	0.610
678.34	0.608
678.53	0.608
678.72	0.609
678.90	0.605
679.09	0.600
679.28	0.597
679.47	0.597
679.66	0.597
679.84	0.593
680.03	0.590
680.22	0.589
680.41	0.591
680.60	0.586
680.78	0.586
680.97	0.589
681.16	0.590
681.35	0.588
681.53	0.587
681.72	0.588
681.91	0.589
682.10	0.588
682.29	0.591
682.47	0.589
682.66	0.589
682.85	0.587
683.04	0.585
683.22	0.585
683.41	0.587
683.60	0.586
683.79	0.587
683.97	0.587
684.16	0.585
684.35	0.581
684.54	0.583
684.72	0.583
684.91	0.583
685.10	0.581
685.29	0.582
685.47	0.579
685.66	0.578
685.85	0.575
686.04	0.574
686.22	0.577
686.41	0.578
686.60	0.575
686.79	0.579
686.97	0.580
687.16	0.582
687.35	0.579
687.54	0.583
687.72	0.587
687.91	0.587
688.10	0.588
688.29	0.588
688.47	0.587
688.66	0.586
688.85	0.581
689.03	0.579
689.22	0.583
689.41	0.583
689.60	0.578
689.78	0.575
689.97	0.576
690.16	0.573
690.34	0.569
690.53	0.569
690.72	0.569
690.91	0.568
691.09	0.565
691.28	0.559
691.47	0.558
691.65	0.557
691.84	0.555
692.03	0.554
692.21	0.552
692.40	0.552
692.59	0.549
692.77	0.548
692.96	0.550
693.15	0.551
693.34	0.549
693.52	0.549
693.71	0.549
693.90	0.550
694.08	0.550
694.27	0.551
694.46	0.561
694.64	0.563
694.83	0.562
695.02	0.560
695.20	0.560
695.39	0.560
695.58	0.559
695.76	0.559
695.95	0.560
696.14	0.559
696.32	0.556
696.51	0.547
696.70	0.547
696.88	0.548
697.07	0.547
697.26	0.549
697.44	0.550
697.63	0.549
697.81	0.547
698.00	0.546
698.19	0.546
698.37	0.546
698.56	0.545
698.75	0.545
698.93	0.544
699.12	0.544
699.31	0.542
699.49	0.542
699.68	0.543
699.87	0.545
700.05	0.545
700.24	0.543
700.42	0.545
700.61	0.544
700.80	0.542
700.98	0.543
701.17	0.544
701.36	0.543
701.54	0.543
701.73	0.544
701.91	0.542
702.10	0.541
702.29	0.540
702.47	0.539
702.66	0.541
702.84	0.542
703.03	0.540
703.22	0.541
703.40	0.541
703.59	0.542
703.77	0.541
703.96	0.541
704.15	0.542
704.33	0.542
704.52	0.540
704.70	0.540
704.89	0.540
705.08	0.538
705.26	0.534
705.45	0.534
705.63	0.534
705.82	0.531
706.00	0.529
706.19	0.529
706.38	0.529
706.56	0.529
706.75	0.527
706.93	0.526
707.12	0.527
707.30	0.528
707.49	0.526
707.68	0.523
707.86	0.523
708.05	0.523
708.23	0.520
708.42	0.520
708.60	0.523
708.79	0.523
708.98	0.521
709.16	0.521
709.35	0.524
709.53	0.528
709.72	0.527
709.90	0.528
710.09	0.531
710.27	0.533
710.46	0.536
710.64	0.534
710.83	0.537
711.02	0.539
711.20	0.536
711.39	0.535
711.57	0.532
711.76	0.533
711.94	0.531
712.13	0.532
712.31	0.531
712.50	0.526
712.68	0.524
712.87	0.525
713.05	0.525
713.24	0.525
713.42	0.524
713.61	0.525
713.79	0.526
713.98	0.526
714.16	0.526
714.35	0.526
714.54	0.528
714.72	0.527
714.91	0.525
715.09	0.532
715.28	0.536
715.46	0.535
715.65	0.533
715.83	0.533
716.02	0.535
716.20	0.532
716.39	0.532
716.57	0.533
716.76	0.536
716.94	0.536
717.12	0.527
717.31	0.528
717.49	0.531
717.68	0.533
717.86	0.532
718.05	0.535
718.23	0.537
718.42	0.539
718.60	0.540
718.79	0.548
718.97	0.551
719.16	0.551
719.34	0.548
719.53	0.548
719.71	0.549
719.90	0.550
720.08	0.546
720.27	0.547
720.45	0.546
720.63	0.545
720.82	0.539
721.00	0.542
721.19	0.546
721.37	0.547
721.56	0.546
721.74	0.550
721.93	0.559
722.11	0.567
722.30	0.566
722.48	0.571
722.66	0.572
722.85	0.572
723.03	0.572
723.22	0.569
723.40	0.572
723.59	0.572
723.77	0.575
723.95	0.569
724.14	0.570
724.32	0.571
724.51	0.570
724.69	0.573
724.88	0.574
725.06	0.572
725.24	0.573
725.43	0.575
725.61	0.578
725.80	0.571
725.98	0.567
726.16	0.565
726.35	0.571
726.53	0.571
726.72	0.569
726.90	0.578
727.09	0.579
727.27	0.585
727.45	0.581
727.64	0.590
727.82	0.601
728.01	0.607
728.19	0.604
728.37	0.609
728.56	0.613
728.74	0.620
728.92	0.608
729.11	0.611
729.29	0.611
729.48	0.613
729.66	0.601
729.84	0.601
730.03	0.603
730.21	0.605
730.40	0.594
730.58	0.596
730.76	0.596
730.95	0.599
731.13	0.597
731.31	0.610
731.50	0.622
731.68	0.626
731.86	0.621
732.05	0.638
732.23	0.642
732.42	0.646
732.60	0.649
732.78	0.654
732.97	0.674
733.15	0.682
733.33	0.669
733.52	0.674
733.70	0.686
733.88	0.698
734.07	0.681
734.25	0.709
734.43	0.720
734.62	0.723
734.80	0.719
734.98	0.708
735.17	0.717
735.35	0.724
735.53	0.713
735.72	0.715
735.90	0.739
736.08	0.762
736.27	0.736
736.45	0.746
736.63	0.760
736.82	0.771
737.00	0.773
737.18	0.786
737.37	0.825
737.55	0.849
737.73	0.845
737.92	0.846
738.10	0.845
738.28	0.868
738.46	0.853
738.65	0.870
738.83	0.898
739.01	0.957
739.20	0.944
739.38	0.922
739.56	0.917
739.75	0.922
739.93	0.881
740.11	0.909
740.29	0.911
740.48	0.921
740.66	0.892
740.84	0.886
741.03	0.850
741.21	0.863
741.39	0.840
741.57	0.858
741.76	0.877
741.94	0.886
742.12	0.842
742.31	0.848
742.49	0.876
742.67	0.904
742.85	0.916
743.04	0.921
743.22	0.934
743.40	1.000
743.58	0.972
743.77	0.992
743.95	1.041
744.13	1.110
744.31	1.085
744.50	1.069
744.68	1.069
744.86	1.033
745.04	1.043
745.23	1.126
745.41	1.107
745.59	1.113
745.77	1.066
745.96	1.047
746.14	1.062
746.32	1.061
746.50	1.044
746.69	1.025
746.87	1.050
747.05	1.030
747.23	0.940
747.42	0.929
747.60	0.968
747.78	0.975
747.96	1.011
748.14	0.952
748.33	0.987
748.51	0.990
748.69	0.981
748.87	1.012
749.06	1.017
749.24	1.014
749.42	0.989
749.60	0.966
749.78	0.984
749.97	0.929
750.15	0.923
750.33	0.931
750.51	0.963
750.69	0.964
750.88	0.968
751.06	0.976
751.24	1.010
751.42	0.998
751.60	0.976
751.79	1.061
751.97	1.130
752.15	1.129
752.33	1.072
752.51	1.156
752.69	1.191
752.88	1.145
753.06	1.203
753.24	1.170
753.42	1.222
753.60	1.501
753.78	1.251
753.97	1.274
754.15	1.309
754.33	1.359
754.51	1.159
754.69	1.137
754.87	1.176
755.06	1.083
755.24	1.079
755.42	1.084
755.60	0.967
755.78	0.977
755.96	0.905
756.15	0.902
756.33	0.912
756.51	0.934
756.69	0.914
756.87	0.879
757.05	0.905
757.23	0.887
757.42	0.846
757.60	0.841
757.78	0.831
757.96	0.833
758.14	0.813
758.32	0.794
758.50	0.811
758.69	0.807
758.87	0.796
759.05	0.799
759.23	0.813
759.41	0.814
759.59	0.807
759.77	0.832
759.95	0.861
760.13	0.919
760.32	0.915
760.50	0.910
760.68	0.949
760.86	0.953
761.04	0.916
761.22	0.921
761.40	0.986
761.58	0.986
761.76	0.952
761.95	0.926
762.13	0.878
762.31	0.878
762.49	0.840
762.67	0.855
762.85	0.871
763.03	0.866
763.21	0.843
763.39	0.820
763.57	0.826
763.75	0.819
763.94	0.806
764.12	0.804
764.30	0.835
764.48	0.839
764.66	0.797
764.84	0.796
765.02	0.843
765.20	0.849
765.38	0.824
765.56	0.830
765.74	0.876
765.92	0.872
766.10	0.879
766.28	0.871
766.46	0.902
766.65	0.905
766.83	0.888
767.01	0.868
767.19	0.880
767.37	0.883
767.55	0.867
767.73	0.846
767.91	0.853
768.09	0.841
768.27	0.826
768.45	0.817
768.63	0.824
768.81	0.825
768.99	0.790
769.17	0.814
769.35	0.833
769.53	0.829
769.71	0.804
769.89	0.815
770.07	0.823
770.25	0.804
770.43	0.778
770.61	0.803
770.79	0.812
770.97	0.825
771.15	0.790
771.33	0.793
771.51	0.799
771.69	0.811
771.87	0.817
772.05	0.824
772.24	0.835
772.42	0.846
772.60	0.818
772.78	0.884
772.96	0.920
773.14	0.915
773.32	0.886
773.49	0.895
773.67	0.897
773.85	0.873
774.03	0.856
774.21	0.893
774.39	0.906
774.57	0.933
774.75	0.848
774.93	0.841
775.11	0.866
775.29	0.875
775.47	0.874
775.65	0.885
775.83	0.907
776.01	0.937
776.19	0.882
776.37	0.888
776.55	0.893
776.73	0.890
776.91	0.883
777.09	0.868
777.27	0.868
777.45	0.854
777.63	0.827
777.81	0.825
777.99	0.810
778.17	0.809
778.35	0.782
778.53	0.768
778.71	0.776
778.89	0.761
779.07	0.747
779.24	0.754
779.42	0.755
779.60	0.777
779.78	0.771
779.96	0.776
780.14	0.788
780.32	0.810
780.50	0.788
780.68	0.789
780.86	0.781
781.04	0.799
781.22	0.801
781.40	0.814
781.58	0.802
781.75	0.792
781.93	0.772
782.11	0.767
782.29	0.754
782.47	0.752
782.65	0.738
782.83	0.770
783.01	0.764
783.19	0.753
783.37	0.735
783.55	0.742
783.72	0.763
783.90	0.774
784.08	0.766
784.26	0.778
784.44	0.802
784.62	0.802
784.80	0.762
784.98	0.769
785.16	0.777
785.33	0.793
785.51	0.774
785.69	0.759
785.87	0.759
786.05	0.772
786.23	0.767
786.41	0.764
786.59	0.773
786.77	0.774
786.94	0.758
787.12	0.761
787.30	0.765
787.48	0.761
787.66	0.745
787.84	0.747
788.02	0.734
788.19	0.730
788.37	0.715
788.55	0.717
788.73	0.717
788.91	0.710
789.09	0.693
789.27	0.680
789.44	0.694
789.62	0.701
789.80	0.708
789.98	0.739
790.16	0.725
790.34	0.719
790.51	0.705
790.69	0.729
790.87	0.739
791.05	0.735
791.23	0.728
791.41	0.727
791.58	0.735
791.76	0.712
791.94	0.677
792.12	0.689
792.30	0.694
792.48	0.689
792.65	0.681
792.83	0.686
793.01	0.696
793.19	0.694
793.37	0.679
793.54	0.675
793.72	0.689
793.90	0.688
794.08	0.674
794.26	0.677
794.43	0.689
794.61	0.670
794.79	0.657
794.97	0.655
795.15	0.662
795.32	0.666
795.50	0.654
795.68	0.648
795.86	0.654
796.04	0.657
796.21	0.649
796.39	0.647
796.57	0.666
796.75	0.675
796.92	0.674
797.10	0.679
797.28	0.684
797.46	0.689
797.64	0.689
797.81	0.697
797.99	0.702
798.17	0.704
798.35	0.697
798.52	0.699
798.70	0.698
798.88	0.707
799.06	0.704
799.23	0.708
799.41	0.718
799.59	0.708
799.77	0.695
799.94	0.703
800.12	0.716
800.30	0.737
800.48	0.735
800.65	0.733
800.83	0.722
801.01	0.714
801.19	0.712
801.36	0.709
801.54	0.717
801.72	0.728
801.90	0.713
802.07	0.708
802.25	0.691
802.43	0.673
802.60	0.670
802.78	0.679
802.96	0.686
803.14	0.678
803.31	0.672
803.49	0.672
803.67	0.668
803.84	0.672
804.02	0.661
804.20	0.666
804.38	0.670
804.55	0.667
804.73	0.650
804.91	0.649
805.08	0.663
805.26	0.658
805.44	0.719
805.61	0.723
805.79	0.725
805.97	0.725
806.15	0.714
806.32	0.711
806.50	0.720
806.68	0.718
806.85	0.709
807.03	0.700
807.21	0.722
807.38	0.656
807.56	0.642
807.74	0.652
807.91	0.661
808.09	0.662
808.27	0.682
808.44	0.711
808.62	0.725
808.80	0.727
808.97	0.720
809.15	0.712
809.33	0.732
809.50	0.740
809.68	0.725
809.86	0.731
810.03	0.769
810.21	0.744
810.39	0.724
810.56	0.730
810.74	0.757
810.91	0.838
811.09	0.826
811.27	0.850
811.44	0.860
811.62	0.861
811.80	0.837
811.97	0.803
812.15	0.802
812.33	0.794
812.50	0.776
812.68	0.763
812.85	0.704
813.03	0.707
813.21	0.671
813.38	0.664
813.56	0.667
813.74	0.680
813.91	0.687
814.09	0.722
814.26	0.719
814.44	0.722
814.62	0.709
814.79	0.712
814.97	0.718
815.14	0.721
815.32	0.726
815.50	0.745
815.67	0.751
815.85	0.741
816.02	0.727
816.20	0.733
816.38	0.753
816.55	0.761
816.73	0.759
816.90	0.773
817.08	0.810
817.26	0.815
817.43	0.789
817.61	0.813
817.78	0.837
817.96	0.817
818.13	0.803
818.31	0.801
818.49	0.819
818.66	0.808
818.84	0.791
819.01	0.768
819.19	0.780
819.36	0.785
819.54	0.752
819.71	0.799
819.89	0.817
820.07	0.834
820.24	0.827
820.42	0.825
820.59	0.852
820.77	0.877
820.94	0.866
821.12	0.885
821.29	0.910
821.47	0.909
821.64	0.832
821.82	0.849
822.00	0.848
822.17	0.843
822.35	0.835
822.52	0.834
822.70	0.825
822.87	0.837
823.05	0.811
823.22	0.821
823.40	0.860
823.57	0.887
823.75	0.860
823.92	0.890
824.10	0.923
824.27	0.972
824.45	0.962
824.62	1.044
824.80	1.073
824.97	1.097
825.15	1.081
825.32	1.104
825.50	1.114
825.67	1.132
825.85	1.097
826.02	1.117
826.20	1.157
826.37	1.364
826.55	1.222
826.72	1.583
826.90	1.798
827.07	2.032
827.25	1.766
827.42	-0.000
827.60	-0.000
827.77	-0.000
827.95	-0.000
828.12	-0.000
828.30	-0.000
828.47	-0.000
828.65	1.906
828.82	2.684
829.00	-0.000
829.17	-0.000
829.34	-0.000
829.52	-0.000
829.69	-0.000
829.87	-0.000
830.04	-0.000
830.22	-0.000
830.39	-0.000
830.57	-0.000
830.74	-0.000
830.92	-0.000
831.09	-0.000
831.26	-0.000
831.44	-0.000
831.61	-0.000
831.79	-0.000
831.96	-0.000
832.14	-0.000
832.31	-0.000
832.49	-0.000
832.66	-0.000
832.83	-0.000
833.01	-0.000
833.18	-0.000
833.36	-0.000
833.53	-0.000
833.70	-0.000
833.88	-0.000
834.05	-0.000
834.23	-0.000
834.40	-0.000
834.58	-0.000
834.75	-0.000
834.92	-0.000
835.10	-0.000
835.27	-0.000
835.45	-0.000
835.62	-0.000
835.79	-0.000
835.97	-0.000
836.14	-0.000
836.32	-0.000
836.49	-0.000
836.66	-0.000
836.84	-0.000
837.01	-0.000
837.18	-0.000
837.36	-0.000
837.53	-0.000
837.71	-0.000
837.88	-0.000
838.05	-0.000
838.23	-0.000
838.40	-0.000
838.58	-0.000
838.75	-0.000
838.92	-0.000
839.10	-0.000
839.27	-0.000
839.44	-0.000
839.62	-0.000
839.79	-0.000
839.96	-0.000
840.14	-0.000
840.31	-0.000
840.48	-0.000
840.66	-0.000
840.83	-0.000
841.01	-0.000
841.18	-0.000
841.35	-0.000
841.53	-0.000
841.70	-0.000
841.87	-0.000
842.05	-0.000
842.22	-0.000
842.39	-0.000
842.57	-0.000
842.74	-0.000
842.91	-0.000
843.09	-0.000
843.26	-0.000
843.43	-0.000
843.60	-0.000
843.78	-0.000
843.95	-0.000
844.12	-0.000
844.30	-0.000
844.47	-0.000
844.64	-0.000
844.82	-0.000
844.99	-0.000
845.16	-0.000
845.34	-0.000
845.51	-0.000
845.68	-0.000
845.85	-0.000
846.03	-0.000
846.20	-0.000
846.37	-0.000
846.55	-0.000
846.72	-0.000
846.89	-0.000
847.06	-0.000
847.24	-0.000
847.41	-0.000
847.58	-0.000
847.76	-0.000
847.93	-0.000
848.10	-0.000
848.27	-0.000
848.45	-0.000
848.62	-0.000
848.79	-0.000
848.97	-0.000
849.14	-0.000
849.31	-0.000
849.48	-0.000
849.66	-0.000
849.83	-0.000
850.00	-0.000
850.17	-0.000
850.35	-0.000
850.52	-0.000
850.69	-0.000
850.86	-0.000
851.04	-0.000
851.21	-0.000
851.38	-0.000
851.55	-0.000
851.72	-0.000
851.90	-0.000
852.07	-0.000
852.24	-0.000
852.41	-0.000
852.59	-0.000
852.76	-0.000
852.93	-0.000
853.10	-0.000
853.28	-0.000
853.45	-0.000
853.62	-0.000
853.79	-0.000
853.96	-0.000
854.14	-0.000
854.31	-0.000
854.48	-0.000
854.65	-0.000
854.82	-0.000
855.00	-0.000
855.17	-0.000
855.34	-0.000
855.51	-0.000
855.68	-0.000
855.86	-0.000
856.03	-0.000
856.20	-0.000
856.37	-0.000
856.54	-0.000
856.72	-0.000
856.89	-0.000
857.06	-0.000
857.23	-0.000
857.40	-0.000
857.57	-0.000
857.75	-0.000
857.92	-0.000
858.09	-0.000
858.26	-0.000
858.43	-0.000
858.60	-0.000
858.78	-0.000
858.95	-0.000
859.12	-0.000
859.29	-0.000
859.46	-0.000
859.63	-0.000
859.81	-0.000
859.98	-0.000
860.15	-0.000
860.32	-0.000
860.49	-0.000
860.66	-0.000
860.83	-0.000
861.01	-0.000
861.18	-0.000
861.35	-0.000
861.52	-0.000
861.69	-0.000
861.86	-0.000
862.03	-0.000
862.21	-0.000
862.38	-0.000
862.55	-0.000
862.72	-0.000
862.89	-0.000
863.06	-0.000
863.23	-0.000
863.40	-0.000
863.58	-0.000
863.75	-0.000
863.92	-0.000
864.09	-0.000
864.26	-0.000
864.43	-0.000
864.60	-0.000
864.77	-0.000
864.94	-0.000
865.11	-0.000
865.29	-0.000
865.46	-0.000
865.63	-0.000
865.80	-0.000
865.97	-0.000
866.14	-0.000
866.31	-0.000
866.48	-0.000
866.65	-0.000
866.82	-0.000
866.99	-0.000
867.16	-0.000
867.34	-0.000
867.51	-0.000
867.68	-0.000
867.85	-0.000
868.02	-0.000
868.19	-0.000
868.36	-0.000
868.53	-0.000
868.70	-0.000
868.87	-0.000
869.04	-0.000
869.21	-0.000
869.38	-0.000
869.55	-0.000
869.72	-0.000
869.89	-0.000
870.06	-0.000
870.24	-0.000
870.41	-0.000
870.58	-0.000
870.75	-0.000
870.92	-0.000
871.09	-0.000
871.26	-0.000
871.43	-0.000
871.60	-0.000
871.77	-0.000
871.94	-0.000
872.11	-0.000
872.28	-0.000
872.45	-0.000
872.62	-0.000
872.79	-0.000
872.96	-0.000
873.13	-0.000
873.30	-0.000
873.47	-0.000
873.64	-0.000
873.81	-0.000
873.98	-0.000
874.15	-0.000
874.32	-0.000
874.49	-0.000
874.66	-0.000
874.83	-0.000
875.00	-0.000
875.17	-0.000
875.34	-0.000
875.51	-0.000
875.68	-0.000
875.85	-0.000
876.02	-0.000
876.19	-0.000
876.36	-0.000
876.53	-0.000
876.70	-0.000
876.87	-0.000
877.04	-0.000
877.21	-0.000
877.38	-0.000
877.55	-0.000
877.72	-0.000
877.89	-0.000
878.06	-0.000
878.23	-0.000
878.39	-0.000
878.56	-0.000
878.73	-0.000
878.90	-0.000
879.07	-0.000
879.24	-0.000
879.41	-0.000
879.58	-0.000
879.75	-0.000
879.92	-0.000
880.09	-0.000
880.26	-0.000
880.43	-0.000
880.60	-0.000
880.77	-0.000
880.94	-0.000
881.11	-0.000
881.27	-0.000
881.44	-0.000
881.61	-0.000
881.78	-0.000
881.95	-0.000
882.12	-0.000
882.29	-0.000
882.46	-0.000
882.63	-0.000
882.80	-0.000
882.97	-0.000
883.14	-0.000
883.30	-0.000
883.47	-0.000
883.64	-0.000
883.81	-0.000
883.98	-0.000
884.15	-0.000
884.32	-0.000
884.49	-0.000
884.66	-0.000
884.82	-0.000
884.99	-0.000
885.16	-0.000
885.33	-0.000
885.50	-0.000
885.67	-0.000
885.84	-0.000
886.01	-0.000
886.17	-0.000
886.34	-0.000
886.51	-0.000
886.68	-0.000
886.85	-0.000
887.02	-0.000
887.19	-0.000
887.36	-0.000
887.52	-0.000
887.69	-0.000
887.86	-0.000
888.03	-0.000
888.20	-0.000
888.37	-0.000
888.54	-0.000
888.70	-0.000
888.87	-0.000
889.04	-0.000
889.21	-0.000
889.38	-0.000
889.55	-0.000
889.71	-0.000
889.88	-0.000
890.05	-0.000
890.22	-0.000
890.39	-0.000
>>>>>End Processed Spectral Data<<<<<
