SpectraSuite Data File
++++++++++++++++++++++++++++++++++++
Date: Fri Jun 19 15:48:46 CEST 2015
User: introlabs
Dark Spectrum Present: Yes
Reference Spectrum Present: Yes
Number of Sampled Component Spectra: 1
Spectrometers: USB4H08886
Integration Time (usec): 745692 (USB4H08886)
Spectra Averaged: 5 (USB4H08886)
Boxcar Smoothing: 5 (USB4H08886)
Correct for Electrical Dark: Yes (USB4H08886)
Strobe/Lamp Enabled: No (USB4H08886)
Correct for Detector Non-linearity: Yes (USB4H08886)
Correct for Stray Light: Yes (USB4H08886)
Number of Pixels in Processed Spectrum: 3648
>>>>>Begin Processed Spectral Data<<<<<
178.14	-0.000
178.36	-0.000
178.57	-0.000
178.79	-0.000
179.01	-0.000
179.22	-0.000
179.44	-0.000
179.65	-0.000
179.87	-0.000
180.08	-0.000
180.30	-0.000
180.52	-0.000
180.73	-0.000
180.95	-0.000
181.16	-0.000
181.38	-0.000
181.59	-0.000
181.81	-0.000
182.03	-0.000
182.24	-0.000
182.46	-0.000
182.67	-0.000
182.89	-0.000
183.10	-0.000
183.32	-0.000
183.54	-0.000
183.75	-0.000
183.97	-0.000
184.18	-0.000
184.40	-0.000
184.61	-0.000
184.83	-0.000
185.04	-0.000
185.26	-0.000
185.48	-0.000
185.69	-0.000
185.91	-0.000
186.12	-0.000
186.34	-0.000
186.55	-0.000
186.77	-0.000
186.98	-0.000
187.20	-0.000
187.42	-0.000
187.63	-0.000
187.85	-0.000
188.06	-0.000
188.28	-0.000
188.49	-0.000
188.71	-0.000
188.92	-0.000
189.14	-0.000
189.36	-0.000
189.57	-0.000
189.79	-0.000
190.00	-0.000
190.22	-0.000
190.43	-0.000
190.65	-0.000
190.86	-0.000
191.08	-0.000
191.29	-0.000
191.51	-0.000
191.72	-0.000
191.94	-0.000
192.16	-0.000
192.37	-0.000
192.59	-0.000
192.80	-0.000
193.02	-0.000
193.23	-0.000
193.45	-0.000
193.66	-0.000
193.88	-0.000
194.09	-0.000
194.31	-0.000
194.52	-0.000
194.74	-0.000
194.95	-0.000
195.17	-0.000
195.38	-0.000
195.60	-0.000
195.81	-0.000
196.03	-0.000
196.25	-0.000
196.46	-0.000
196.68	-0.000
196.89	-0.000
197.11	-0.000
197.32	-0.000
197.54	-0.000
197.75	-0.000
197.97	-0.000
198.18	-0.000
198.40	-0.000
198.61	-0.000
198.83	-0.000
199.04	-0.000
199.26	-0.000
199.47	-0.000
199.69	-0.000
199.90	-0.000
200.12	-0.000
200.33	-0.000
200.55	-0.000
200.76	-0.000
200.98	-0.000
201.19	-0.000
201.41	-0.000
201.62	-0.000
201.84	-0.000
202.05	-0.000
202.27	-0.000
202.48	-0.000
202.70	-0.000
202.91	-0.000
203.13	-0.000
203.34	-0.000
203.56	-0.000
203.77	-0.000
203.99	-0.000
204.20	-0.000
204.42	-0.000
204.63	-0.000
204.85	-0.000
205.06	-0.000
205.28	-0.000
205.49	-0.000
205.71	-0.000
205.92	-0.000
206.14	-0.000
206.35	-0.000
206.56	-0.000
206.78	-0.000
206.99	-0.000
207.21	-0.000
207.42	-0.000
207.64	-0.000
207.85	-0.000
208.07	-0.000
208.28	-0.000
208.50	-0.000
208.71	-0.000
208.93	-0.000
209.14	-0.000
209.36	-0.000
209.57	-0.000
209.79	-0.000
210.00	-0.000
210.22	-0.000
210.43	-0.000
210.64	-0.000
210.86	-0.000
211.07	-0.000
211.29	-0.000
211.50	-0.000
211.72	-0.000
211.93	-0.000
212.15	-0.000
212.36	-0.000
212.58	-0.000
212.79	-0.000
213.01	-0.000
213.22	-0.000
213.43	-0.000
213.65	-0.000
213.86	-0.000
214.08	-0.000
214.29	-0.000
214.51	-0.000
214.72	-0.000
214.94	-0.000
215.15	-0.000
215.36	-0.000
215.58	-0.000
215.79	-0.000
216.01	-0.000
216.22	-0.000
216.44	-0.000
216.65	-0.000
216.87	-0.000
217.08	-0.000
217.29	-0.000
217.51	-0.000
217.72	-0.000
217.94	-0.000
218.15	-0.000
218.37	-0.000
218.58	-0.000
218.80	-0.000
219.01	-0.000
219.22	-0.000
219.44	-0.000
219.65	-0.000
219.87	-0.000
220.08	-0.000
220.30	-0.000
220.51	-0.000
220.72	-0.000
220.94	-0.000
221.15	-0.000
221.37	-0.000
221.58	-0.000
221.79	-0.000
222.01	-0.000
222.22	-0.000
222.44	-0.000
222.65	-0.000
222.87	-0.000
223.08	-0.000
223.29	-0.000
223.51	-0.000
223.72	-0.000
223.94	-0.000
224.15	-0.000
224.36	-0.000
224.58	-0.000
224.79	-0.000
225.01	-0.000
225.22	-0.000
225.44	-0.000
225.65	-0.000
225.86	-0.000
226.08	-0.000
226.29	-0.000
226.51	-0.000
226.72	-0.000
226.93	-0.000
227.15	-0.000
227.36	-0.000
227.58	-0.000
227.79	-0.000
228.00	-0.000
228.22	-0.000
228.43	-0.000
228.65	-0.000
228.86	-0.000
229.07	-0.000
229.29	-0.000
229.50	-0.000
229.72	-0.000
229.93	-0.000
230.14	-0.000
230.36	-0.000
230.57	-0.000
230.78	-0.000
231.00	-0.000
231.21	-0.000
231.43	-0.000
231.64	-0.000
231.85	-0.000
232.07	-0.000
232.28	-0.000
232.50	-0.000
232.71	-0.000
232.92	-0.000
233.14	-0.000
233.35	-0.000
233.56	-0.000
233.78	-0.000
233.99	-0.000
234.21	-0.000
234.42	-0.000
234.63	-0.000
234.85	-0.000
235.06	-0.000
235.27	-0.000
235.49	-0.000
235.70	-0.000
235.91	-0.000
236.13	-0.000
236.34	-0.000
236.56	-0.000
236.77	-0.000
236.98	-0.000
237.20	-0.000
237.41	-0.000
237.62	-0.000
237.84	-0.000
238.05	-0.000
238.26	-0.000
238.48	-0.000
238.69	-0.000
238.91	-0.000
239.12	-0.000
239.33	-0.000
239.55	-0.000
239.76	-0.000
239.97	-0.000
240.19	-0.000
240.40	-0.000
240.61	-0.000
240.83	-0.000
241.04	-0.000
241.25	-0.000
241.47	-0.000
241.68	-0.000
241.89	-0.000
242.11	-0.000
242.32	-0.000
242.53	-0.000
242.75	-0.000
242.96	-0.000
243.17	-0.000
243.39	-0.000
243.60	-0.000
243.81	-0.000
244.03	-0.000
244.24	-0.000
244.45	-0.000
244.67	-0.000
244.88	-0.000
245.09	-0.000
245.31	-0.000
245.52	-0.000
245.73	-0.000
245.95	-0.000
246.16	-0.000
246.37	-0.000
246.59	-0.000
246.80	-0.000
247.01	-0.000
247.23	-0.000
247.44	-0.000
247.65	-0.000
247.87	-0.000
248.08	-0.000
248.29	-0.000
248.51	-0.000
248.72	-0.000
248.93	-0.000
249.15	-0.000
249.36	-0.000
249.57	-0.000
249.78	-0.000
250.00	-0.000
250.21	-0.000
250.42	-0.000
250.64	-0.000
250.85	-0.000
251.06	-0.000
251.28	-0.000
251.49	-0.000
251.70	-0.000
251.92	-0.000
252.13	-0.000
252.34	-0.000
252.55	-0.000
252.77	-0.000
252.98	-0.000
253.19	-0.000
253.41	-0.000
253.62	-0.000
253.83	-0.000
254.05	-0.000
254.26	-0.000
254.47	-0.000
254.68	-0.000
254.90	-0.000
255.11	-0.000
255.32	-0.000
255.54	-0.000
255.75	-0.000
255.96	-0.000
256.17	-0.000
256.39	-0.000
256.60	-0.000
256.81	-0.000
257.03	-0.000
257.24	-0.000
257.45	-0.000
257.66	-0.000
257.88	-0.000
258.09	-0.000
258.30	-0.000
258.51	-0.000
258.73	-0.000
258.94	-0.000
259.15	-0.000
259.37	-0.000
259.58	-0.000
259.79	-0.000
260.00	-0.000
260.22	-0.000
260.43	-0.000
260.64	-0.000
260.85	-0.000
261.07	-0.000
261.28	-0.000
261.49	-0.000
261.71	-0.000
261.92	-0.000
262.13	-0.000
262.34	-0.000
262.56	-0.000
262.77	-0.000
262.98	-0.000
263.19	-0.000
263.41	-0.000
263.62	-0.000
263.83	-0.000
264.04	-0.000
264.26	-0.000
264.47	-0.000
264.68	-0.000
264.89	-0.000
265.11	-0.000
265.32	-0.000
265.53	-0.000
265.74	-0.000
265.96	-0.000
266.17	-0.000
266.38	-0.000
266.59	-0.000
266.81	-0.000
267.02	-0.000
267.23	-0.000
267.44	-0.000
267.65	-0.000
267.87	-0.000
268.08	-0.000
268.29	-0.000
268.50	-0.000
268.72	-0.000
268.93	-0.000
269.14	-0.000
269.35	-0.000
269.57	-0.000
269.78	-0.000
269.99	-0.000
270.20	-0.000
270.41	-0.000
270.63	-0.000
270.84	-0.000
271.05	-0.000
271.26	-0.000
271.48	-0.000
271.69	-0.000
271.90	-0.000
272.11	-0.000
272.32	-0.000
272.54	-0.000
272.75	-0.000
272.96	-0.000
273.17	-0.000
273.39	-0.000
273.60	-0.000
273.81	-0.000
274.02	-0.000
274.23	-0.000
274.45	-0.000
274.66	-0.000
274.87	-0.000
275.08	-0.000
275.29	-0.000
275.51	-0.000
275.72	-0.000
275.93	-0.000
276.14	-0.000
276.35	-0.000
276.57	-0.000
276.78	-0.000
276.99	-0.000
277.20	-0.000
277.41	-0.000
277.63	-0.000
277.84	-0.000
278.05	-0.000
278.26	-0.000
278.47	-0.000
278.69	-0.000
278.90	-0.000
279.11	-0.000
279.32	-0.000
279.53	-0.000
279.74	-0.000
279.96	-0.000
280.17	-0.000
280.38	-0.000
280.59	-0.000
280.80	-0.000
281.02	-0.000
281.23	-0.000
281.44	-0.000
281.65	-0.000
281.86	-0.000
282.07	-0.000
282.29	-0.000
282.50	-0.000
282.71	-0.000
282.92	-0.000
283.13	-0.000
283.35	-0.000
283.56	-0.000
283.77	-0.000
283.98	-0.000
284.19	-0.000
284.40	-0.000
284.62	-0.000
284.83	-0.000
285.04	-0.000
285.25	-0.000
285.46	-0.000
285.67	-0.000
285.88	-0.000
286.10	-0.000
286.31	-0.000
286.52	-0.000
286.73	-0.000
286.94	-0.000
287.15	-0.000
287.37	-0.000
287.58	-0.000
287.79	-0.000
288.00	-0.000
288.21	-0.000
288.42	-0.000
288.63	-0.000
288.85	-0.000
289.06	-0.000
289.27	-0.000
289.48	-0.000
289.69	-0.000
289.90	-0.000
290.11	-0.000
290.33	-0.000
290.54	-0.000
290.75	-0.000
290.96	-0.000
291.17	-0.000
291.38	-0.000
291.59	-0.000
291.81	-0.000
292.02	-0.000
292.23	-0.000
292.44	-0.000
292.65	2.819
292.86	-0.000
293.07	-0.000
293.28	2.218
293.50	2.562
293.71	-0.000
293.92	3.043
294.13	-0.000
294.34	-0.000
294.55	-0.000
294.76	-0.000
294.97	3.201
295.19	-0.000
295.40	-0.000
295.61	-0.000
295.82	2.972
296.03	2.331
296.24	2.380
296.45	1.840
296.66	1.637
296.87	1.648
297.09	1.676
297.30	1.789
297.51	1.577
297.72	1.560
297.93	1.611
298.14	1.586
298.35	1.563
298.56	1.549
298.77	1.626
298.99	1.606
299.20	1.602
299.41	1.583
299.62	1.535
299.83	1.525
300.04	1.487
300.25	1.478
300.46	1.505
300.67	1.479
300.88	1.442
301.10	1.447
301.31	1.502
301.52	1.455
301.73	1.421
301.94	1.426
302.15	1.430
302.36	1.391
302.57	1.349
302.78	1.354
302.99	1.386
303.20	1.406
303.41	1.336
303.63	1.318
303.84	1.322
304.05	1.317
304.26	1.269
304.47	1.274
304.68	1.274
304.89	1.265
305.10	1.235
305.31	1.224
305.52	1.256
305.73	1.251
305.94	1.222
306.15	1.210
306.37	1.229
306.58	1.236
306.79	1.217
307.00	1.236
307.21	1.269
307.42	1.261
307.63	1.235
307.84	1.206
308.05	1.237
308.26	1.237
308.47	1.222
308.68	1.219
308.89	1.216
309.10	1.212
309.31	1.179
309.52	1.169
309.73	1.179
309.95	1.173
310.16	1.147
310.37	1.137
310.58	1.149
310.79	1.149
311.00	1.147
311.21	1.150
311.42	1.148
311.63	1.144
311.84	1.133
312.05	1.131
312.26	1.150
312.47	1.162
312.68	1.141
312.89	1.126
313.10	1.129
313.31	1.105
313.52	1.108
313.73	1.110
313.94	1.111
314.15	1.095
314.36	1.078
314.57	1.070
314.78	1.058
314.99	1.053
315.21	1.045
315.42	1.050
315.63	1.059
315.84	1.039
316.05	1.028
316.26	1.035
316.47	1.049
316.68	1.047
316.89	1.032
317.10	1.050
317.31	1.054
317.52	1.055
317.73	1.039
317.94	1.038
318.15	1.078
318.36	1.077
318.57	1.062
318.78	1.051
318.99	1.078
319.20	1.076
319.41	1.048
319.62	1.049
319.83	1.063
320.04	1.057
320.25	1.047
320.46	1.015
320.67	1.016
320.88	1.013
321.09	1.002
321.30	0.990
321.51	1.004
321.72	1.001
321.93	0.987
322.14	0.978
322.35	1.000
322.56	1.003
322.77	0.993
322.98	1.004
323.19	1.008
323.40	1.014
323.61	0.996
323.82	0.990
324.03	0.995
324.24	0.993
324.45	0.982
324.66	0.964
324.87	0.958
325.08	0.958
325.29	0.942
325.50	0.935
325.71	0.940
325.92	0.947
326.13	0.935
326.34	0.935
326.55	0.942
326.76	0.942
326.97	0.935
327.18	0.931
327.39	0.953
327.60	0.954
327.80	0.956
328.01	0.954
328.22	0.952
328.43	0.955
328.64	0.945
328.85	0.950
329.06	0.951
329.27	0.949
329.48	0.946
329.69	0.929
329.90	0.936
330.11	0.930
330.32	0.926
330.53	0.920
330.74	0.919
330.95	0.917
331.16	0.904
331.37	0.911
331.58	0.911
331.79	0.910
332.00	0.902
332.21	0.897
332.42	0.899
332.63	0.890
332.83	0.888
333.04	0.889
333.25	0.900
333.46	0.900
333.67	0.888
333.88	0.891
334.09	0.900
334.30	0.897
334.51	0.889
334.72	0.886
334.93	0.888
335.14	0.887
335.35	0.882
335.56	0.878
335.77	0.883
335.98	0.882
336.18	0.876
336.39	0.869
336.60	0.871
336.81	0.870
337.02	0.871
337.23	0.875
337.44	0.876
337.65	0.877
337.86	0.868
338.07	0.864
338.28	0.867
338.49	0.865
338.70	0.861
338.91	0.867
339.11	0.874
339.32	0.870
339.53	0.861
339.74	0.858
339.95	0.854
340.16	0.852
340.37	0.846
340.58	0.844
340.79	0.846
341.00	0.846
341.21	0.836
341.41	0.836
341.62	0.836
341.83	0.837
342.04	0.833
342.25	0.844
342.46	0.847
342.67	0.847
342.88	0.841
343.09	0.841
343.30	0.846
343.50	0.849
343.71	0.840
343.92	0.838
344.13	0.840
344.34	0.839
344.55	0.824
344.76	0.823
344.97	0.826
345.18	0.826
345.38	0.824
345.59	0.819
345.80	0.819
346.01	0.817
346.22	0.814
346.43	0.810
346.64	0.817
346.85	0.817
347.06	0.810
347.26	0.809
347.47	0.811
347.68	0.806
347.89	0.803
348.10	0.797
348.31	0.803
348.52	0.803
348.73	0.801
348.93	0.798
349.14	0.799
349.35	0.800
349.56	0.796
349.77	0.793
349.98	0.797
350.19	0.796
350.39	0.792
350.60	0.788
350.81	0.802
351.02	0.801
351.23	0.797
351.44	0.800
351.65	0.802
351.86	0.799
352.06	0.798
352.27	0.798
352.48	0.797
352.69	0.797
352.90	0.793
353.11	0.780
353.31	0.786
353.52	0.783
353.73	0.775
353.94	0.777
354.15	0.782
354.36	0.781
354.57	0.773
354.77	0.776
354.98	0.775
355.19	0.775
355.40	0.775
355.61	0.780
355.82	0.783
356.02	0.782
356.23	0.776
356.44	0.777
356.65	0.780
356.86	0.781
357.07	0.775
357.27	0.779
357.48	0.780
357.69	0.776
357.90	0.762
358.11	0.758
358.32	0.761
358.52	0.764
358.73	0.755
358.94	0.757
359.15	0.761
359.36	0.762
359.56	0.758
359.77	0.756
359.98	0.763
360.19	0.763
360.40	0.761
360.61	0.762
360.81	0.760
361.02	0.762
361.23	0.755
361.44	0.753
361.65	0.753
361.85	0.752
362.06	0.750
362.27	0.751
362.48	0.750
362.69	0.751
362.89	0.747
363.10	0.749
363.31	0.752
363.52	0.754
363.73	0.750
363.93	0.749
364.14	0.750
364.35	0.752
364.56	0.743
364.77	0.745
364.97	0.747
365.18	0.747
365.39	0.743
365.60	0.740
365.81	0.741
366.01	0.740
366.22	0.738
366.43	0.737
366.64	0.738
366.84	0.743
367.05	0.741
367.26	0.740
367.47	0.741
367.68	0.741
367.88	0.740
368.09	0.738
368.30	0.740
368.51	0.740
368.71	0.741
368.92	0.744
369.13	0.742
369.34	0.741
369.55	0.741
369.75	0.741
369.96	0.746
370.17	0.745
370.38	0.743
370.58	0.742
370.79	0.746
371.00	0.745
371.21	0.737
371.41	0.743
371.62	0.746
371.83	0.742
372.04	0.740
372.24	0.733
372.45	0.734
372.66	0.734
372.87	0.731
373.07	0.728
373.28	0.728
373.49	0.732
373.70	0.723
373.90	0.722
374.11	0.730
374.32	0.730
374.53	0.730
374.73	0.730
374.94	0.732
375.15	0.733
375.36	0.731
375.56	0.740
375.77	0.739
375.98	0.740
376.19	0.738
376.39	0.733
376.60	0.736
376.81	0.735
377.02	0.734
377.22	0.733
377.43	0.733
377.64	0.734
377.84	0.726
378.05	0.730
378.26	0.736
378.47	0.735
378.67	0.732
378.88	0.730
379.09	0.730
379.30	0.731
379.50	0.729
379.71	0.731
379.92	0.733
380.12	0.732
380.33	0.724
380.54	0.720
380.75	0.727
380.95	0.727
381.16	0.725
381.37	0.725
381.57	0.726
381.78	0.726
381.99	0.726
382.20	0.726
382.40	0.728
382.61	0.729
382.82	0.727
383.02	0.720
383.23	0.723
383.44	0.723
383.64	0.722
383.85	0.724
384.06	0.727
384.27	0.725
384.47	0.724
384.68	0.725
384.89	0.730
385.09	0.730
385.30	0.730
385.51	0.729
385.71	0.732
385.92	0.732
386.13	0.731
386.33	0.733
386.54	0.734
386.75	0.733
386.95	0.729
387.16	0.725
387.37	0.727
387.58	0.727
387.78	0.725
387.99	0.723
388.20	0.725
388.40	0.723
388.61	0.719
388.82	0.722
389.02	0.723
389.23	0.723
389.44	0.721
389.64	0.722
389.85	0.732
390.06	0.732
390.26	0.734
390.47	0.733
390.68	0.735
390.88	0.733
391.09	0.729
391.30	0.729
391.50	0.729
391.71	0.729
391.92	0.727
392.12	0.719
392.33	0.719
392.53	0.719
392.74	0.720
392.95	0.719
393.15	0.721
393.36	0.724
393.57	0.722
393.77	0.725
393.98	0.727
394.19	0.726
394.39	0.726
394.60	0.728
394.81	0.730
395.01	0.728
395.22	0.727
395.43	0.729
395.63	0.733
395.84	0.734
396.04	0.732
396.25	0.733
396.46	0.735
396.66	0.734
396.87	0.732
397.08	0.729
397.28	0.731
397.49	0.732
397.69	0.729
397.90	0.723
398.11	0.724
398.31	0.725
398.52	0.722
398.73	0.723
398.93	0.722
399.14	0.721
399.34	0.721
399.55	0.721
399.76	0.721
399.96	0.721
400.17	0.720
400.37	0.719
400.58	0.726
400.79	0.727
400.99	0.725
401.20	0.730
401.41	0.732
401.61	0.733
401.82	0.738
402.02	0.738
402.23	0.740
402.44	0.740
402.64	0.740
402.85	0.735
403.05	0.733
403.26	0.732
403.47	0.727
403.67	0.726
403.88	0.727
404.08	0.721
404.29	0.720
404.50	0.719
404.70	0.719
404.91	0.718
405.11	0.716
405.32	0.716
405.52	0.716
405.73	0.716
405.94	0.714
406.14	0.717
406.35	0.719
406.55	0.720
406.76	0.718
406.97	0.719
407.17	0.722
407.38	0.722
407.58	0.720
407.79	0.723
407.99	0.725
408.20	0.726
408.41	0.722
408.61	0.720
408.82	0.720
409.02	0.720
409.23	0.718
409.43	0.717
409.64	0.717
409.84	0.718
410.05	0.715
410.26	0.713
410.46	0.712
410.67	0.712
410.87	0.714
411.08	0.716
411.28	0.718
411.49	0.719
411.69	0.717
411.90	0.718
412.11	0.720
412.31	0.720
412.52	0.719
412.72	0.720
412.93	0.720
413.13	0.719
413.34	0.715
413.54	0.716
413.75	0.718
413.95	0.718
414.16	0.715
414.37	0.717
414.57	0.718
414.78	0.721
414.98	0.719
415.19	0.720
415.39	0.718
415.60	0.720
415.80	0.719
416.01	0.717
416.21	0.718
416.42	0.718
416.62	0.713
416.83	0.713
417.03	0.712
417.24	0.712
417.44	0.710
417.65	0.709
417.86	0.710
418.06	0.708
418.27	0.706
418.47	0.709
418.68	0.709
418.88	0.710
419.09	0.709
419.29	0.709
419.50	0.710
419.70	0.709
419.91	0.708
420.11	0.706
420.32	0.708
420.52	0.707
420.73	0.706
420.93	0.706
421.14	0.707
421.34	0.706
421.55	0.703
421.75	0.703
421.96	0.704
422.16	0.704
422.37	0.703
422.57	0.700
422.78	0.702
422.98	0.698
423.19	0.697
423.39	0.695
423.60	0.698
423.80	0.699
424.01	0.698
424.21	0.700
424.42	0.700
424.62	0.701
424.83	0.700
425.03	0.700
425.23	0.702
425.44	0.702
425.64	0.703
425.85	0.701
426.05	0.701
426.26	0.702
426.46	0.698
426.67	0.698
426.87	0.703
427.08	0.703
427.28	0.701
427.49	0.702
427.69	0.702
427.90	0.701
428.10	0.699
428.31	0.699
428.51	0.700
428.71	0.700
428.92	0.701
429.12	0.698
429.33	0.699
429.53	0.703
429.74	0.707
429.94	0.707
430.15	0.706
430.35	0.706
430.56	0.703
430.76	0.702
430.96	0.702
431.17	0.699
431.37	0.696
431.58	0.694
431.78	0.691
431.99	0.683
432.19	0.686
432.40	0.688
432.60	0.688
432.80	0.690
433.01	0.689
433.21	0.689
433.42	0.691
433.62	0.692
433.83	0.692
434.03	0.694
434.23	0.697
434.44	0.696
434.64	0.694
434.85	0.698
435.05	0.700
435.26	0.699
435.46	0.698
435.66	0.698
435.87	0.698
436.07	0.698
436.28	0.693
436.48	0.690
436.69	0.689
436.89	0.689
437.09	0.683
437.30	0.682
437.50	0.682
437.71	0.694
437.91	0.692
438.11	0.693
438.32	0.697
438.52	0.697
438.73	0.696
438.93	0.695
439.13	0.695
439.34	0.699
439.54	0.697
439.75	0.697
439.95	0.687
440.15	0.692
440.36	0.691
440.56	0.688
440.77	0.688
440.97	0.689
441.17	0.688
441.38	0.689
441.58	0.686
441.79	0.685
441.99	0.684
442.19	0.683
442.40	0.680
442.60	0.680
442.81	0.678
443.01	0.678
443.21	0.678
443.42	0.677
443.62	0.675
443.82	0.674
444.03	0.675
444.23	0.675
444.44	0.675
444.64	0.674
444.84	0.675
445.05	0.675
445.25	0.673
445.45	0.673
445.66	0.675
445.86	0.674
446.06	0.676
446.27	0.675
446.47	0.678
446.68	0.677
446.88	0.675
447.08	0.675
447.29	0.677
447.49	0.677
447.69	0.676
447.90	0.675
448.10	0.677
448.30	0.675
448.51	0.676
448.71	0.674
448.91	0.675
449.12	0.674
449.32	0.676
449.52	0.675
449.73	0.679
449.93	0.678
450.14	0.679
450.34	0.678
450.54	0.680
450.75	0.678
450.95	0.677
451.15	0.677
451.36	0.679
451.56	0.676
451.76	0.675
451.97	0.671
452.17	0.672
452.37	0.670
452.58	0.667
452.78	0.667
452.98	0.668
453.19	0.668
453.39	0.668
453.59	0.666
453.79	0.667
454.00	0.667
454.20	0.667
454.40	0.667
454.61	0.669
454.81	0.670
455.01	0.669
455.22	0.670
455.42	0.672
455.62	0.670
455.83	0.670
456.03	0.673
456.23	0.673
456.44	0.674
456.64	0.673
456.84	0.673
457.04	0.672
457.25	0.672
457.45	0.669
457.65	0.668
457.86	0.668
458.06	0.667
458.26	0.662
458.47	0.662
458.67	0.663
458.87	0.663
459.07	0.661
459.28	0.663
459.48	0.664
459.68	0.664
459.89	0.663
460.09	0.662
460.29	0.664
460.49	0.665
460.70	0.664
460.90	0.664
461.10	0.664
461.31	0.664
461.51	0.662
461.71	0.664
461.91	0.665
462.12	0.665
462.32	0.664
462.52	0.664
462.72	0.667
462.93	0.666
463.13	0.665
463.33	0.666
463.53	0.668
463.74	0.667
463.94	0.663
464.14	0.663
464.35	0.665
464.55	0.665
464.75	0.663
464.95	0.661
465.16	0.662
465.36	0.661
465.56	0.661
465.76	0.659
465.97	0.659
466.17	0.660
466.37	0.658
466.57	0.659
466.78	0.659
466.98	0.659
467.18	0.657
467.38	0.656
467.59	0.658
467.79	0.659
467.99	0.659
468.19	0.661
468.39	0.663
468.60	0.663
468.80	0.661
469.00	0.663
469.20	0.663
469.41	0.664
469.61	0.663
469.81	0.663
470.01	0.662
470.22	0.662
470.42	0.661
470.62	0.659
470.82	0.659
471.02	0.659
471.23	0.657
471.43	0.657
471.63	0.660
471.83	0.659
472.04	0.658
472.24	0.657
472.44	0.663
472.64	0.663
472.84	0.661
473.05	0.661
473.25	0.664
473.45	0.664
473.65	0.662
473.85	0.662
474.06	0.663
474.26	0.662
474.46	0.663
474.66	0.659
474.86	0.660
475.07	0.660
475.27	0.659
475.47	0.656
475.67	0.656
475.87	0.659
476.08	0.656
476.28	0.657
476.48	0.658
476.68	0.656
476.88	0.654
477.09	0.656
477.29	0.657
477.49	0.657
477.69	0.656
477.89	0.656
478.09	0.655
478.30	0.657
478.50	0.654
478.70	0.654
478.90	0.654
479.10	0.657
479.31	0.658
479.51	0.656
479.71	0.657
479.91	0.657
480.11	0.656
480.31	0.656
480.52	0.655
480.72	0.655
480.92	0.654
481.12	0.653
481.32	0.650
481.52	0.648
481.72	0.649
481.93	0.652
482.13	0.653
482.33	0.652
482.53	0.650
482.73	0.651
482.93	0.652
483.14	0.652
483.34	0.651
483.54	0.652
483.74	0.651
483.94	0.650
484.14	0.647
484.34	0.647
484.55	0.647
484.75	0.647
484.95	0.645
485.15	0.644
485.35	0.644
485.55	0.643
485.75	0.641
485.96	0.642
486.16	0.643
486.36	0.643
486.56	0.641
486.76	0.641
486.96	0.641
487.16	0.640
487.36	0.638
487.57	0.638
487.77	0.638
487.97	0.638
488.17	0.637
488.37	0.636
488.57	0.636
488.77	0.636
488.97	0.634
489.18	0.634
489.38	0.637
489.58	0.638
489.78	0.638
489.98	0.637
490.18	0.637
490.38	0.638
490.58	0.637
490.78	0.638
490.98	0.640
491.19	0.640
491.39	0.639
491.59	0.638
491.79	0.641
491.99	0.641
492.19	0.642
492.39	0.644
492.59	0.644
492.79	0.646
492.99	0.646
493.20	0.646
493.40	0.646
493.60	0.648
493.80	0.646
494.00	0.644
494.20	0.644
494.40	0.643
494.60	0.641
494.80	0.645
495.00	0.644
495.20	0.642
495.40	0.641
495.61	0.642
495.81	0.642
496.01	0.645
496.21	0.646
496.41	0.645
496.61	0.646
496.81	0.645
497.01	0.640
497.21	0.639
497.41	0.640
497.61	0.640
497.81	0.638
498.01	0.638
498.21	0.635
498.41	0.633
498.61	0.633
498.82	0.635
499.02	0.637
499.22	0.637
499.42	0.637
499.62	0.638
499.82	0.638
500.02	0.640
500.22	0.639
500.42	0.641
500.62	0.641
500.82	0.642
501.02	0.640
501.22	0.640
501.42	0.640
501.62	0.642
501.82	0.641
502.02	0.642
502.22	0.642
502.42	0.644
502.62	0.641
502.82	0.642
503.02	0.642
503.22	0.642
503.42	0.640
503.63	0.640
503.83	0.637
504.03	0.637
504.23	0.635
504.43	0.635
504.63	0.636
504.83	0.635
505.03	0.634
505.23	0.636
505.43	0.637
505.63	0.638
505.83	0.638
506.03	0.640
506.23	0.641
506.43	0.642
506.63	0.641
506.83	0.640
507.03	0.642
507.23	0.642
507.43	0.639
507.63	0.640
507.83	0.639
508.03	0.639
508.23	0.639
508.43	0.638
508.63	0.639
508.83	0.640
509.03	0.641
509.23	0.640
509.43	0.641
509.63	0.642
509.83	0.640
510.03	0.643
510.23	0.644
510.43	0.645
510.63	0.645
510.83	0.645
511.03	0.646
511.23	0.643
511.43	0.643
511.63	0.644
511.83	0.646
512.03	0.647
512.22	0.644
512.42	0.644
512.62	0.645
512.82	0.644
513.02	0.644
513.22	0.644
513.42	0.645
513.62	0.648
513.82	0.646
514.02	0.646
514.22	0.646
514.42	0.646
514.62	0.645
514.82	0.645
515.02	0.648
515.22	0.651
515.42	0.650
515.62	0.653
515.82	0.651
516.02	0.653
516.22	0.653
516.42	0.654
516.62	0.656
516.82	0.657
517.01	0.656
517.21	0.655
517.41	0.658
517.61	0.658
517.81	0.654
518.01	0.653
518.21	0.653
518.41	0.652
518.61	0.651
518.81	0.651
519.01	0.652
519.21	0.652
519.41	0.651
519.61	0.646
519.81	0.648
520.00	0.649
520.20	0.650
520.40	0.653
520.60	0.654
520.80	0.653
521.00	0.654
521.20	0.655
521.40	0.660
521.60	0.660
521.80	0.659
522.00	0.659
522.20	0.661
522.39	0.660
522.59	0.657
522.79	0.659
522.99	0.660
523.19	0.658
523.39	0.656
523.59	0.654
523.79	0.656
523.99	0.659
524.19	0.658
524.38	0.657
524.58	0.658
524.78	0.658
524.98	0.657
525.18	0.659
525.38	0.660
525.58	0.660
525.78	0.658
525.98	0.657
526.18	0.657
526.37	0.657
526.57	0.659
526.77	0.658
526.97	0.659
527.17	0.659
527.37	0.655
527.57	0.657
527.77	0.659
527.96	0.659
528.16	0.658
528.36	0.659
528.56	0.660
528.76	0.658
528.96	0.658
529.16	0.659
529.36	0.661
529.55	0.662
529.75	0.659
529.95	0.658
530.15	0.659
530.35	0.662
530.55	0.660
530.75	0.660
530.94	0.661
531.14	0.661
531.34	0.660
531.54	0.658
531.74	0.660
531.94	0.664
532.13	0.663
532.33	0.665
532.53	0.664
532.73	0.663
532.93	0.662
533.13	0.663
533.33	0.663
533.52	0.663
533.72	0.667
533.92	0.665
534.12	0.663
534.32	0.662
534.52	0.661
534.71	0.662
534.91	0.664
535.11	0.665
535.31	0.664
535.51	0.666
535.71	0.668
535.90	0.665
536.10	0.666
536.30	0.668
536.50	0.669
536.70	0.669
536.89	0.667
537.09	0.668
537.29	0.669
537.49	0.670
537.69	0.668
537.89	0.669
538.08	0.668
538.28	0.666
538.48	0.667
538.68	0.668
538.88	0.670
539.07	0.670
539.27	0.667
539.47	0.666
539.67	0.666
539.87	0.667
540.06	0.665
540.26	0.666
540.46	0.668
540.66	0.665
540.86	0.663
541.05	0.663
541.25	0.664
541.45	0.665
541.65	0.664
541.84	0.665
542.04	0.666
542.24	0.667
542.44	0.666
542.64	0.668
542.83	0.670
543.03	0.670
543.23	0.668
543.43	0.669
543.62	0.671
543.82	0.672
544.02	0.671
544.22	0.671
544.42	0.673
544.61	0.674
544.81	0.671
545.01	0.670
545.21	0.671
545.40	0.672
545.60	0.670
545.80	0.673
546.00	0.672
546.19	0.671
546.39	0.670
546.59	0.668
546.79	0.669
546.98	0.669
547.18	0.670
547.38	0.671
547.58	0.673
547.77	0.674
547.97	0.670
548.17	0.672
548.37	0.673
548.56	0.673
548.76	0.673
548.96	0.674
549.16	0.676
549.35	0.676
549.55	0.673
549.75	0.673
549.95	0.676
550.14	0.676
550.34	0.675
550.54	0.680
550.73	0.683
550.93	0.684
551.13	0.681
551.33	0.679
551.52	0.680
551.72	0.681
551.92	0.680
552.12	0.681
552.31	0.681
552.51	0.681
552.71	0.677
552.90	0.676
553.10	0.677
553.30	0.677
553.50	0.677
553.69	0.678
553.89	0.678
554.09	0.678
554.28	0.675
554.48	0.676
554.68	0.678
554.87	0.677
555.07	0.674
555.27	0.675
555.47	0.675
555.66	0.676
555.86	0.675
556.06	0.677
556.25	0.677
556.45	0.684
556.65	0.683
556.84	0.686
557.04	0.688
557.24	0.690
557.43	0.689
557.63	0.692
557.83	0.694
558.02	0.694
558.22	0.699
558.42	0.700
558.61	0.693
558.81	0.693
559.01	0.689
559.21	0.690
559.40	0.691
559.60	0.692
559.80	0.688
559.99	0.690
560.19	0.692
560.39	0.686
560.58	0.684
560.78	0.685
560.97	0.688
561.17	0.687
561.37	0.685
561.56	0.685
561.76	0.686
561.96	0.686
562.15	0.684
562.35	0.686
562.55	0.687
562.74	0.686
562.94	0.684
563.14	0.682
563.33	0.683
563.53	0.683
563.73	0.681
563.92	0.682
564.12	0.684
564.31	0.686
564.51	0.684
564.71	0.686
564.90	0.689
565.10	0.690
565.30	0.693
565.49	0.694
565.69	0.695
565.89	0.696
566.08	0.694
566.28	0.696
566.47	0.697
566.67	0.695
566.87	0.693
567.06	0.695
567.26	0.701
567.46	0.696
567.65	0.696
567.85	0.699
568.04	0.701
568.24	0.701
568.44	0.699
568.63	0.697
568.83	0.699
569.02	0.698
569.22	0.694
569.42	0.690
569.61	0.692
569.81	0.690
570.00	0.687
570.20	0.688
570.40	0.688
570.59	0.688
570.79	0.686
570.98	0.684
571.18	0.685
571.38	0.685
571.57	0.683
571.77	0.681
571.96	0.684
572.16	0.682
572.35	0.677
572.55	0.678
572.75	0.676
572.94	0.676
573.14	0.674
573.33	0.675
573.53	0.675
573.73	0.674
573.92	0.672
574.12	0.670
574.31	0.673
574.51	0.674
574.70	0.671
574.90	0.673
575.09	0.675
575.29	0.675
575.49	0.672
575.68	0.673
575.88	0.674
576.07	0.675
576.27	0.673
576.46	0.671
576.66	0.670
576.86	0.670
577.05	0.668
577.25	0.666
577.44	0.668
577.64	0.667
577.83	0.665
578.03	0.667
578.22	0.667
578.42	0.666
578.61	0.665
578.81	0.665
579.00	0.665
579.20	0.665
579.40	0.663
579.59	0.662
579.79	0.662
579.98	0.662
580.18	0.661
580.37	0.661
580.57	0.663
580.76	0.667
580.96	0.666
581.15	0.667
581.35	0.669
581.54	0.669
581.74	0.668
581.93	0.670
582.13	0.670
582.32	0.667
582.52	0.666
582.71	0.665
582.91	0.660
583.10	0.660
583.30	0.659
583.49	0.658
583.69	0.662
583.88	0.662
584.08	0.662
584.27	0.664
584.47	0.668
584.66	0.669
584.86	0.668
585.05	0.671
585.25	0.673
585.44	0.673
585.64	0.672
585.83	0.668
586.03	0.668
586.22	0.666
586.42	0.662
586.61	0.663
586.81	0.665
587.00	0.664
587.20	0.661
587.39	0.662
587.59	0.663
587.78	0.664
587.98	0.665
588.17	0.666
588.37	0.668
588.56	0.670
588.76	0.666
588.95	0.666
589.15	0.670
589.34	0.673
589.54	0.672
589.73	0.674
589.92	0.677
590.12	0.677
590.31	0.676
590.51	0.681
590.70	0.683
590.90	0.684
591.09	0.683
591.29	0.681
591.48	0.681
591.68	0.681
591.87	0.680
592.06	0.680
592.26	0.682
592.45	0.680
592.65	0.674
592.84	0.674
593.04	0.675
593.23	0.677
593.43	0.675
593.62	0.674
593.81	0.674
594.01	0.673
594.20	0.670
594.40	0.669
594.59	0.670
594.79	0.670
594.98	0.669
595.17	0.669
595.37	0.669
595.56	0.671
595.76	0.672
595.95	0.674
596.14	0.677
596.34	0.679
596.53	0.678
596.73	0.681
596.92	0.683
597.12	0.685
597.31	0.685
597.50	0.685
597.70	0.686
597.89	0.685
598.09	0.682
598.28	0.683
598.47	0.685
598.67	0.683
598.86	0.680
599.06	0.681
599.25	0.681
599.44	0.679
599.64	0.677
599.83	0.674
600.03	0.677
600.22	0.677
600.41	0.677
600.61	0.674
600.80	0.676
601.00	0.676
601.19	0.673
601.38	0.671
601.58	0.673
601.77	0.674
601.96	0.677
602.16	0.677
602.35	0.685
602.55	0.683
602.74	0.685
602.93	0.687
603.13	0.692
603.32	0.694
603.51	0.694
603.71	0.698
603.90	0.700
604.09	0.700
604.29	0.698
604.48	0.692
604.68	0.692
604.87	0.691
605.06	0.687
605.26	0.684
605.45	0.684
605.64	0.683
605.84	0.678
606.03	0.677
606.22	0.675
606.42	0.674
606.61	0.671
606.80	0.672
607.00	0.673
607.19	0.673
607.38	0.671
607.58	0.672
607.77	0.674
607.96	0.673
608.16	0.672
608.35	0.676
608.54	0.679
608.74	0.682
608.93	0.687
609.12	0.690
609.32	0.692
609.51	0.695
609.70	0.695
609.90	0.697
610.09	0.701
610.28	0.706
610.48	0.702
610.67	0.703
610.86	0.703
611.06	0.698
611.25	0.696
611.44	0.697
611.64	0.697
611.83	0.700
612.02	0.696
612.21	0.696
612.41	0.695
612.60	0.693
612.79	0.690
612.99	0.690
613.18	0.693
613.37	0.691
613.57	0.688
613.76	0.689
613.95	0.686
614.14	0.685
614.34	0.683
614.53	0.683
614.72	0.686
614.92	0.686
615.11	0.683
615.30	0.679
615.49	0.680
615.69	0.682
615.88	0.679
616.07	0.680
616.26	0.681
616.46	0.682
616.65	0.679
616.84	0.678
617.04	0.680
617.23	0.683
617.42	0.684
617.61	0.687
617.81	0.687
618.00	0.689
618.19	0.689
618.38	0.693
618.58	0.696
618.77	0.698
618.96	0.698
619.15	0.700
619.35	0.702
619.54	0.702
619.73	0.699
619.92	0.701
620.12	0.705
620.31	0.706
620.50	0.701
620.69	0.701
620.89	0.704
621.08	0.703
621.27	0.702
621.46	0.701
621.66	0.704
621.85	0.703
622.04	0.700
622.23	0.701
622.43	0.701
622.62	0.701
622.81	0.701
623.00	0.700
623.19	0.704
623.39	0.702
623.58	0.699
623.77	0.699
623.96	0.701
624.16	0.701
624.35	0.697
624.54	0.699
624.73	0.702
624.92	0.699
625.12	0.697
625.31	0.698
625.50	0.701
625.69	0.701
625.88	0.698
626.08	0.697
626.27	0.699
626.46	0.700
626.65	0.696
626.84	0.695
627.04	0.700
627.23	0.701
627.42	0.697
627.61	0.698
627.80	0.701
628.00	0.701
628.19	0.700
628.38	0.702
628.57	0.703
628.76	0.703
628.96	0.700
629.15	0.700
629.34	0.703
629.53	0.703
629.72	0.698
629.91	0.698
630.11	0.702
630.30	0.703
630.49	0.706
630.68	0.706
630.87	0.710
631.06	0.712
631.26	0.708
631.45	0.710
631.64	0.717
631.83	0.719
632.02	0.717
632.21	0.716
632.41	0.723
632.60	0.717
632.79	0.716
632.98	0.717
633.17	0.718
633.36	0.719
633.55	0.717
633.75	0.712
633.94	0.714
634.13	0.714
634.32	0.713
634.51	0.708
634.70	0.709
634.89	0.709
635.09	0.705
635.28	0.705
635.47	0.704
635.66	0.707
635.85	0.704
636.04	0.705
636.23	0.709
636.43	0.710
636.62	0.708
636.81	0.707
637.00	0.708
637.19	0.711
637.38	0.709
637.57	0.709
637.76	0.709
637.95	0.710
638.15	0.707
638.34	0.703
638.53	0.706
638.72	0.708
638.91	0.706
639.10	0.704
639.29	0.703
639.48	0.704
639.67	0.705
639.87	0.705
640.06	0.710
640.25	0.711
640.44	0.712
640.63	0.712
640.82	0.714
641.01	0.714
641.20	0.715
641.39	0.716
641.58	0.717
641.78	0.715
641.97	0.712
642.16	0.725
642.35	0.725
642.54	0.725
642.73	0.720
642.92	0.719
643.11	0.722
643.30	0.721
643.49	0.717
643.68	0.720
643.87	0.721
644.06	0.721
644.25	0.702
644.45	0.703
644.64	0.703
644.83	0.703
645.02	0.700
645.21	0.700
645.40	0.701
645.59	0.701
645.78	0.696
645.97	0.699
646.16	0.700
646.35	0.699
646.54	0.699
646.73	0.701
646.92	0.703
647.11	0.702
647.30	0.698
647.49	0.700
647.68	0.700
647.88	0.699
648.07	0.693
648.26	0.695
648.45	0.697
648.64	0.694
648.83	0.691
649.02	0.694
649.21	0.703
649.40	0.702
649.59	0.698
649.78	0.698
649.97	0.711
650.16	0.711
650.35	0.706
650.54	0.709
650.73	0.716
650.92	0.712
651.11	0.706
651.30	0.703
651.49	0.706
651.68	0.707
651.87	0.705
652.06	0.694
652.25	0.696
652.44	0.701
652.63	0.700
652.82	0.704
653.01	0.705
653.20	0.705
653.39	0.695
653.58	0.693
653.77	0.692
653.96	0.688
654.15	0.680
654.34	0.678
654.53	0.672
654.72	0.665
654.91	0.655
655.10	0.650
655.29	0.647
655.48	0.644
655.67	0.639
655.86	0.636
656.05	0.634
656.24	0.633
656.43	0.628
656.62	0.627
656.81	0.626
657.00	0.621
657.19	0.617
657.38	0.616
657.57	0.614
657.76	0.616
657.95	0.613
658.14	0.615
658.33	0.617
658.51	0.621
658.70	0.620
658.89	0.621
659.08	0.633
659.27	0.642
659.46	0.644
659.65	0.651
659.84	0.654
660.03	0.658
660.22	0.660
660.41	0.664
660.60	0.664
660.79	0.666
660.98	0.672
661.17	0.670
661.36	0.669
661.55	0.669
661.74	0.667
661.92	0.670
662.11	0.673
662.30	0.670
662.49	0.664
662.68	0.663
662.87	0.666
663.06	0.660
663.25	0.662
663.44	0.663
663.63	0.664
663.82	0.663
664.01	0.658
664.20	0.656
664.38	0.658
664.57	0.659
664.76	0.658
664.95	0.660
665.14	0.664
665.33	0.659
665.52	0.666
665.71	0.670
665.90	0.669
666.09	0.670
666.28	0.669
666.46	0.667
666.65	0.667
666.84	0.665
667.03	0.659
667.22	0.658
667.41	0.660
667.60	0.651
667.79	0.644
667.98	0.646
668.16	0.647
668.35	0.647
668.54	0.645
668.73	0.646
668.92	0.647
669.11	0.646
669.30	0.641
669.49	0.637
669.67	0.638
669.86	0.641
670.05	0.638
670.24	0.635
670.43	0.633
670.62	0.632
670.81	0.627
671.00	0.628
671.18	0.627
671.37	0.626
671.56	0.624
671.75	0.623
671.94	0.620
672.13	0.618
672.32	0.614
672.50	0.612
672.69	0.612
672.88	0.613
673.07	0.608
673.26	0.610
673.45	0.611
673.63	0.611
673.82	0.608
674.01	0.609
674.20	0.609
674.39	0.608
674.58	0.609
674.76	0.608
674.95	0.607
675.14	0.608
675.33	0.603
675.52	0.602
675.71	0.602
675.89	0.601
676.08	0.597
676.27	0.597
676.46	0.597
676.65	0.597
676.84	0.596
677.02	0.597
677.21	0.599
677.40	0.599
677.59	0.597
677.78	0.598
677.96	0.600
678.15	0.600
678.34	0.598
678.53	0.599
678.72	0.599
678.90	0.596
679.09	0.592
679.28	0.589
679.47	0.589
679.66	0.588
679.84	0.585
680.03	0.583
680.22	0.581
680.41	0.582
680.60	0.579
680.78	0.578
680.97	0.580
681.16	0.580
681.35	0.579
681.53	0.579
681.72	0.579
681.91	0.581
682.10	0.580
682.29	0.582
682.47	0.580
682.66	0.578
682.85	0.577
683.04	0.575
683.22	0.575
683.41	0.577
683.60	0.575
683.79	0.576
683.97	0.575
684.16	0.574
684.35	0.570
684.54	0.572
684.72	0.573
684.91	0.574
685.10	0.572
685.29	0.573
685.47	0.570
685.66	0.569
685.85	0.566
686.04	0.565
686.22	0.567
686.41	0.570
686.60	0.567
686.79	0.570
686.97	0.570
687.16	0.571
687.35	0.569
687.54	0.572
687.72	0.575
687.91	0.576
688.10	0.578
688.29	0.577
688.47	0.575
688.66	0.574
688.85	0.571
689.03	0.570
689.22	0.574
689.41	0.575
689.60	0.571
689.78	0.568
689.97	0.569
690.16	0.566
690.34	0.563
690.53	0.563
690.72	0.562
690.91	0.560
691.09	0.558
691.28	0.553
691.47	0.550
691.65	0.549
691.84	0.547
692.03	0.546
692.21	0.544
692.40	0.543
692.59	0.541
692.77	0.540
692.96	0.541
693.15	0.541
693.34	0.539
693.52	0.539
693.71	0.539
693.90	0.540
694.08	0.541
694.27	0.542
694.46	0.551
694.64	0.552
694.83	0.552
695.02	0.551
695.20	0.551
695.39	0.550
695.58	0.550
695.76	0.550
695.95	0.549
696.14	0.548
696.32	0.546
696.51	0.536
696.70	0.537
696.88	0.538
697.07	0.537
697.26	0.538
697.44	0.539
697.63	0.538
697.81	0.536
698.00	0.536
698.19	0.535
698.37	0.535
698.56	0.534
698.75	0.534
698.93	0.533
699.12	0.533
699.31	0.532
699.49	0.531
699.68	0.532
699.87	0.534
700.05	0.534
700.24	0.534
700.42	0.535
700.61	0.535
700.80	0.534
700.98	0.534
701.17	0.534
701.36	0.534
701.54	0.534
701.73	0.535
701.91	0.533
702.10	0.532
702.29	0.530
702.47	0.529
702.66	0.530
702.84	0.531
703.03	0.529
703.22	0.531
703.40	0.530
703.59	0.530
703.77	0.530
703.96	0.531
704.15	0.531
704.33	0.531
704.52	0.530
704.70	0.529
704.89	0.529
705.08	0.528
705.26	0.525
705.45	0.525
705.63	0.524
705.82	0.522
706.00	0.520
706.19	0.520
706.38	0.520
706.56	0.520
706.75	0.518
706.93	0.517
707.12	0.519
707.30	0.519
707.49	0.517
707.68	0.515
707.86	0.515
708.05	0.515
708.23	0.512
708.42	0.511
708.60	0.514
708.79	0.513
708.98	0.512
709.16	0.511
709.35	0.512
709.53	0.516
709.72	0.514
709.90	0.516
710.09	0.517
710.27	0.520
710.46	0.524
710.64	0.522
710.83	0.524
711.02	0.525
711.20	0.524
711.39	0.524
711.57	0.521
711.76	0.522
711.94	0.521
712.13	0.522
712.31	0.521
712.50	0.516
712.68	0.514
712.87	0.515
713.05	0.515
713.24	0.516
713.42	0.515
713.61	0.516
713.79	0.516
713.98	0.517
714.16	0.518
714.35	0.517
714.54	0.518
714.72	0.518
714.91	0.516
715.09	0.523
715.28	0.525
715.46	0.525
715.65	0.523
715.83	0.523
716.02	0.525
716.20	0.522
716.39	0.521
716.57	0.523
716.76	0.526
716.94	0.526
717.12	0.518
717.31	0.519
717.49	0.521
717.68	0.523
717.86	0.523
718.05	0.525
718.23	0.527
718.42	0.530
718.60	0.530
718.79	0.537
718.97	0.539
719.16	0.540
719.34	0.538
719.53	0.538
719.71	0.536
719.90	0.537
720.08	0.535
720.27	0.535
720.45	0.534
720.63	0.533
720.82	0.527
721.00	0.530
721.19	0.533
721.37	0.533
721.56	0.533
721.74	0.536
721.93	0.544
722.11	0.549
722.30	0.549
722.48	0.554
722.66	0.555
722.85	0.555
723.03	0.555
723.22	0.554
723.40	0.557
723.59	0.556
723.77	0.561
723.95	0.555
724.14	0.557
724.32	0.558
724.51	0.558
724.69	0.559
724.88	0.558
725.06	0.558
725.24	0.559
725.43	0.560
725.61	0.563
725.80	0.557
725.98	0.555
726.16	0.553
726.35	0.559
726.53	0.558
726.72	0.557
726.90	0.568
727.09	0.568
727.27	0.573
727.45	0.572
727.64	0.580
727.82	0.588
728.01	0.593
728.19	0.589
728.37	0.593
728.56	0.596
728.74	0.603
728.92	0.591
729.11	0.593
729.29	0.592
729.48	0.593
729.66	0.583
729.84	0.582
730.03	0.583
730.21	0.585
730.40	0.577
730.58	0.577
730.76	0.576
730.95	0.579
731.13	0.578
731.31	0.591
731.50	0.599
731.68	0.603
731.86	0.600
732.05	0.614
732.23	0.617
732.42	0.621
732.60	0.626
732.78	0.630
732.97	0.646
733.15	0.655
733.33	0.644
733.52	0.650
733.70	0.661
733.88	0.669
734.07	0.657
734.25	0.680
734.43	0.686
734.62	0.689
734.80	0.686
734.98	0.678
735.17	0.684
735.35	0.690
735.53	0.679
735.72	0.680
735.90	0.700
736.08	0.717
736.27	0.697
736.45	0.707
736.63	0.717
736.82	0.727
737.00	0.727
737.18	0.734
737.37	0.765
737.55	0.788
737.73	0.783
737.92	0.786
738.10	0.782
738.28	0.802
738.46	0.793
738.65	0.807
738.83	0.823
739.01	0.874
739.20	0.870
739.38	0.848
739.56	0.837
739.75	0.845
739.93	0.815
740.11	0.836
740.29	0.830
740.48	0.836
740.66	0.816
740.84	0.811
741.03	0.774
741.21	0.782
741.39	0.768
741.57	0.780
741.76	0.791
741.94	0.795
742.12	0.766
742.31	0.775
742.49	0.789
742.67	0.813
742.85	0.830
743.04	0.837
743.22	0.845
743.40	0.893
743.58	0.878
743.77	0.895
743.95	0.930
744.13	0.979
744.31	0.961
744.50	0.951
744.68	0.940
744.86	0.914
745.04	0.926
745.23	0.984
745.41	0.961
745.59	0.962
745.77	0.933
745.96	0.916
746.14	0.919
746.32	0.917
746.50	0.918
746.69	0.907
746.87	0.910
747.05	0.895
747.23	0.831
747.42	0.820
747.60	0.841
747.78	0.839
747.96	0.870
748.14	0.833
748.33	0.858
748.51	0.853
748.69	0.850
748.87	0.879
749.06	0.874
749.24	0.869
749.42	0.860
749.60	0.844
749.78	0.855
749.97	0.814
750.15	0.809
750.33	0.806
750.51	0.824
750.69	0.827
750.88	0.826
751.06	0.838
751.24	0.862
751.42	0.853
751.60	0.847
751.79	0.908
751.97	0.947
752.15	0.948
752.33	0.926
752.51	0.983
752.69	0.991
752.88	0.968
753.06	1.007
753.24	0.984
753.42	1.013
753.60	1.170
753.78	1.054
753.97	1.072
754.15	1.081
754.33	1.107
754.51	1.001
754.69	0.993
754.87	1.016
755.06	0.952
755.24	0.955
755.42	0.966
755.60	0.866
755.78	0.872
755.96	0.822
756.15	0.822
756.33	0.820
756.51	0.839
756.69	0.827
756.87	0.798
757.05	0.814
757.23	0.799
757.42	0.769
757.60	0.768
757.78	0.758
757.96	0.759
758.14	0.744
758.32	0.731
758.50	0.737
758.69	0.734
758.87	0.728
759.05	0.731
759.23	0.738
759.41	0.739
759.59	0.734
759.77	0.753
759.95	0.775
760.13	0.821
760.32	0.821
760.50	0.816
760.68	0.835
760.86	0.838
761.04	0.819
761.22	0.821
761.40	0.864
761.58	0.863
761.76	0.841
761.95	0.821
762.13	0.779
762.31	0.783
762.49	0.758
762.67	0.776
762.85	0.784
763.03	0.779
763.21	0.768
763.39	0.747
763.57	0.748
763.75	0.743
763.94	0.733
764.12	0.732
764.30	0.752
764.48	0.758
764.66	0.726
764.84	0.723
765.02	0.751
765.20	0.755
765.38	0.743
765.56	0.749
765.74	0.783
765.92	0.783
766.10	0.790
766.28	0.780
766.46	0.802
766.65	0.800
766.83	0.793
767.01	0.780
767.19	0.784
767.37	0.780
767.55	0.770
767.73	0.751
767.91	0.752
768.09	0.744
768.27	0.738
768.45	0.730
768.63	0.736
768.81	0.738
768.99	0.718
769.17	0.738
769.35	0.751
769.53	0.749
769.71	0.733
769.89	0.738
770.07	0.740
770.25	0.725
770.43	0.706
770.61	0.725
770.79	0.729
770.97	0.736
771.15	0.712
771.33	0.712
771.51	0.713
771.69	0.724
771.87	0.730
772.05	0.735
772.24	0.737
772.42	0.744
772.60	0.725
772.78	0.773
772.96	0.794
773.14	0.788
773.32	0.773
773.49	0.779
773.67	0.776
773.85	0.761
774.03	0.755
774.21	0.785
774.39	0.795
774.57	0.815
774.75	0.757
774.93	0.754
775.11	0.774
775.29	0.780
775.47	0.779
775.65	0.786
775.83	0.798
776.01	0.818
776.19	0.778
776.37	0.776
776.55	0.774
776.73	0.770
776.91	0.766
777.09	0.750
777.27	0.748
777.45	0.741
777.63	0.724
777.81	0.719
777.99	0.707
778.17	0.706
778.35	0.692
778.53	0.680
778.71	0.683
778.89	0.672
779.07	0.666
779.24	0.668
779.42	0.670
779.60	0.689
779.78	0.690
779.96	0.692
780.14	0.698
780.32	0.715
780.50	0.705
780.68	0.705
780.86	0.697
781.04	0.710
781.22	0.719
781.40	0.724
781.58	0.710
781.75	0.704
781.93	0.691
782.11	0.689
782.29	0.675
782.47	0.672
782.65	0.661
782.83	0.685
783.01	0.677
783.19	0.669
783.37	0.657
783.55	0.659
783.72	0.672
783.90	0.680
784.08	0.675
784.26	0.684
784.44	0.702
784.62	0.707
784.80	0.679
784.98	0.686
785.16	0.693
785.33	0.708
785.51	0.699
785.69	0.689
785.87	0.689
786.05	0.701
786.23	0.700
786.41	0.697
786.59	0.703
786.77	0.704
786.94	0.696
787.12	0.699
787.30	0.700
787.48	0.697
787.66	0.686
787.84	0.687
788.02	0.676
788.19	0.676
788.37	0.664
788.55	0.664
788.73	0.663
788.91	0.655
789.09	0.637
789.27	0.628
789.44	0.636
789.62	0.641
789.80	0.650
789.98	0.671
790.16	0.657
790.34	0.654
790.51	0.643
790.69	0.661
790.87	0.666
791.05	0.667
791.23	0.662
791.41	0.665
791.58	0.669
791.76	0.651
791.94	0.625
792.12	0.631
792.30	0.636
792.48	0.634
792.65	0.628
792.83	0.634
793.01	0.638
793.19	0.636
793.37	0.622
793.54	0.619
793.72	0.627
793.90	0.625
794.08	0.616
794.26	0.615
794.43	0.619
794.61	0.605
794.79	0.597
794.97	0.593
795.15	0.597
795.32	0.601
795.50	0.592
795.68	0.587
795.86	0.591
796.04	0.593
796.21	0.589
796.39	0.589
796.57	0.600
796.75	0.607
796.92	0.611
797.10	0.614
797.28	0.612
797.46	0.615
797.64	0.617
797.81	0.626
797.99	0.629
798.17	0.631
798.35	0.627
798.52	0.631
798.70	0.624
798.88	0.633
799.06	0.634
799.23	0.638
799.41	0.645
799.59	0.640
799.77	0.629
799.94	0.636
800.12	0.642
800.30	0.658
800.48	0.657
800.65	0.658
800.83	0.647
801.01	0.640
801.19	0.642
801.36	0.639
801.54	0.640
801.72	0.651
801.90	0.639
802.07	0.635
802.25	0.621
802.43	0.606
802.60	0.604
802.78	0.610
802.96	0.613
803.14	0.606
803.31	0.604
803.49	0.605
803.67	0.599
803.84	0.604
804.02	0.598
804.20	0.602
804.38	0.606
804.55	0.605
804.73	0.595
804.91	0.595
805.08	0.606
805.26	0.604
805.44	0.665
805.61	0.669
805.79	0.665
805.97	0.665
806.15	0.659
806.32	0.656
806.50	0.658
806.68	0.657
806.85	0.652
807.03	0.644
807.21	0.658
807.38	0.597
807.56	0.588
807.74	0.599
807.91	0.603
808.09	0.604
808.27	0.621
808.44	0.647
808.62	0.654
808.80	0.656
808.97	0.651
809.15	0.646
809.33	0.657
809.50	0.665
809.68	0.651
809.86	0.657
810.03	0.684
810.21	0.667
810.39	0.652
810.56	0.658
810.74	0.676
810.91	0.740
811.09	0.732
811.27	0.751
811.44	0.754
811.62	0.758
811.80	0.746
811.97	0.719
812.15	0.717
812.33	0.712
812.50	0.702
812.68	0.693
812.85	0.643
813.03	0.645
813.21	0.618
813.38	0.612
813.56	0.613
813.74	0.623
813.91	0.633
814.09	0.658
814.26	0.650
814.44	0.655
814.62	0.646
814.79	0.648
814.97	0.650
815.14	0.653
815.32	0.656
815.50	0.670
815.67	0.667
815.85	0.658
816.02	0.649
816.20	0.656
816.38	0.666
816.55	0.670
816.73	0.672
816.90	0.681
817.08	0.708
817.26	0.714
817.43	0.701
817.61	0.727
817.78	0.743
817.96	0.727
818.13	0.719
818.31	0.715
818.49	0.723
818.66	0.714
818.84	0.703
819.01	0.683
819.19	0.687
819.36	0.688
819.54	0.662
819.71	0.694
819.89	0.702
820.07	0.713
820.24	0.712
820.42	0.715
820.59	0.730
820.77	0.751
820.94	0.745
821.12	0.760
821.29	0.770
821.47	0.772
821.64	0.724
821.82	0.737
822.00	0.737
822.17	0.738
822.35	0.733
822.52	0.737
822.70	0.724
822.87	0.734
823.05	0.718
823.22	0.732
823.40	0.753
823.57	0.773
823.75	0.758
823.92	0.778
824.10	0.788
824.27	0.824
824.45	0.817
824.62	0.872
824.80	0.883
824.97	0.895
825.15	0.884
825.32	0.896
825.50	0.898
825.67	0.901
825.85	0.883
826.02	0.898
826.20	0.915
826.37	1.018
826.55	0.952
826.72	1.105
826.90	1.148
827.07	1.190
827.25	1.148
827.42	1.246
827.60	1.334
827.77	1.440
827.95	1.422
828.12	1.452
828.30	1.242
828.47	1.325
828.65	1.091
828.82	1.126
829.00	1.155
829.17	1.212
829.34	1.217
829.52	1.248
829.69	-0.000
829.87	-0.000
830.04	-0.000
830.22	-0.000
830.39	-0.000
830.57	-0.000
830.74	-0.000
830.92	-0.000
831.09	-0.000
831.26	-0.000
831.44	-0.000
831.61	-0.000
831.79	-0.000
831.96	-0.000
832.14	-0.000
832.31	-0.000
832.49	-0.000
832.66	-0.000
832.83	-0.000
833.01	-0.000
833.18	-0.000
833.36	-0.000
833.53	-0.000
833.70	-0.000
833.88	-0.000
834.05	-0.000
834.23	-0.000
834.40	-0.000
834.58	-0.000
834.75	-0.000
834.92	-0.000
835.10	-0.000
835.27	-0.000
835.45	-0.000
835.62	-0.000
835.79	-0.000
835.97	-0.000
836.14	-0.000
836.32	-0.000
836.49	-0.000
836.66	-0.000
836.84	-0.000
837.01	-0.000
837.18	-0.000
837.36	-0.000
837.53	-0.000
837.71	-0.000
837.88	-0.000
838.05	-0.000
838.23	-0.000
838.40	-0.000
838.58	-0.000
838.75	-0.000
838.92	-0.000
839.10	-0.000
839.27	-0.000
839.44	-0.000
839.62	-0.000
839.79	-0.000
839.96	-0.000
840.14	-0.000
840.31	-0.000
840.48	-0.000
840.66	-0.000
840.83	-0.000
841.01	-0.000
841.18	-0.000
841.35	-0.000
841.53	-0.000
841.70	-0.000
841.87	-0.000
842.05	-0.000
842.22	-0.000
842.39	-0.000
842.57	-0.000
842.74	-0.000
842.91	-0.000
843.09	-0.000
843.26	-0.000
843.43	-0.000
843.60	-0.000
843.78	-0.000
843.95	-0.000
844.12	-0.000
844.30	-0.000
844.47	-0.000
844.64	-0.000
844.82	-0.000
844.99	-0.000
845.16	-0.000
845.34	-0.000
845.51	-0.000
845.68	-0.000
845.85	-0.000
846.03	-0.000
846.20	-0.000
846.37	-0.000
846.55	-0.000
846.72	-0.000
846.89	-0.000
847.06	-0.000
847.24	-0.000
847.41	-0.000
847.58	-0.000
847.76	-0.000
847.93	-0.000
848.10	-0.000
848.27	-0.000
848.45	-0.000
848.62	-0.000
848.79	-0.000
848.97	-0.000
849.14	-0.000
849.31	-0.000
849.48	-0.000
849.66	-0.000
849.83	-0.000
850.00	-0.000
850.17	-0.000
850.35	-0.000
850.52	-0.000
850.69	-0.000
850.86	-0.000
851.04	-0.000
851.21	-0.000
851.38	-0.000
851.55	-0.000
851.72	-0.000
851.90	-0.000
852.07	-0.000
852.24	-0.000
852.41	-0.000
852.59	-0.000
852.76	-0.000
852.93	-0.000
853.10	-0.000
853.28	-0.000
853.45	-0.000
853.62	-0.000
853.79	-0.000
853.96	-0.000
854.14	-0.000
854.31	-0.000
854.48	-0.000
854.65	-0.000
854.82	-0.000
855.00	-0.000
855.17	-0.000
855.34	-0.000
855.51	-0.000
855.68	-0.000
855.86	-0.000
856.03	-0.000
856.20	-0.000
856.37	-0.000
856.54	-0.000
856.72	-0.000
856.89	-0.000
857.06	-0.000
857.23	-0.000
857.40	-0.000
857.57	-0.000
857.75	-0.000
857.92	-0.000
858.09	-0.000
858.26	-0.000
858.43	-0.000
858.60	-0.000
858.78	-0.000
858.95	-0.000
859.12	-0.000
859.29	-0.000
859.46	-0.000
859.63	-0.000
859.81	-0.000
859.98	-0.000
860.15	-0.000
860.32	-0.000
860.49	-0.000
860.66	-0.000
860.83	-0.000
861.01	-0.000
861.18	-0.000
861.35	-0.000
861.52	-0.000
861.69	-0.000
861.86	-0.000
862.03	-0.000
862.21	-0.000
862.38	-0.000
862.55	-0.000
862.72	-0.000
862.89	-0.000
863.06	-0.000
863.23	-0.000
863.40	-0.000
863.58	-0.000
863.75	-0.000
863.92	-0.000
864.09	-0.000
864.26	-0.000
864.43	-0.000
864.60	-0.000
864.77	-0.000
864.94	-0.000
865.11	-0.000
865.29	-0.000
865.46	-0.000
865.63	-0.000
865.80	-0.000
865.97	-0.000
866.14	-0.000
866.31	-0.000
866.48	-0.000
866.65	-0.000
866.82	-0.000
866.99	-0.000
867.16	-0.000
867.34	-0.000
867.51	-0.000
867.68	-0.000
867.85	-0.000
868.02	-0.000
868.19	-0.000
868.36	-0.000
868.53	-0.000
868.70	-0.000
868.87	-0.000
869.04	-0.000
869.21	-0.000
869.38	-0.000
869.55	-0.000
869.72	-0.000
869.89	-0.000
870.06	-0.000
870.24	-0.000
870.41	-0.000
870.58	-0.000
870.75	-0.000
870.92	-0.000
871.09	-0.000
871.26	-0.000
871.43	-0.000
871.60	-0.000
871.77	-0.000
871.94	-0.000
872.11	-0.000
872.28	-0.000
872.45	-0.000
872.62	-0.000
872.79	-0.000
872.96	-0.000
873.13	-0.000
873.30	-0.000
873.47	-0.000
873.64	-0.000
873.81	-0.000
873.98	-0.000
874.15	-0.000
874.32	-0.000
874.49	-0.000
874.66	-0.000
874.83	-0.000
875.00	-0.000
875.17	-0.000
875.34	-0.000
875.51	-0.000
875.68	-0.000
875.85	-0.000
876.02	-0.000
876.19	-0.000
876.36	-0.000
876.53	-0.000
876.70	-0.000
876.87	-0.000
877.04	-0.000
877.21	-0.000
877.38	-0.000
877.55	-0.000
877.72	-0.000
877.89	-0.000
878.06	-0.000
878.23	-0.000
878.39	-0.000
878.56	-0.000
878.73	-0.000
878.90	-0.000
879.07	-0.000
879.24	-0.000
879.41	-0.000
879.58	-0.000
879.75	-0.000
879.92	-0.000
880.09	-0.000
880.26	-0.000
880.43	-0.000
880.60	-0.000
880.77	-0.000
880.94	-0.000
881.11	-0.000
881.27	-0.000
881.44	-0.000
881.61	-0.000
881.78	-0.000
881.95	-0.000
882.12	-0.000
882.29	-0.000
882.46	-0.000
882.63	-0.000
882.80	-0.000
882.97	-0.000
883.14	-0.000
883.30	-0.000
883.47	-0.000
883.64	-0.000
883.81	-0.000
883.98	-0.000
884.15	-0.000
884.32	-0.000
884.49	-0.000
884.66	-0.000
884.82	-0.000
884.99	-0.000
885.16	-0.000
885.33	-0.000
885.50	-0.000
885.67	-0.000
885.84	-0.000
886.01	-0.000
886.17	-0.000
886.34	-0.000
886.51	-0.000
886.68	-0.000
886.85	-0.000
887.02	-0.000
887.19	-0.000
887.36	-0.000
887.52	-0.000
887.69	-0.000
887.86	-0.000
888.03	-0.000
888.20	-0.000
888.37	-0.000
888.54	-0.000
888.70	-0.000
888.87	-0.000
889.04	-0.000
889.21	-0.000
889.38	-0.000
889.55	-0.000
889.71	-0.000
889.88	-0.000
890.05	-0.000
890.22	-0.000
890.39	-0.000
>>>>>End Processed Spectral Data<<<<<
