SpectraSuite Data File
++++++++++++++++++++++++++++++++++++
Date: Fri Jun 19 15:46:12 CEST 2015
User: introlabs
Dark Spectrum Present: Yes
Reference Spectrum Present: Yes
Number of Sampled Component Spectra: 1
Spectrometers: USB4H08886
Integration Time (usec): 745692 (USB4H08886)
Spectra Averaged: 5 (USB4H08886)
Boxcar Smoothing: 5 (USB4H08886)
Correct for Electrical Dark: Yes (USB4H08886)
Strobe/Lamp Enabled: No (USB4H08886)
Correct for Detector Non-linearity: Yes (USB4H08886)
Correct for Stray Light: Yes (USB4H08886)
Number of Pixels in Processed Spectrum: 3648
>>>>>Begin Processed Spectral Data<<<<<
178.14	-0.000
178.36	-0.000
178.57	-0.000
178.79	-0.000
179.01	-0.000
179.22	-0.000
179.44	-0.000
179.65	-0.000
179.87	-0.000
180.08	-0.000
180.30	-0.000
180.52	-0.000
180.73	-0.000
180.95	-0.000
181.16	-0.000
181.38	-0.000
181.59	-0.000
181.81	-0.000
182.03	-0.000
182.24	-0.000
182.46	-0.000
182.67	-0.000
182.89	-0.000
183.10	-0.000
183.32	-0.000
183.54	-0.000
183.75	-0.000
183.97	-0.000
184.18	-0.000
184.40	-0.000
184.61	-0.000
184.83	-0.000
185.04	-0.000
185.26	-0.000
185.48	-0.000
185.69	-0.000
185.91	-0.000
186.12	-0.000
186.34	-0.000
186.55	-0.000
186.77	-0.000
186.98	-0.000
187.20	-0.000
187.42	-0.000
187.63	-0.000
187.85	-0.000
188.06	-0.000
188.28	-0.000
188.49	-0.000
188.71	-0.000
188.92	-0.000
189.14	-0.000
189.36	-0.000
189.57	-0.000
189.79	-0.000
190.00	-0.000
190.22	-0.000
190.43	-0.000
190.65	-0.000
190.86	-0.000
191.08	-0.000
191.29	-0.000
191.51	-0.000
191.72	-0.000
191.94	-0.000
192.16	-0.000
192.37	-0.000
192.59	-0.000
192.80	-0.000
193.02	-0.000
193.23	-0.000
193.45	-0.000
193.66	-0.000
193.88	-0.000
194.09	-0.000
194.31	-0.000
194.52	-0.000
194.74	-0.000
194.95	-0.000
195.17	-0.000
195.38	-0.000
195.60	-0.000
195.81	-0.000
196.03	-0.000
196.25	-0.000
196.46	-0.000
196.68	-0.000
196.89	-0.000
197.11	-0.000
197.32	-0.000
197.54	-0.000
197.75	-0.000
197.97	-0.000
198.18	-0.000
198.40	-0.000
198.61	-0.000
198.83	-0.000
199.04	-0.000
199.26	-0.000
199.47	-0.000
199.69	-0.000
199.90	-0.000
200.12	-0.000
200.33	-0.000
200.55	-0.000
200.76	-0.000
200.98	-0.000
201.19	-0.000
201.41	-0.000
201.62	-0.000
201.84	-0.000
202.05	-0.000
202.27	-0.000
202.48	-0.000
202.70	-0.000
202.91	-0.000
203.13	-0.000
203.34	-0.000
203.56	-0.000
203.77	-0.000
203.99	-0.000
204.20	-0.000
204.42	-0.000
204.63	-0.000
204.85	-0.000
205.06	-0.000
205.28	-0.000
205.49	-0.000
205.71	-0.000
205.92	-0.000
206.14	-0.000
206.35	-0.000
206.56	-0.000
206.78	-0.000
206.99	-0.000
207.21	-0.000
207.42	-0.000
207.64	-0.000
207.85	-0.000
208.07	-0.000
208.28	-0.000
208.50	-0.000
208.71	-0.000
208.93	-0.000
209.14	-0.000
209.36	-0.000
209.57	-0.000
209.79	-0.000
210.00	-0.000
210.22	-0.000
210.43	-0.000
210.64	-0.000
210.86	-0.000
211.07	-0.000
211.29	-0.000
211.50	-0.000
211.72	-0.000
211.93	-0.000
212.15	-0.000
212.36	-0.000
212.58	-0.000
212.79	-0.000
213.01	-0.000
213.22	-0.000
213.43	-0.000
213.65	-0.000
213.86	-0.000
214.08	-0.000
214.29	-0.000
214.51	-0.000
214.72	-0.000
214.94	-0.000
215.15	-0.000
215.36	-0.000
215.58	-0.000
215.79	-0.000
216.01	-0.000
216.22	-0.000
216.44	-0.000
216.65	-0.000
216.87	-0.000
217.08	-0.000
217.29	-0.000
217.51	-0.000
217.72	-0.000
217.94	-0.000
218.15	-0.000
218.37	-0.000
218.58	-0.000
218.80	-0.000
219.01	-0.000
219.22	-0.000
219.44	-0.000
219.65	-0.000
219.87	-0.000
220.08	-0.000
220.30	-0.000
220.51	-0.000
220.72	-0.000
220.94	-0.000
221.15	-0.000
221.37	-0.000
221.58	-0.000
221.79	-0.000
222.01	-0.000
222.22	-0.000
222.44	-0.000
222.65	-0.000
222.87	-0.000
223.08	-0.000
223.29	-0.000
223.51	-0.000
223.72	-0.000
223.94	-0.000
224.15	-0.000
224.36	-0.000
224.58	-0.000
224.79	-0.000
225.01	-0.000
225.22	-0.000
225.44	-0.000
225.65	-0.000
225.86	-0.000
226.08	-0.000
226.29	-0.000
226.51	-0.000
226.72	-0.000
226.93	-0.000
227.15	-0.000
227.36	-0.000
227.58	-0.000
227.79	-0.000
228.00	-0.000
228.22	-0.000
228.43	-0.000
228.65	-0.000
228.86	-0.000
229.07	-0.000
229.29	-0.000
229.50	-0.000
229.72	-0.000
229.93	-0.000
230.14	-0.000
230.36	-0.000
230.57	-0.000
230.78	-0.000
231.00	-0.000
231.21	-0.000
231.43	-0.000
231.64	-0.000
231.85	-0.000
232.07	-0.000
232.28	-0.000
232.50	-0.000
232.71	-0.000
232.92	-0.000
233.14	-0.000
233.35	-0.000
233.56	-0.000
233.78	-0.000
233.99	-0.000
234.21	-0.000
234.42	-0.000
234.63	-0.000
234.85	-0.000
235.06	-0.000
235.27	-0.000
235.49	-0.000
235.70	-0.000
235.91	-0.000
236.13	-0.000
236.34	-0.000
236.56	-0.000
236.77	-0.000
236.98	-0.000
237.20	-0.000
237.41	-0.000
237.62	-0.000
237.84	-0.000
238.05	-0.000
238.26	-0.000
238.48	-0.000
238.69	-0.000
238.91	-0.000
239.12	-0.000
239.33	-0.000
239.55	-0.000
239.76	-0.000
239.97	-0.000
240.19	-0.000
240.40	-0.000
240.61	-0.000
240.83	-0.000
241.04	-0.000
241.25	-0.000
241.47	-0.000
241.68	-0.000
241.89	-0.000
242.11	-0.000
242.32	-0.000
242.53	-0.000
242.75	-0.000
242.96	-0.000
243.17	-0.000
243.39	-0.000
243.60	-0.000
243.81	-0.000
244.03	-0.000
244.24	-0.000
244.45	-0.000
244.67	-0.000
244.88	-0.000
245.09	-0.000
245.31	-0.000
245.52	-0.000
245.73	-0.000
245.95	-0.000
246.16	-0.000
246.37	-0.000
246.59	-0.000
246.80	-0.000
247.01	-0.000
247.23	-0.000
247.44	-0.000
247.65	-0.000
247.87	-0.000
248.08	-0.000
248.29	-0.000
248.51	-0.000
248.72	-0.000
248.93	-0.000
249.15	-0.000
249.36	-0.000
249.57	-0.000
249.78	-0.000
250.00	-0.000
250.21	-0.000
250.42	-0.000
250.64	-0.000
250.85	-0.000
251.06	-0.000
251.28	-0.000
251.49	-0.000
251.70	-0.000
251.92	-0.000
252.13	-0.000
252.34	-0.000
252.55	-0.000
252.77	-0.000
252.98	-0.000
253.19	-0.000
253.41	-0.000
253.62	-0.000
253.83	-0.000
254.05	-0.000
254.26	-0.000
254.47	-0.000
254.68	-0.000
254.90	-0.000
255.11	-0.000
255.32	-0.000
255.54	-0.000
255.75	-0.000
255.96	-0.000
256.17	-0.000
256.39	-0.000
256.60	-0.000
256.81	-0.000
257.03	-0.000
257.24	-0.000
257.45	-0.000
257.66	-0.000
257.88	-0.000
258.09	-0.000
258.30	-0.000
258.51	-0.000
258.73	-0.000
258.94	-0.000
259.15	-0.000
259.37	-0.000
259.58	-0.000
259.79	-0.000
260.00	-0.000
260.22	-0.000
260.43	-0.000
260.64	-0.000
260.85	-0.000
261.07	-0.000
261.28	-0.000
261.49	-0.000
261.71	-0.000
261.92	-0.000
262.13	-0.000
262.34	-0.000
262.56	-0.000
262.77	-0.000
262.98	-0.000
263.19	-0.000
263.41	-0.000
263.62	-0.000
263.83	-0.000
264.04	-0.000
264.26	-0.000
264.47	-0.000
264.68	-0.000
264.89	-0.000
265.11	-0.000
265.32	-0.000
265.53	-0.000
265.74	-0.000
265.96	-0.000
266.17	-0.000
266.38	-0.000
266.59	-0.000
266.81	-0.000
267.02	-0.000
267.23	-0.000
267.44	-0.000
267.65	-0.000
267.87	-0.000
268.08	-0.000
268.29	-0.000
268.50	-0.000
268.72	-0.000
268.93	-0.000
269.14	-0.000
269.35	-0.000
269.57	-0.000
269.78	-0.000
269.99	-0.000
270.20	-0.000
270.41	-0.000
270.63	-0.000
270.84	-0.000
271.05	-0.000
271.26	-0.000
271.48	-0.000
271.69	-0.000
271.90	-0.000
272.11	-0.000
272.32	-0.000
272.54	-0.000
272.75	-0.000
272.96	-0.000
273.17	-0.000
273.39	-0.000
273.60	-0.000
273.81	-0.000
274.02	-0.000
274.23	-0.000
274.45	-0.000
274.66	-0.000
274.87	-0.000
275.08	-0.000
275.29	-0.000
275.51	-0.000
275.72	-0.000
275.93	-0.000
276.14	-0.000
276.35	-0.000
276.57	-0.000
276.78	-0.000
276.99	-0.000
277.20	-0.000
277.41	-0.000
277.63	-0.000
277.84	-0.000
278.05	-0.000
278.26	-0.000
278.47	-0.000
278.69	-0.000
278.90	-0.000
279.11	-0.000
279.32	-0.000
279.53	-0.000
279.74	-0.000
279.96	-0.000
280.17	-0.000
280.38	-0.000
280.59	-0.000
280.80	-0.000
281.02	-0.000
281.23	-0.000
281.44	-0.000
281.65	-0.000
281.86	-0.000
282.07	-0.000
282.29	-0.000
282.50	-0.000
282.71	-0.000
282.92	-0.000
283.13	-0.000
283.35	-0.000
283.56	-0.000
283.77	-0.000
283.98	-0.000
284.19	-0.000
284.40	-0.000
284.62	-0.000
284.83	-0.000
285.04	-0.000
285.25	-0.000
285.46	-0.000
285.67	-0.000
285.88	-0.000
286.10	-0.000
286.31	-0.000
286.52	-0.000
286.73	-0.000
286.94	-0.000
287.15	-0.000
287.37	-0.000
287.58	-0.000
287.79	-0.000
288.00	-0.000
288.21	-0.000
288.42	-0.000
288.63	-0.000
288.85	-0.000
289.06	-0.000
289.27	-0.000
289.48	-0.000
289.69	-0.000
289.90	-0.000
290.11	-0.000
290.33	-0.000
290.54	-0.000
290.75	-0.000
290.96	-0.000
291.17	-0.000
291.38	-0.000
291.59	-0.000
291.81	-0.000
292.02	-0.000
292.23	-0.000
292.44	-0.000
292.65	3.180
292.86	-0.000
293.07	-0.000
293.28	2.370
293.50	2.604
293.71	-0.000
293.92	2.743
294.13	-0.000
294.34	-0.000
294.55	-0.000
294.76	-0.000
294.97	2.962
295.19	-0.000
295.40	-0.000
295.61	-0.000
295.82	2.536
296.03	2.159
296.24	2.208
296.45	1.785
296.66	1.599
296.87	1.598
297.09	1.640
297.30	1.746
297.51	1.554
297.72	1.537
297.93	1.591
298.14	1.573
298.35	1.549
298.56	1.532
298.77	1.606
298.99	1.588
299.20	1.582
299.41	1.561
299.62	1.519
299.83	1.512
300.04	1.475
300.25	1.466
300.46	1.485
300.67	1.468
300.88	1.434
301.10	1.444
301.31	1.493
301.52	1.447
301.73	1.413
301.94	1.418
302.15	1.426
302.36	1.387
302.57	1.346
302.78	1.353
302.99	1.387
303.20	1.404
303.41	1.330
303.63	1.314
303.84	1.313
304.05	1.312
304.26	1.267
304.47	1.268
304.68	1.267
304.89	1.259
305.10	1.229
305.31	1.215
305.52	1.253
305.73	1.249
305.94	1.219
306.15	1.211
306.37	1.226
306.58	1.234
306.79	1.212
307.00	1.236
307.21	1.269
307.42	1.262
307.63	1.234
307.84	1.199
308.05	1.228
308.26	1.230
308.47	1.216
308.68	1.212
308.89	1.206
309.10	1.203
309.31	1.168
309.52	1.160
309.73	1.172
309.95	1.169
310.16	1.149
310.37	1.139
310.58	1.151
310.79	1.148
311.00	1.145
311.21	1.148
311.42	1.146
311.63	1.144
311.84	1.129
312.05	1.127
312.26	1.144
312.47	1.155
312.68	1.135
312.89	1.120
313.10	1.124
313.31	1.102
313.52	1.106
313.73	1.109
313.94	1.110
314.15	1.094
314.36	1.077
314.57	1.071
314.78	1.057
314.99	1.052
315.21	1.043
315.42	1.049
315.63	1.058
315.84	1.038
316.05	1.027
316.26	1.033
316.47	1.046
316.68	1.043
316.89	1.027
317.10	1.045
317.31	1.048
317.52	1.049
317.73	1.030
317.94	1.027
318.15	1.062
318.36	1.059
318.57	1.046
318.78	1.037
318.99	1.066
319.20	1.064
319.41	1.037
319.62	1.040
319.83	1.052
320.04	1.046
320.25	1.038
320.46	1.010
320.67	1.012
320.88	1.007
321.09	0.997
321.30	0.983
321.51	0.995
321.72	0.993
321.93	0.979
322.14	0.972
322.35	0.996
322.56	0.999
322.77	0.987
322.98	0.998
323.19	1.004
323.40	1.010
323.61	0.992
323.82	0.988
324.03	0.991
324.24	0.989
324.45	0.978
324.66	0.961
324.87	0.955
325.08	0.957
325.29	0.941
325.50	0.934
325.71	0.938
325.92	0.945
326.13	0.934
326.34	0.933
326.55	0.940
326.76	0.939
326.97	0.929
327.18	0.925
327.39	0.946
327.60	0.947
327.80	0.949
328.01	0.947
328.22	0.946
328.43	0.949
328.64	0.940
328.85	0.943
329.06	0.943
329.27	0.943
329.48	0.941
329.69	0.922
329.90	0.931
330.11	0.925
330.32	0.919
330.53	0.913
330.74	0.912
330.95	0.911
331.16	0.899
331.37	0.907
331.58	0.905
331.79	0.904
332.00	0.897
332.21	0.890
332.42	0.894
332.63	0.885
332.83	0.881
333.04	0.884
333.25	0.895
333.46	0.894
333.67	0.882
333.88	0.885
334.09	0.895
334.30	0.892
334.51	0.885
334.72	0.880
334.93	0.884
335.14	0.884
335.35	0.877
335.56	0.873
335.77	0.879
335.98	0.878
336.18	0.873
336.39	0.865
336.60	0.869
336.81	0.868
337.02	0.868
337.23	0.871
337.44	0.873
337.65	0.875
337.86	0.865
338.07	0.861
338.28	0.865
338.49	0.862
338.70	0.856
338.91	0.861
339.11	0.868
339.32	0.865
339.53	0.854
339.74	0.852
339.95	0.847
340.16	0.847
340.37	0.841
340.58	0.840
340.79	0.843
341.00	0.844
341.21	0.834
341.41	0.833
341.62	0.833
341.83	0.835
342.04	0.831
342.25	0.841
342.46	0.844
342.67	0.842
342.88	0.836
343.09	0.836
343.30	0.841
343.50	0.844
343.71	0.837
343.92	0.836
344.13	0.839
344.34	0.838
344.55	0.824
344.76	0.823
344.97	0.827
345.18	0.825
345.38	0.824
345.59	0.819
345.80	0.818
346.01	0.816
346.22	0.812
346.43	0.807
346.64	0.815
346.85	0.814
347.06	0.808
347.26	0.809
347.47	0.811
347.68	0.807
347.89	0.804
348.10	0.799
348.31	0.804
348.52	0.803
348.73	0.801
348.93	0.799
349.14	0.800
349.35	0.799
349.56	0.794
349.77	0.790
349.98	0.794
350.19	0.792
350.39	0.787
350.60	0.783
350.81	0.798
351.02	0.796
351.23	0.791
351.44	0.794
351.65	0.797
351.86	0.794
352.06	0.793
352.27	0.793
352.48	0.794
352.69	0.793
352.90	0.789
353.11	0.776
353.31	0.782
353.52	0.779
353.73	0.772
353.94	0.774
354.15	0.779
354.36	0.779
354.57	0.771
354.77	0.773
354.98	0.772
355.19	0.772
355.40	0.772
355.61	0.777
355.82	0.780
356.02	0.780
356.23	0.773
356.44	0.774
356.65	0.776
356.86	0.776
357.07	0.770
357.27	0.773
357.48	0.775
357.69	0.772
357.90	0.758
358.11	0.754
358.32	0.756
358.52	0.759
358.73	0.750
358.94	0.753
359.15	0.757
359.36	0.759
359.56	0.755
359.77	0.753
359.98	0.759
360.19	0.758
360.40	0.757
360.61	0.759
360.81	0.757
361.02	0.759
361.23	0.752
361.44	0.749
361.65	0.750
361.85	0.749
362.06	0.747
362.27	0.749
362.48	0.749
362.69	0.750
362.89	0.745
363.10	0.747
363.31	0.751
363.52	0.754
363.73	0.749
363.93	0.749
364.14	0.751
364.35	0.752
364.56	0.742
364.77	0.744
364.97	0.746
365.18	0.747
365.39	0.742
365.60	0.738
365.81	0.739
366.01	0.739
366.22	0.737
366.43	0.735
366.64	0.736
366.84	0.742
367.05	0.739
367.26	0.738
367.47	0.739
367.68	0.739
367.88	0.737
368.09	0.734
368.30	0.736
368.51	0.736
368.71	0.736
368.92	0.740
369.13	0.738
369.34	0.738
369.55	0.738
369.75	0.737
369.96	0.743
370.17	0.743
370.38	0.740
370.58	0.740
370.79	0.744
371.00	0.743
371.21	0.735
371.41	0.741
371.62	0.744
371.83	0.740
372.04	0.738
372.24	0.731
372.45	0.731
372.66	0.732
372.87	0.730
373.07	0.727
373.28	0.727
373.49	0.731
373.70	0.722
373.90	0.721
374.11	0.730
374.32	0.730
374.53	0.729
374.73	0.729
374.94	0.731
375.15	0.731
375.36	0.730
375.56	0.738
375.77	0.738
375.98	0.738
376.19	0.736
376.39	0.730
376.60	0.733
376.81	0.734
377.02	0.732
377.22	0.731
377.43	0.731
377.64	0.731
377.84	0.723
378.05	0.727
378.26	0.733
378.47	0.732
378.67	0.729
378.88	0.727
379.09	0.727
379.30	0.727
379.50	0.725
379.71	0.727
379.92	0.729
380.12	0.729
380.33	0.722
380.54	0.718
380.75	0.724
380.95	0.725
381.16	0.723
381.37	0.723
381.57	0.725
381.78	0.725
381.99	0.725
382.20	0.724
382.40	0.727
382.61	0.727
382.82	0.724
383.02	0.718
383.23	0.720
383.44	0.720
383.64	0.720
383.85	0.723
384.06	0.725
384.27	0.723
384.47	0.722
384.68	0.722
384.89	0.727
385.09	0.727
385.30	0.727
385.51	0.725
385.71	0.729
385.92	0.729
386.13	0.727
386.33	0.730
386.54	0.730
386.75	0.730
386.95	0.727
387.16	0.724
387.37	0.726
387.58	0.725
387.78	0.724
387.99	0.722
388.20	0.723
388.40	0.720
388.61	0.717
388.82	0.720
389.02	0.721
389.23	0.721
389.44	0.720
389.64	0.721
389.85	0.731
390.06	0.731
390.26	0.732
390.47	0.731
390.68	0.734
390.88	0.732
391.09	0.727
391.30	0.727
391.50	0.727
391.71	0.727
391.92	0.725
392.12	0.717
392.33	0.717
392.53	0.717
392.74	0.718
392.95	0.717
393.15	0.719
393.36	0.722
393.57	0.720
393.77	0.723
393.98	0.724
394.19	0.724
394.39	0.724
394.60	0.725
394.81	0.728
395.01	0.726
395.22	0.725
395.43	0.727
395.63	0.731
395.84	0.732
396.04	0.729
396.25	0.731
396.46	0.732
396.66	0.731
396.87	0.730
397.08	0.726
397.28	0.728
397.49	0.730
397.69	0.727
397.90	0.723
398.11	0.724
398.31	0.724
398.52	0.721
398.73	0.723
398.93	0.722
399.14	0.721
399.34	0.720
399.55	0.721
399.76	0.721
399.96	0.721
400.17	0.719
400.37	0.717
400.58	0.723
400.79	0.725
400.99	0.723
401.20	0.728
401.41	0.731
401.61	0.732
401.82	0.738
402.02	0.737
402.23	0.738
402.44	0.738
402.64	0.738
402.85	0.733
403.05	0.732
403.26	0.731
403.47	0.726
403.67	0.725
403.88	0.725
404.08	0.719
404.29	0.718
404.50	0.718
404.70	0.718
404.91	0.718
405.11	0.715
405.32	0.715
405.52	0.716
405.73	0.716
405.94	0.714
406.14	0.717
406.35	0.719
406.55	0.718
406.76	0.716
406.97	0.717
407.17	0.719
407.38	0.719
407.58	0.718
407.79	0.720
407.99	0.722
408.20	0.722
408.41	0.718
408.61	0.716
408.82	0.718
409.02	0.718
409.23	0.716
409.43	0.714
409.64	0.715
409.84	0.716
410.05	0.713
410.26	0.711
410.46	0.711
410.67	0.711
410.87	0.713
411.08	0.715
411.28	0.715
411.49	0.717
411.69	0.715
411.90	0.716
412.11	0.717
412.31	0.718
412.52	0.717
412.72	0.717
412.93	0.718
413.13	0.716
413.34	0.713
413.54	0.715
413.75	0.717
413.95	0.717
414.16	0.714
414.37	0.717
414.57	0.717
414.78	0.719
414.98	0.718
415.19	0.719
415.39	0.716
415.60	0.718
415.80	0.717
416.01	0.714
416.21	0.716
416.42	0.716
416.62	0.711
416.83	0.712
417.03	0.710
417.24	0.710
417.44	0.708
417.65	0.707
417.86	0.708
418.06	0.706
418.27	0.705
418.47	0.707
418.68	0.707
418.88	0.708
419.09	0.706
419.29	0.707
419.50	0.707
419.70	0.707
419.91	0.706
420.11	0.703
420.32	0.705
420.52	0.705
420.73	0.704
420.93	0.705
421.14	0.706
421.34	0.705
421.55	0.702
421.75	0.702
421.96	0.703
422.16	0.703
422.37	0.703
422.57	0.700
422.78	0.701
422.98	0.698
423.19	0.696
423.39	0.694
423.60	0.697
423.80	0.698
424.01	0.697
424.21	0.700
424.42	0.700
424.62	0.700
424.83	0.700
425.03	0.700
425.23	0.701
425.44	0.702
425.64	0.702
425.85	0.700
426.05	0.701
426.26	0.701
426.46	0.698
426.67	0.697
426.87	0.702
427.08	0.701
427.28	0.699
427.49	0.701
427.69	0.701
427.90	0.700
428.10	0.698
428.31	0.698
428.51	0.699
428.71	0.698
428.92	0.699
429.12	0.696
429.33	0.697
429.53	0.701
429.74	0.706
429.94	0.705
430.15	0.705
430.35	0.704
430.56	0.701
430.76	0.700
430.96	0.701
431.17	0.697
431.37	0.695
431.58	0.693
431.78	0.689
431.99	0.682
432.19	0.685
432.40	0.686
432.60	0.687
432.80	0.689
433.01	0.688
433.21	0.688
433.42	0.690
433.62	0.691
433.83	0.690
434.03	0.693
434.23	0.695
434.44	0.694
434.64	0.692
434.85	0.697
435.05	0.698
435.26	0.699
435.46	0.697
435.66	0.697
435.87	0.696
436.07	0.697
436.28	0.692
436.48	0.689
436.69	0.688
436.89	0.688
437.09	0.681
437.30	0.679
437.50	0.679
437.71	0.691
437.91	0.691
438.11	0.691
438.32	0.695
438.52	0.696
438.73	0.696
438.93	0.694
439.13	0.695
439.34	0.698
439.54	0.696
439.75	0.696
439.95	0.686
440.15	0.690
440.36	0.689
440.56	0.687
440.77	0.686
440.97	0.686
441.17	0.685
441.38	0.686
441.58	0.683
441.79	0.683
441.99	0.681
442.19	0.679
442.40	0.677
442.60	0.677
442.81	0.675
443.01	0.676
443.21	0.676
443.42	0.675
443.62	0.674
443.82	0.673
444.03	0.674
444.23	0.674
444.44	0.675
444.64	0.674
444.84	0.675
445.05	0.674
445.25	0.672
445.45	0.672
445.66	0.674
445.86	0.673
446.06	0.675
446.27	0.674
446.47	0.677
446.68	0.675
446.88	0.674
447.08	0.674
447.29	0.675
447.49	0.675
447.69	0.675
447.90	0.674
448.10	0.677
448.30	0.674
448.51	0.675
448.71	0.673
448.91	0.674
449.12	0.673
449.32	0.674
449.52	0.673
449.73	0.677
449.93	0.676
450.14	0.677
450.34	0.675
450.54	0.678
450.75	0.676
450.95	0.675
451.15	0.675
451.36	0.677
451.56	0.675
451.76	0.674
451.97	0.671
452.17	0.672
452.37	0.670
452.58	0.667
452.78	0.666
452.98	0.668
453.19	0.667
453.39	0.667
453.59	0.666
453.79	0.666
454.00	0.666
454.20	0.666
454.40	0.666
454.61	0.668
454.81	0.668
455.01	0.667
455.22	0.668
455.42	0.670
455.62	0.667
455.83	0.667
456.03	0.670
456.23	0.670
456.44	0.671
456.64	0.670
456.84	0.670
457.04	0.671
457.25	0.671
457.45	0.668
457.65	0.667
457.86	0.668
458.06	0.667
458.26	0.663
458.47	0.663
458.67	0.664
458.87	0.664
459.07	0.661
459.28	0.663
459.48	0.664
459.68	0.664
459.89	0.663
460.09	0.662
460.29	0.662
460.49	0.663
460.70	0.661
460.90	0.661
461.10	0.661
461.31	0.661
461.51	0.659
461.71	0.660
461.91	0.662
462.12	0.662
462.32	0.661
462.52	0.662
462.72	0.665
462.93	0.666
463.13	0.665
463.33	0.665
463.53	0.667
463.74	0.666
463.94	0.662
464.14	0.663
464.35	0.663
464.55	0.664
464.75	0.662
464.95	0.659
465.16	0.661
465.36	0.660
465.56	0.659
465.76	0.659
465.97	0.659
466.17	0.659
466.37	0.657
466.57	0.659
466.78	0.659
466.98	0.659
467.18	0.658
467.38	0.656
467.59	0.658
467.79	0.660
467.99	0.659
468.19	0.660
468.39	0.662
468.60	0.662
468.80	0.660
469.00	0.661
469.20	0.662
469.41	0.662
469.61	0.661
469.81	0.661
470.01	0.660
470.22	0.660
470.42	0.658
470.62	0.656
470.82	0.658
471.02	0.658
471.23	0.656
471.43	0.656
471.63	0.659
471.83	0.658
472.04	0.656
472.24	0.655
472.44	0.660
472.64	0.661
472.84	0.659
473.05	0.660
473.25	0.662
473.45	0.661
473.65	0.659
473.85	0.660
474.06	0.661
474.26	0.662
474.46	0.663
474.66	0.659
474.86	0.660
475.07	0.660
475.27	0.658
475.47	0.656
475.67	0.656
475.87	0.657
476.08	0.654
476.28	0.655
476.48	0.656
476.68	0.655
476.88	0.652
477.09	0.653
477.29	0.654
477.49	0.654
477.69	0.653
477.89	0.653
478.09	0.653
478.30	0.655
478.50	0.653
478.70	0.653
478.90	0.653
479.10	0.656
479.31	0.657
479.51	0.656
479.71	0.656
479.91	0.657
480.11	0.656
480.31	0.656
480.52	0.655
480.72	0.655
480.92	0.654
481.12	0.653
481.32	0.650
481.52	0.648
481.72	0.649
481.93	0.652
482.13	0.653
482.33	0.653
482.53	0.651
482.73	0.651
482.93	0.652
483.14	0.652
483.34	0.651
483.54	0.652
483.74	0.651
483.94	0.650
484.14	0.647
484.34	0.647
484.55	0.647
484.75	0.647
484.95	0.645
485.15	0.644
485.35	0.644
485.55	0.643
485.75	0.641
485.96	0.641
486.16	0.642
486.36	0.641
486.56	0.639
486.76	0.639
486.96	0.639
487.16	0.638
487.36	0.637
487.57	0.637
487.77	0.638
487.97	0.638
488.17	0.636
488.37	0.635
488.57	0.636
488.77	0.636
488.97	0.635
489.18	0.634
489.38	0.636
489.58	0.637
489.78	0.636
489.98	0.636
490.18	0.636
490.38	0.637
490.58	0.636
490.78	0.637
490.98	0.638
491.19	0.638
491.39	0.638
491.59	0.637
491.79	0.640
491.99	0.640
492.19	0.640
492.39	0.643
492.59	0.643
492.79	0.645
492.99	0.645
493.20	0.645
493.40	0.645
493.60	0.647
493.80	0.645
494.00	0.643
494.20	0.644
494.40	0.644
494.60	0.642
494.80	0.646
495.00	0.644
495.20	0.643
495.40	0.642
495.61	0.644
495.81	0.643
496.01	0.647
496.21	0.647
496.41	0.646
496.61	0.646
496.81	0.645
497.01	0.641
497.21	0.640
497.41	0.640
497.61	0.639
497.81	0.637
498.01	0.637
498.21	0.634
498.41	0.633
498.61	0.633
498.82	0.634
499.02	0.636
499.22	0.636
499.42	0.636
499.62	0.638
499.82	0.638
500.02	0.640
500.22	0.639
500.42	0.641
500.62	0.641
500.82	0.641
501.02	0.640
501.22	0.640
501.42	0.639
501.62	0.641
501.82	0.641
502.02	0.641
502.22	0.640
502.42	0.642
502.62	0.639
502.82	0.639
503.02	0.639
503.22	0.639
503.42	0.637
503.63	0.638
503.83	0.635
504.03	0.634
504.23	0.633
504.43	0.633
504.63	0.634
504.83	0.634
505.03	0.633
505.23	0.635
505.43	0.636
505.63	0.637
505.83	0.636
506.03	0.638
506.23	0.640
506.43	0.640
506.63	0.639
506.83	0.638
507.03	0.640
507.23	0.640
507.43	0.638
507.63	0.638
507.83	0.638
508.03	0.639
508.23	0.638
508.43	0.637
508.63	0.638
508.83	0.639
509.03	0.640
509.23	0.639
509.43	0.640
509.63	0.640
509.83	0.639
510.03	0.642
510.23	0.642
510.43	0.643
510.63	0.644
510.83	0.644
511.03	0.646
511.23	0.643
511.43	0.643
511.63	0.644
511.83	0.646
512.03	0.646
512.22	0.643
512.42	0.643
512.62	0.644
512.82	0.644
513.02	0.643
513.22	0.642
513.42	0.644
513.62	0.647
513.82	0.645
514.02	0.644
514.22	0.645
514.42	0.646
514.62	0.646
514.82	0.646
515.02	0.648
515.22	0.652
515.42	0.651
515.62	0.653
515.82	0.652
516.02	0.653
516.22	0.653
516.42	0.654
516.62	0.656
516.82	0.657
517.01	0.656
517.21	0.655
517.41	0.658
517.61	0.659
517.81	0.656
518.01	0.654
518.21	0.654
518.41	0.653
518.61	0.652
518.81	0.652
519.01	0.652
519.21	0.652
519.41	0.652
519.61	0.646
519.81	0.648
520.00	0.649
520.20	0.650
520.40	0.652
520.60	0.653
520.80	0.652
521.00	0.652
521.20	0.653
521.40	0.657
521.60	0.658
521.80	0.657
522.00	0.657
522.20	0.658
522.39	0.657
522.59	0.655
522.79	0.657
522.99	0.659
523.19	0.657
523.39	0.655
523.59	0.654
523.79	0.656
523.99	0.658
524.19	0.658
524.38	0.656
524.58	0.658
524.78	0.658
524.98	0.656
525.18	0.658
525.38	0.658
525.58	0.659
525.78	0.657
525.98	0.656
526.18	0.656
526.37	0.655
526.57	0.657
526.77	0.657
526.97	0.658
527.17	0.658
527.37	0.655
527.57	0.658
527.77	0.659
527.96	0.659
528.16	0.659
528.36	0.660
528.56	0.662
528.76	0.660
528.96	0.659
529.16	0.660
529.36	0.663
529.55	0.662
529.75	0.660
529.95	0.659
530.15	0.660
530.35	0.662
530.55	0.660
530.75	0.660
530.94	0.661
531.14	0.661
531.34	0.660
531.54	0.658
531.74	0.661
531.94	0.664
532.13	0.663
532.33	0.664
532.53	0.663
532.73	0.663
532.93	0.661
533.13	0.662
533.33	0.663
533.52	0.663
533.72	0.666
533.92	0.665
534.12	0.663
534.32	0.662
534.52	0.661
534.71	0.663
534.91	0.666
535.11	0.668
535.31	0.666
535.51	0.667
535.71	0.669
535.90	0.666
536.10	0.667
536.30	0.669
536.50	0.670
536.70	0.670
536.89	0.668
537.09	0.667
537.29	0.668
537.49	0.669
537.69	0.667
537.89	0.668
538.08	0.668
538.28	0.666
538.48	0.667
538.68	0.668
538.88	0.670
539.07	0.670
539.27	0.668
539.47	0.667
539.67	0.666
539.87	0.667
540.06	0.665
540.26	0.666
540.46	0.668
540.66	0.665
540.86	0.664
541.05	0.664
541.25	0.665
541.45	0.665
541.65	0.664
541.84	0.666
542.04	0.667
542.24	0.668
542.44	0.667
542.64	0.668
542.83	0.670
543.03	0.670
543.23	0.668
543.43	0.668
543.62	0.670
543.82	0.669
544.02	0.669
544.22	0.668
544.42	0.671
544.61	0.671
544.81	0.668
545.01	0.668
545.21	0.670
545.40	0.671
545.60	0.670
545.80	0.673
546.00	0.673
546.19	0.672
546.39	0.671
546.59	0.669
546.79	0.670
546.98	0.670
547.18	0.670
547.38	0.670
547.58	0.672
547.77	0.672
547.97	0.668
548.17	0.670
548.37	0.671
548.56	0.671
548.76	0.670
548.96	0.672
549.16	0.674
549.35	0.674
549.55	0.672
549.75	0.673
549.95	0.676
550.14	0.676
550.34	0.674
550.54	0.679
550.73	0.682
550.93	0.683
551.13	0.680
551.33	0.679
551.52	0.680
551.72	0.681
551.92	0.679
552.12	0.679
552.31	0.680
552.51	0.680
552.71	0.676
552.90	0.676
553.10	0.677
553.30	0.677
553.50	0.676
553.69	0.677
553.89	0.676
554.09	0.676
554.28	0.673
554.48	0.675
554.68	0.676
554.87	0.676
555.07	0.673
555.27	0.672
555.47	0.673
555.66	0.674
555.86	0.673
556.06	0.675
556.25	0.676
556.45	0.684
556.65	0.682
556.84	0.684
557.04	0.688
557.24	0.689
557.43	0.689
557.63	0.692
557.83	0.694
558.02	0.695
558.22	0.699
558.42	0.700
558.61	0.693
558.81	0.694
559.01	0.691
559.21	0.691
559.40	0.691
559.60	0.692
559.80	0.688
559.99	0.690
560.19	0.692
560.39	0.686
560.58	0.684
560.78	0.684
560.97	0.687
561.17	0.686
561.37	0.684
561.56	0.685
561.76	0.686
561.96	0.685
562.15	0.682
562.35	0.684
562.55	0.685
562.74	0.685
562.94	0.684
563.14	0.682
563.33	0.683
563.53	0.682
563.73	0.680
563.92	0.682
564.12	0.684
564.31	0.686
564.51	0.684
564.71	0.685
564.90	0.688
565.10	0.688
565.30	0.691
565.49	0.692
565.69	0.694
565.89	0.694
566.08	0.692
566.28	0.694
566.47	0.696
566.67	0.695
566.87	0.694
567.06	0.695
567.26	0.701
567.46	0.697
567.65	0.697
567.85	0.699
568.04	0.701
568.24	0.701
568.44	0.698
568.63	0.696
568.83	0.696
569.02	0.694
569.22	0.690
569.42	0.686
569.61	0.688
569.81	0.687
570.00	0.685
570.20	0.686
570.40	0.687
570.59	0.687
570.79	0.685
570.98	0.683
571.18	0.685
571.38	0.684
571.57	0.682
571.77	0.680
571.96	0.684
572.16	0.681
572.35	0.676
572.55	0.677
572.75	0.675
572.94	0.674
573.14	0.673
573.33	0.673
573.53	0.673
573.73	0.672
573.92	0.671
574.12	0.669
574.31	0.671
574.51	0.673
574.70	0.671
574.90	0.673
575.09	0.675
575.29	0.675
575.49	0.673
575.68	0.673
575.88	0.674
576.07	0.676
576.27	0.674
576.46	0.672
576.66	0.670
576.86	0.669
577.05	0.667
577.25	0.665
577.44	0.667
577.64	0.667
577.83	0.665
578.03	0.667
578.22	0.667
578.42	0.666
578.61	0.665
578.81	0.665
579.00	0.666
579.20	0.665
579.40	0.664
579.59	0.663
579.79	0.663
579.98	0.662
580.18	0.661
580.37	0.661
580.57	0.663
580.76	0.667
580.96	0.666
581.15	0.667
581.35	0.668
581.54	0.668
581.74	0.668
581.93	0.669
582.13	0.670
582.32	0.667
582.52	0.665
582.71	0.664
582.91	0.660
583.10	0.659
583.30	0.658
583.49	0.658
583.69	0.661
583.88	0.662
584.08	0.662
584.27	0.665
584.47	0.667
584.66	0.669
584.86	0.669
585.05	0.671
585.25	0.673
585.44	0.673
585.64	0.672
585.83	0.668
586.03	0.668
586.22	0.666
586.42	0.661
586.61	0.663
586.81	0.664
587.00	0.663
587.20	0.661
587.39	0.661
587.59	0.663
587.78	0.664
587.98	0.665
588.17	0.665
588.37	0.668
588.56	0.669
588.76	0.665
588.95	0.665
589.15	0.670
589.34	0.672
589.54	0.671
589.73	0.673
589.92	0.676
590.12	0.676
590.31	0.675
590.51	0.681
590.70	0.683
590.90	0.684
591.09	0.682
591.29	0.681
591.48	0.680
591.68	0.681
591.87	0.680
592.06	0.679
592.26	0.681
592.45	0.680
592.65	0.674
592.84	0.673
593.04	0.675
593.23	0.677
593.43	0.675
593.62	0.674
593.81	0.674
594.01	0.673
594.20	0.671
594.40	0.669
594.59	0.671
594.79	0.672
594.98	0.670
595.17	0.669
595.37	0.670
595.56	0.672
595.76	0.672
595.95	0.674
596.14	0.677
596.34	0.678
596.53	0.677
596.73	0.680
596.92	0.681
597.12	0.684
597.31	0.684
597.50	0.683
597.70	0.685
597.89	0.684
598.09	0.681
598.28	0.682
598.47	0.684
598.67	0.682
598.86	0.679
599.06	0.680
599.25	0.680
599.44	0.678
599.64	0.676
599.83	0.673
600.03	0.675
600.22	0.676
600.41	0.675
600.61	0.673
600.80	0.675
601.00	0.676
601.19	0.671
601.38	0.670
601.58	0.672
601.77	0.674
601.96	0.676
602.16	0.676
602.35	0.684
602.55	0.682
602.74	0.684
602.93	0.685
603.13	0.690
603.32	0.692
603.51	0.693
603.71	0.697
603.90	0.698
604.09	0.698
604.29	0.696
604.48	0.690
604.68	0.691
604.87	0.690
605.06	0.687
605.26	0.684
605.45	0.684
605.64	0.683
605.84	0.678
606.03	0.677
606.22	0.675
606.42	0.675
606.61	0.672
606.80	0.672
607.00	0.673
607.19	0.672
607.38	0.671
607.58	0.672
607.77	0.673
607.96	0.673
608.16	0.671
608.35	0.676
608.54	0.678
608.74	0.681
608.93	0.686
609.12	0.689
609.32	0.692
609.51	0.695
609.70	0.694
609.90	0.696
610.09	0.701
610.28	0.706
610.48	0.700
610.67	0.702
610.86	0.703
611.06	0.697
611.25	0.695
611.44	0.696
611.64	0.696
611.83	0.699
612.02	0.696
612.21	0.694
612.41	0.692
612.60	0.692
612.79	0.688
612.99	0.688
613.18	0.690
613.37	0.688
613.57	0.686
613.76	0.687
613.95	0.684
614.14	0.684
614.34	0.682
614.53	0.682
614.72	0.684
614.92	0.684
615.11	0.682
615.30	0.678
615.49	0.679
615.69	0.681
615.88	0.678
616.07	0.679
616.26	0.680
616.46	0.681
616.65	0.679
616.84	0.677
617.04	0.678
617.23	0.682
617.42	0.683
617.61	0.686
617.81	0.686
618.00	0.689
618.19	0.687
618.38	0.691
618.58	0.695
618.77	0.697
618.96	0.697
619.15	0.699
619.35	0.700
619.54	0.701
619.73	0.697
619.92	0.699
620.12	0.704
620.31	0.704
620.50	0.700
620.69	0.699
620.89	0.702
621.08	0.703
621.27	0.703
621.46	0.701
621.66	0.705
621.85	0.706
622.04	0.702
622.23	0.703
622.43	0.704
622.62	0.704
622.81	0.703
623.00	0.702
623.19	0.704
623.39	0.703
623.58	0.701
623.77	0.700
623.96	0.702
624.16	0.702
624.35	0.697
624.54	0.699
624.73	0.702
624.92	0.700
625.12	0.698
625.31	0.698
625.50	0.701
625.69	0.701
625.88	0.697
626.08	0.696
626.27	0.697
626.46	0.697
626.65	0.694
626.84	0.694
627.04	0.699
627.23	0.699
627.42	0.696
627.61	0.698
627.80	0.700
628.00	0.700
628.19	0.698
628.38	0.701
628.57	0.703
628.76	0.702
628.96	0.699
629.15	0.699
629.34	0.702
629.53	0.703
629.72	0.698
629.91	0.698
630.11	0.701
630.30	0.702
630.49	0.705
630.68	0.706
630.87	0.711
631.06	0.714
631.26	0.709
631.45	0.710
631.64	0.717
631.83	0.719
632.02	0.718
632.21	0.717
632.41	0.724
632.60	0.719
632.79	0.718
632.98	0.718
633.17	0.718
633.36	0.720
633.55	0.717
633.75	0.714
633.94	0.716
634.13	0.715
634.32	0.713
634.51	0.708
634.70	0.710
634.89	0.709
635.09	0.706
635.28	0.706
635.47	0.706
635.66	0.709
635.85	0.705
636.04	0.706
636.23	0.710
636.43	0.711
636.62	0.711
636.81	0.709
637.00	0.711
637.19	0.714
637.38	0.711
637.57	0.711
637.76	0.712
637.95	0.713
638.15	0.710
638.34	0.706
638.53	0.707
638.72	0.708
638.91	0.706
639.10	0.705
639.29	0.704
639.48	0.705
639.67	0.706
639.87	0.704
640.06	0.709
640.25	0.709
640.44	0.710
640.63	0.711
640.82	0.712
641.01	0.713
641.20	0.713
641.39	0.716
641.58	0.717
641.78	0.715
641.97	0.713
642.16	0.726
642.35	0.727
642.54	0.725
642.73	0.722
642.92	0.720
643.11	0.723
643.30	0.723
643.49	0.717
643.68	0.720
643.87	0.721
644.06	0.720
644.25	0.701
644.45	0.704
644.64	0.705
644.83	0.705
645.02	0.703
645.21	0.702
645.40	0.702
645.59	0.703
645.78	0.698
645.97	0.700
646.16	0.702
646.35	0.701
646.54	0.699
646.73	0.701
646.92	0.702
647.11	0.701
647.30	0.698
647.49	0.700
647.68	0.698
647.88	0.697
648.07	0.691
648.26	0.694
648.45	0.695
648.64	0.691
648.83	0.688
649.02	0.691
649.21	0.700
649.40	0.699
649.59	0.694
649.78	0.696
649.97	0.709
650.16	0.708
650.35	0.703
650.54	0.706
650.73	0.714
650.92	0.711
651.11	0.705
651.30	0.702
651.49	0.705
651.68	0.706
651.87	0.703
652.06	0.693
652.25	0.697
652.44	0.700
652.63	0.701
652.82	0.703
653.01	0.704
653.20	0.704
653.39	0.693
653.58	0.691
653.77	0.691
653.96	0.686
654.15	0.679
654.34	0.677
654.53	0.671
654.72	0.664
654.91	0.654
655.10	0.649
655.29	0.646
655.48	0.644
655.67	0.639
655.86	0.636
656.05	0.634
656.24	0.634
656.43	0.629
656.62	0.627
656.81	0.626
657.00	0.622
657.19	0.618
657.38	0.617
657.57	0.615
657.76	0.616
657.95	0.613
658.14	0.616
658.33	0.617
658.51	0.621
658.70	0.621
658.89	0.623
659.08	0.634
659.27	0.643
659.46	0.645
659.65	0.651
659.84	0.655
660.03	0.659
660.22	0.661
660.41	0.665
660.60	0.665
660.79	0.665
660.98	0.671
661.17	0.669
661.36	0.668
661.55	0.669
661.74	0.668
661.92	0.671
662.11	0.673
662.30	0.672
662.49	0.666
662.68	0.666
662.87	0.669
663.06	0.663
663.25	0.666
663.44	0.666
663.63	0.666
663.82	0.665
664.01	0.660
664.20	0.659
664.38	0.660
664.57	0.660
664.76	0.660
664.95	0.660
665.14	0.665
665.33	0.660
665.52	0.667
665.71	0.671
665.90	0.670
666.09	0.671
666.28	0.668
666.46	0.667
666.65	0.667
666.84	0.665
667.03	0.659
667.22	0.656
667.41	0.659
667.60	0.649
667.79	0.642
667.98	0.643
668.16	0.644
668.35	0.644
668.54	0.641
668.73	0.642
668.92	0.643
669.11	0.642
669.30	0.638
669.49	0.634
669.67	0.636
669.86	0.639
670.05	0.637
670.24	0.636
670.43	0.633
670.62	0.632
670.81	0.628
671.00	0.629
671.18	0.628
671.37	0.627
671.56	0.625
671.75	0.624
671.94	0.620
672.13	0.617
672.32	0.614
672.50	0.613
672.69	0.613
672.88	0.614
673.07	0.609
673.26	0.611
673.45	0.612
673.63	0.612
673.82	0.609
674.01	0.610
674.20	0.610
674.39	0.609
674.58	0.609
674.76	0.609
674.95	0.607
675.14	0.607
675.33	0.603
675.52	0.601
675.71	0.602
675.89	0.601
676.08	0.597
676.27	0.597
676.46	0.596
676.65	0.595
676.84	0.595
677.02	0.597
677.21	0.598
677.40	0.597
677.59	0.595
677.78	0.595
677.96	0.598
678.15	0.597
678.34	0.596
678.53	0.597
678.72	0.597
678.90	0.594
679.09	0.590
679.28	0.588
679.47	0.588
679.66	0.588
679.84	0.584
680.03	0.581
680.22	0.580
680.41	0.581
680.60	0.578
680.78	0.577
680.97	0.579
681.16	0.579
681.35	0.578
681.53	0.577
681.72	0.577
681.91	0.579
682.10	0.578
682.29	0.580
682.47	0.578
682.66	0.576
682.85	0.575
683.04	0.573
683.22	0.573
683.41	0.575
683.60	0.573
683.79	0.574
683.97	0.573
684.16	0.572
684.35	0.569
684.54	0.570
684.72	0.571
684.91	0.572
685.10	0.571
685.29	0.572
685.47	0.568
685.66	0.568
685.85	0.565
686.04	0.564
686.22	0.566
686.41	0.569
686.60	0.566
686.79	0.568
686.97	0.568
687.16	0.570
687.35	0.568
687.54	0.572
687.72	0.576
687.91	0.576
688.10	0.578
688.29	0.577
688.47	0.576
688.66	0.576
688.85	0.572
689.03	0.570
689.22	0.575
689.41	0.575
689.60	0.570
689.78	0.567
689.97	0.567
690.16	0.564
690.34	0.561
690.53	0.561
690.72	0.561
690.91	0.559
691.09	0.558
691.28	0.552
691.47	0.549
691.65	0.549
691.84	0.546
692.03	0.545
692.21	0.543
692.40	0.542
692.59	0.539
692.77	0.538
692.96	0.539
693.15	0.540
693.34	0.537
693.52	0.537
693.71	0.538
693.90	0.539
694.08	0.540
694.27	0.541
694.46	0.550
694.64	0.551
694.83	0.550
695.02	0.549
695.20	0.549
695.39	0.550
695.58	0.549
695.76	0.549
695.95	0.548
696.14	0.547
696.32	0.545
696.51	0.536
696.70	0.536
696.88	0.537
697.07	0.536
697.26	0.537
697.44	0.538
697.63	0.537
697.81	0.536
698.00	0.535
698.19	0.534
698.37	0.535
698.56	0.534
698.75	0.534
698.93	0.533
699.12	0.533
699.31	0.533
699.49	0.532
699.68	0.532
699.87	0.535
700.05	0.535
700.24	0.535
700.42	0.536
700.61	0.535
700.80	0.534
700.98	0.534
701.17	0.535
701.36	0.534
701.54	0.534
701.73	0.535
701.91	0.533
702.10	0.533
702.29	0.531
702.47	0.529
702.66	0.531
702.84	0.532
703.03	0.530
703.22	0.531
703.40	0.531
703.59	0.532
703.77	0.532
703.96	0.531
704.15	0.531
704.33	0.532
704.52	0.532
704.70	0.531
704.89	0.530
705.08	0.529
705.26	0.526
705.45	0.526
705.63	0.525
705.82	0.522
706.00	0.521
706.19	0.520
706.38	0.520
706.56	0.519
706.75	0.517
706.93	0.517
707.12	0.518
707.30	0.518
707.49	0.516
707.68	0.513
707.86	0.513
708.05	0.513
708.23	0.510
708.42	0.511
708.60	0.513
708.79	0.513
708.98	0.511
709.16	0.510
709.35	0.512
709.53	0.515
709.72	0.514
709.90	0.516
710.09	0.517
710.27	0.519
710.46	0.523
710.64	0.522
710.83	0.523
711.02	0.525
711.20	0.525
711.39	0.523
711.57	0.520
711.76	0.521
711.94	0.520
712.13	0.522
712.31	0.521
712.50	0.516
712.68	0.514
712.87	0.515
713.05	0.515
713.24	0.515
713.42	0.515
713.61	0.516
713.79	0.516
713.98	0.517
714.16	0.517
714.35	0.517
714.54	0.518
714.72	0.518
714.91	0.516
715.09	0.523
715.28	0.525
715.46	0.525
715.65	0.522
715.83	0.522
716.02	0.525
716.20	0.522
716.39	0.520
716.57	0.521
716.76	0.524
716.94	0.524
717.12	0.516
717.31	0.518
717.49	0.521
717.68	0.523
717.86	0.522
718.05	0.524
718.23	0.526
718.42	0.528
718.60	0.530
718.79	0.537
718.97	0.540
719.16	0.540
719.34	0.537
719.53	0.537
719.71	0.536
719.90	0.537
720.08	0.534
720.27	0.534
720.45	0.533
720.63	0.531
720.82	0.526
721.00	0.528
721.19	0.531
721.37	0.531
721.56	0.532
721.74	0.535
721.93	0.543
722.11	0.548
722.30	0.548
722.48	0.552
722.66	0.553
722.85	0.552
723.03	0.552
723.22	0.550
723.40	0.552
723.59	0.552
723.77	0.557
723.95	0.550
724.14	0.553
724.32	0.554
724.51	0.555
724.69	0.557
724.88	0.557
725.06	0.555
725.24	0.556
725.43	0.559
725.61	0.560
725.80	0.554
725.98	0.554
726.16	0.550
726.35	0.555
726.53	0.553
726.72	0.552
726.90	0.562
727.09	0.563
727.27	0.569
727.45	0.566
727.64	0.576
727.82	0.582
728.01	0.586
728.19	0.584
728.37	0.589
728.56	0.593
728.74	0.599
728.92	0.588
729.11	0.590
729.29	0.588
729.48	0.591
729.66	0.581
729.84	0.583
730.03	0.585
730.21	0.587
730.40	0.579
730.58	0.580
730.76	0.581
730.95	0.583
731.13	0.584
731.31	0.597
731.50	0.605
731.68	0.608
731.86	0.606
732.05	0.619
732.23	0.623
732.42	0.625
732.60	0.629
732.78	0.632
732.97	0.649
733.15	0.656
733.33	0.643
733.52	0.648
733.70	0.657
733.88	0.665
734.07	0.653
734.25	0.677
734.43	0.684
734.62	0.686
734.80	0.684
734.98	0.675
735.17	0.681
735.35	0.688
735.53	0.679
735.72	0.682
735.90	0.700
736.08	0.718
736.27	0.698
736.45	0.705
736.63	0.715
736.82	0.724
737.00	0.724
737.18	0.731
737.37	0.759
737.55	0.780
737.73	0.775
737.92	0.777
738.10	0.774
738.28	0.791
738.46	0.782
738.65	0.794
738.83	0.813
739.01	0.864
739.20	0.857
739.38	0.840
739.56	0.828
739.75	0.837
739.93	0.808
740.11	0.828
740.29	0.823
740.48	0.830
740.66	0.813
740.84	0.804
741.03	0.765
741.21	0.775
741.39	0.763
741.57	0.774
741.76	0.783
741.94	0.788
742.12	0.761
742.31	0.766
742.49	0.782
742.67	0.802
742.85	0.821
743.04	0.829
743.22	0.840
743.40	0.886
743.58	0.876
743.77	0.894
743.95	0.922
744.13	0.967
744.31	0.948
744.50	0.943
744.68	0.937
744.86	0.911
745.04	0.927
745.23	0.981
745.41	0.958
745.59	0.962
745.77	0.930
745.96	0.917
746.14	0.924
746.32	0.928
746.50	0.927
746.69	0.913
746.87	0.915
747.05	0.898
747.23	0.833
747.42	0.819
747.60	0.837
747.78	0.841
747.96	0.873
748.14	0.836
748.33	0.859
748.51	0.851
748.69	0.846
748.87	0.869
749.06	0.864
749.24	0.864
749.42	0.854
749.60	0.839
749.78	0.843
749.97	0.803
750.15	0.795
750.33	0.795
750.51	0.816
750.69	0.823
750.88	0.837
751.06	0.844
751.24	0.864
751.42	0.856
751.60	0.853
751.79	0.918
751.97	0.957
752.15	0.961
752.33	0.936
752.51	0.992
752.69	0.998
752.88	0.965
753.06	1.011
753.24	0.993
753.42	1.021
753.60	1.164
753.78	1.042
753.97	1.060
754.15	1.064
754.33	1.090
754.51	0.985
754.69	0.973
754.87	1.000
755.06	0.938
755.24	0.939
755.42	0.951
755.60	0.859
755.78	0.870
755.96	0.823
756.15	0.824
756.33	0.824
756.51	0.843
756.69	0.837
756.87	0.804
757.05	0.817
757.23	0.802
757.42	0.772
757.60	0.771
757.78	0.758
757.96	0.757
758.14	0.743
758.32	0.730
758.50	0.737
758.69	0.733
758.87	0.727
759.05	0.731
759.23	0.738
759.41	0.738
759.59	0.732
759.77	0.751
759.95	0.772
760.13	0.817
760.32	0.816
760.50	0.816
760.68	0.832
760.86	0.833
761.04	0.814
761.22	0.819
761.40	0.861
761.58	0.864
761.76	0.843
761.95	0.826
762.13	0.783
762.31	0.784
762.49	0.754
762.67	0.774
762.85	0.780
763.03	0.774
763.21	0.758
763.39	0.741
763.57	0.741
763.75	0.735
763.94	0.726
764.12	0.731
764.30	0.753
764.48	0.759
764.66	0.726
764.84	0.726
765.02	0.757
765.20	0.764
765.38	0.748
765.56	0.753
765.74	0.787
765.92	0.783
766.10	0.788
766.28	0.778
766.46	0.801
766.65	0.802
766.83	0.793
767.01	0.780
767.19	0.784
767.37	0.784
767.55	0.772
767.73	0.754
767.91	0.756
768.09	0.746
768.27	0.739
768.45	0.730
768.63	0.733
768.81	0.736
768.99	0.712
769.17	0.730
769.35	0.742
769.53	0.742
769.71	0.726
769.89	0.733
770.07	0.736
770.25	0.721
770.43	0.703
770.61	0.723
770.79	0.728
770.97	0.741
771.15	0.717
771.33	0.719
771.51	0.720
771.69	0.732
771.87	0.740
772.05	0.746
772.24	0.750
772.42	0.760
772.60	0.740
772.78	0.791
772.96	0.809
773.14	0.806
773.32	0.788
773.49	0.793
773.67	0.788
773.85	0.769
774.03	0.760
774.21	0.789
774.39	0.795
774.57	0.815
774.75	0.755
774.93	0.751
775.11	0.767
775.29	0.773
775.47	0.778
775.65	0.785
775.83	0.799
776.01	0.821
776.19	0.781
776.37	0.783
776.55	0.783
776.73	0.781
776.91	0.779
777.09	0.763
777.27	0.760
777.45	0.749
777.63	0.733
777.81	0.729
777.99	0.713
778.17	0.713
778.35	0.695
778.53	0.682
778.71	0.685
778.89	0.675
779.07	0.667
779.24	0.672
779.42	0.672
779.60	0.687
779.78	0.686
779.96	0.692
780.14	0.697
780.32	0.715
780.50	0.700
780.68	0.697
780.86	0.690
781.04	0.706
781.22	0.712
781.40	0.719
781.58	0.708
781.75	0.702
781.93	0.689
782.11	0.689
782.29	0.676
782.47	0.678
782.65	0.669
782.83	0.692
783.01	0.685
783.19	0.678
783.37	0.667
783.55	0.672
783.72	0.686
783.90	0.696
784.08	0.689
784.26	0.698
784.44	0.714
784.62	0.717
784.80	0.689
784.98	0.693
785.16	0.695
785.33	0.709
785.51	0.697
785.69	0.687
785.87	0.686
786.05	0.696
786.23	0.694
786.41	0.690
786.59	0.697
786.77	0.696
786.94	0.685
787.12	0.689
787.30	0.687
787.48	0.685
787.66	0.677
787.84	0.678
788.02	0.666
788.19	0.664
788.37	0.653
788.55	0.654
788.73	0.654
788.91	0.650
789.09	0.637
789.27	0.629
789.44	0.639
789.62	0.643
789.80	0.651
789.98	0.674
790.16	0.664
790.34	0.661
790.51	0.649
790.69	0.668
790.87	0.674
791.05	0.670
791.23	0.664
791.41	0.664
791.58	0.668
791.76	0.650
791.94	0.624
792.12	0.632
792.30	0.632
792.48	0.630
792.65	0.625
792.83	0.631
793.01	0.638
793.19	0.637
793.37	0.623
793.54	0.620
793.72	0.627
793.90	0.626
794.08	0.616
794.26	0.617
794.43	0.624
794.61	0.608
794.79	0.597
794.97	0.593
795.15	0.596
795.32	0.600
795.50	0.590
795.68	0.587
795.86	0.589
796.04	0.590
796.21	0.587
796.39	0.585
796.57	0.596
796.75	0.603
796.92	0.607
797.10	0.612
797.28	0.611
797.46	0.615
797.64	0.616
797.81	0.625
797.99	0.628
798.17	0.632
798.35	0.630
798.52	0.633
798.70	0.631
798.88	0.639
799.06	0.639
799.23	0.644
799.41	0.648
799.59	0.643
799.77	0.631
799.94	0.638
800.12	0.645
800.30	0.660
800.48	0.659
800.65	0.659
800.83	0.649
801.01	0.640
801.19	0.640
801.36	0.638
801.54	0.639
801.72	0.649
801.90	0.640
802.07	0.636
802.25	0.622
802.43	0.607
802.60	0.603
802.78	0.609
802.96	0.613
803.14	0.610
803.31	0.611
803.49	0.613
803.67	0.608
803.84	0.611
804.02	0.604
804.20	0.608
804.38	0.613
804.55	0.612
804.73	0.599
804.91	0.600
805.08	0.608
805.26	0.605
805.44	0.666
805.61	0.669
805.79	0.668
805.97	0.667
806.15	0.660
806.32	0.656
806.50	0.662
806.68	0.663
806.85	0.656
807.03	0.647
807.21	0.663
807.38	0.598
807.56	0.589
807.74	0.598
807.91	0.603
808.09	0.605
808.27	0.621
808.44	0.644
808.62	0.651
808.80	0.653
808.97	0.650
809.15	0.644
809.33	0.657
809.50	0.666
809.68	0.653
809.86	0.661
810.03	0.687
810.21	0.669
810.39	0.654
810.56	0.660
810.74	0.681
810.91	0.747
811.09	0.735
811.27	0.753
811.44	0.754
811.62	0.756
811.80	0.743
811.97	0.718
812.15	0.716
812.33	0.713
812.50	0.701
812.68	0.689
812.85	0.637
813.03	0.640
813.21	0.614
813.38	0.610
813.56	0.611
813.74	0.620
813.91	0.626
814.09	0.654
814.26	0.645
814.44	0.648
814.62	0.640
814.79	0.642
814.97	0.645
815.14	0.652
815.32	0.655
815.50	0.668
815.67	0.671
815.85	0.663
816.02	0.653
816.20	0.661
816.38	0.672
816.55	0.678
816.73	0.679
816.90	0.691
817.08	0.714
817.26	0.719
817.43	0.704
817.61	0.726
817.78	0.741
817.96	0.724
818.13	0.714
818.31	0.716
818.49	0.725
818.66	0.716
818.84	0.703
819.01	0.683
819.19	0.685
819.36	0.687
819.54	0.662
819.71	0.698
819.89	0.709
820.07	0.721
820.24	0.717
820.42	0.715
820.59	0.731
820.77	0.750
820.94	0.744
821.12	0.760
821.29	0.771
821.47	0.773
821.64	0.718
821.82	0.730
822.00	0.730
822.17	0.728
822.35	0.728
822.52	0.730
822.70	0.721
822.87	0.728
823.05	0.713
823.22	0.722
823.40	0.742
823.57	0.766
823.75	0.749
823.92	0.766
824.10	0.780
824.27	0.815
824.45	0.811
824.62	0.865
824.80	0.882
824.97	0.893
825.15	0.886
825.32	0.900
825.50	0.898
825.67	0.910
825.85	0.892
826.02	0.905
826.20	0.915
826.37	1.021
826.55	0.951
826.72	1.099
826.90	1.149
827.07	1.198
827.25	1.153
827.42	1.271
827.60	1.346
827.77	1.453
827.95	1.447
828.12	1.516
828.30	1.268
828.47	1.367
828.65	1.123
828.82	1.152
829.00	1.174
829.17	1.233
829.34	1.229
829.52	1.249
829.69	-0.000
829.87	-0.000
830.04	-0.000
830.22	-0.000
830.39	-0.000
830.57	-0.000
830.74	-0.000
830.92	-0.000
831.09	-0.000
831.26	-0.000
831.44	-0.000
831.61	-0.000
831.79	-0.000
831.96	-0.000
832.14	-0.000
832.31	-0.000
832.49	-0.000
832.66	-0.000
832.83	-0.000
833.01	-0.000
833.18	-0.000
833.36	-0.000
833.53	-0.000
833.70	-0.000
833.88	-0.000
834.05	-0.000
834.23	-0.000
834.40	-0.000
834.58	-0.000
834.75	-0.000
834.92	-0.000
835.10	-0.000
835.27	-0.000
835.45	-0.000
835.62	-0.000
835.79	-0.000
835.97	-0.000
836.14	-0.000
836.32	-0.000
836.49	-0.000
836.66	-0.000
836.84	-0.000
837.01	-0.000
837.18	-0.000
837.36	-0.000
837.53	-0.000
837.71	-0.000
837.88	-0.000
838.05	-0.000
838.23	-0.000
838.40	-0.000
838.58	-0.000
838.75	-0.000
838.92	-0.000
839.10	-0.000
839.27	-0.000
839.44	-0.000
839.62	-0.000
839.79	-0.000
839.96	-0.000
840.14	-0.000
840.31	-0.000
840.48	-0.000
840.66	-0.000
840.83	-0.000
841.01	-0.000
841.18	-0.000
841.35	-0.000
841.53	-0.000
841.70	-0.000
841.87	-0.000
842.05	-0.000
842.22	-0.000
842.39	-0.000
842.57	-0.000
842.74	-0.000
842.91	-0.000
843.09	-0.000
843.26	-0.000
843.43	-0.000
843.60	-0.000
843.78	-0.000
843.95	-0.000
844.12	-0.000
844.30	-0.000
844.47	-0.000
844.64	-0.000
844.82	-0.000
844.99	-0.000
845.16	-0.000
845.34	-0.000
845.51	-0.000
845.68	-0.000
845.85	-0.000
846.03	-0.000
846.20	-0.000
846.37	-0.000
846.55	-0.000
846.72	-0.000
846.89	-0.000
847.06	-0.000
847.24	-0.000
847.41	-0.000
847.58	-0.000
847.76	-0.000
847.93	-0.000
848.10	-0.000
848.27	-0.000
848.45	-0.000
848.62	-0.000
848.79	-0.000
848.97	-0.000
849.14	-0.000
849.31	-0.000
849.48	-0.000
849.66	-0.000
849.83	-0.000
850.00	-0.000
850.17	-0.000
850.35	-0.000
850.52	-0.000
850.69	-0.000
850.86	-0.000
851.04	-0.000
851.21	-0.000
851.38	-0.000
851.55	-0.000
851.72	-0.000
851.90	-0.000
852.07	-0.000
852.24	-0.000
852.41	-0.000
852.59	-0.000
852.76	-0.000
852.93	-0.000
853.10	-0.000
853.28	-0.000
853.45	-0.000
853.62	-0.000
853.79	-0.000
853.96	-0.000
854.14	-0.000
854.31	-0.000
854.48	-0.000
854.65	-0.000
854.82	-0.000
855.00	-0.000
855.17	-0.000
855.34	-0.000
855.51	-0.000
855.68	-0.000
855.86	-0.000
856.03	-0.000
856.20	-0.000
856.37	-0.000
856.54	-0.000
856.72	-0.000
856.89	-0.000
857.06	-0.000
857.23	-0.000
857.40	-0.000
857.57	-0.000
857.75	-0.000
857.92	-0.000
858.09	-0.000
858.26	-0.000
858.43	-0.000
858.60	-0.000
858.78	-0.000
858.95	-0.000
859.12	-0.000
859.29	-0.000
859.46	-0.000
859.63	-0.000
859.81	-0.000
859.98	-0.000
860.15	-0.000
860.32	-0.000
860.49	-0.000
860.66	-0.000
860.83	-0.000
861.01	-0.000
861.18	-0.000
861.35	-0.000
861.52	-0.000
861.69	-0.000
861.86	-0.000
862.03	-0.000
862.21	-0.000
862.38	-0.000
862.55	-0.000
862.72	-0.000
862.89	-0.000
863.06	-0.000
863.23	-0.000
863.40	-0.000
863.58	-0.000
863.75	-0.000
863.92	-0.000
864.09	-0.000
864.26	-0.000
864.43	-0.000
864.60	-0.000
864.77	-0.000
864.94	-0.000
865.11	-0.000
865.29	-0.000
865.46	-0.000
865.63	-0.000
865.80	-0.000
865.97	-0.000
866.14	-0.000
866.31	-0.000
866.48	-0.000
866.65	-0.000
866.82	-0.000
866.99	-0.000
867.16	-0.000
867.34	-0.000
867.51	-0.000
867.68	-0.000
867.85	-0.000
868.02	-0.000
868.19	-0.000
868.36	-0.000
868.53	-0.000
868.70	-0.000
868.87	-0.000
869.04	-0.000
869.21	-0.000
869.38	-0.000
869.55	-0.000
869.72	-0.000
869.89	-0.000
870.06	-0.000
870.24	-0.000
870.41	-0.000
870.58	-0.000
870.75	-0.000
870.92	-0.000
871.09	-0.000
871.26	-0.000
871.43	-0.000
871.60	-0.000
871.77	-0.000
871.94	-0.000
872.11	-0.000
872.28	-0.000
872.45	-0.000
872.62	-0.000
872.79	-0.000
872.96	-0.000
873.13	-0.000
873.30	-0.000
873.47	-0.000
873.64	-0.000
873.81	-0.000
873.98	-0.000
874.15	-0.000
874.32	-0.000
874.49	-0.000
874.66	-0.000
874.83	-0.000
875.00	-0.000
875.17	-0.000
875.34	-0.000
875.51	-0.000
875.68	-0.000
875.85	-0.000
876.02	-0.000
876.19	-0.000
876.36	-0.000
876.53	-0.000
876.70	-0.000
876.87	-0.000
877.04	-0.000
877.21	-0.000
877.38	-0.000
877.55	-0.000
877.72	-0.000
877.89	-0.000
878.06	-0.000
878.23	-0.000
878.39	-0.000
878.56	-0.000
878.73	-0.000
878.90	-0.000
879.07	-0.000
879.24	-0.000
879.41	-0.000
879.58	-0.000
879.75	-0.000
879.92	-0.000
880.09	-0.000
880.26	-0.000
880.43	-0.000
880.60	-0.000
880.77	-0.000
880.94	-0.000
881.11	-0.000
881.27	-0.000
881.44	-0.000
881.61	-0.000
881.78	-0.000
881.95	-0.000
882.12	-0.000
882.29	-0.000
882.46	-0.000
882.63	-0.000
882.80	-0.000
882.97	-0.000
883.14	-0.000
883.30	-0.000
883.47	-0.000
883.64	-0.000
883.81	-0.000
883.98	-0.000
884.15	-0.000
884.32	-0.000
884.49	-0.000
884.66	-0.000
884.82	-0.000
884.99	-0.000
885.16	-0.000
885.33	-0.000
885.50	-0.000
885.67	-0.000
885.84	-0.000
886.01	-0.000
886.17	-0.000
886.34	-0.000
886.51	-0.000
886.68	-0.000
886.85	-0.000
887.02	-0.000
887.19	-0.000
887.36	-0.000
887.52	-0.000
887.69	-0.000
887.86	-0.000
888.03	-0.000
888.20	-0.000
888.37	-0.000
888.54	-0.000
888.70	-0.000
888.87	-0.000
889.04	-0.000
889.21	-0.000
889.38	-0.000
889.55	-0.000
889.71	-0.000
889.88	-0.000
890.05	-0.000
890.22	-0.000
890.39	-0.000
>>>>>End Processed Spectral Data<<<<<
