SpectraSuite Data File
++++++++++++++++++++++++++++++++++++
Date: Fri Jun 19 14:23:56 CEST 2015
User: introlabs
Dark Spectrum Present: Yes
Reference Spectrum Present: Yes
Number of Sampled Component Spectra: 1
Spectrometers: USB4H08886
Integration Time (usec): 745692 (USB4H08886)
Spectra Averaged: 5 (USB4H08886)
Boxcar Smoothing: 5 (USB4H08886)
Correct for Electrical Dark: Yes (USB4H08886)
Strobe/Lamp Enabled: No (USB4H08886)
Correct for Detector Non-linearity: Yes (USB4H08886)
Correct for Stray Light: Yes (USB4H08886)
Number of Pixels in Processed Spectrum: 3648
>>>>>Begin Processed Spectral Data<<<<<
178.14	-0.000
178.36	-0.000
178.57	-0.000
178.79	-0.000
179.01	-0.000
179.22	-0.000
179.44	-0.000
179.65	-0.000
179.87	-0.000
180.08	-0.000
180.30	-0.000
180.52	-0.000
180.73	-0.000
180.95	-0.000
181.16	-0.000
181.38	-0.000
181.59	-0.000
181.81	-0.000
182.03	-0.000
182.24	-0.000
182.46	-0.000
182.67	-0.000
182.89	-0.000
183.10	-0.000
183.32	-0.000
183.54	-0.000
183.75	-0.000
183.97	-0.000
184.18	-0.000
184.40	-0.000
184.61	-0.000
184.83	-0.000
185.04	-0.000
185.26	-0.000
185.48	-0.000
185.69	-0.000
185.91	-0.000
186.12	-0.000
186.34	-0.000
186.55	-0.000
186.77	-0.000
186.98	-0.000
187.20	-0.000
187.42	-0.000
187.63	-0.000
187.85	-0.000
188.06	-0.000
188.28	-0.000
188.49	-0.000
188.71	-0.000
188.92	-0.000
189.14	-0.000
189.36	-0.000
189.57	-0.000
189.79	-0.000
190.00	-0.000
190.22	-0.000
190.43	-0.000
190.65	-0.000
190.86	-0.000
191.08	-0.000
191.29	-0.000
191.51	-0.000
191.72	-0.000
191.94	-0.000
192.16	-0.000
192.37	-0.000
192.59	-0.000
192.80	-0.000
193.02	-0.000
193.23	-0.000
193.45	-0.000
193.66	-0.000
193.88	-0.000
194.09	-0.000
194.31	-0.000
194.52	-0.000
194.74	-0.000
194.95	-0.000
195.17	-0.000
195.38	-0.000
195.60	-0.000
195.81	-0.000
196.03	-0.000
196.25	-0.000
196.46	-0.000
196.68	-0.000
196.89	-0.000
197.11	-0.000
197.32	-0.000
197.54	-0.000
197.75	-0.000
197.97	-0.000
198.18	-0.000
198.40	-0.000
198.61	-0.000
198.83	-0.000
199.04	-0.000
199.26	-0.000
199.47	-0.000
199.69	-0.000
199.90	-0.000
200.12	-0.000
200.33	-0.000
200.55	-0.000
200.76	-0.000
200.98	-0.000
201.19	-0.000
201.41	-0.000
201.62	-0.000
201.84	-0.000
202.05	-0.000
202.27	-0.000
202.48	-0.000
202.70	-0.000
202.91	-0.000
203.13	-0.000
203.34	-0.000
203.56	-0.000
203.77	-0.000
203.99	-0.000
204.20	-0.000
204.42	-0.000
204.63	-0.000
204.85	-0.000
205.06	-0.000
205.28	-0.000
205.49	-0.000
205.71	-0.000
205.92	-0.000
206.14	-0.000
206.35	-0.000
206.56	-0.000
206.78	-0.000
206.99	-0.000
207.21	-0.000
207.42	-0.000
207.64	-0.000
207.85	-0.000
208.07	-0.000
208.28	-0.000
208.50	-0.000
208.71	-0.000
208.93	-0.000
209.14	-0.000
209.36	-0.000
209.57	-0.000
209.79	-0.000
210.00	-0.000
210.22	-0.000
210.43	-0.000
210.64	-0.000
210.86	-0.000
211.07	-0.000
211.29	-0.000
211.50	-0.000
211.72	-0.000
211.93	-0.000
212.15	-0.000
212.36	-0.000
212.58	-0.000
212.79	-0.000
213.01	-0.000
213.22	-0.000
213.43	-0.000
213.65	-0.000
213.86	-0.000
214.08	-0.000
214.29	-0.000
214.51	-0.000
214.72	-0.000
214.94	-0.000
215.15	-0.000
215.36	-0.000
215.58	-0.000
215.79	-0.000
216.01	-0.000
216.22	-0.000
216.44	-0.000
216.65	-0.000
216.87	-0.000
217.08	-0.000
217.29	-0.000
217.51	-0.000
217.72	-0.000
217.94	-0.000
218.15	-0.000
218.37	-0.000
218.58	-0.000
218.80	-0.000
219.01	-0.000
219.22	-0.000
219.44	-0.000
219.65	-0.000
219.87	-0.000
220.08	-0.000
220.30	-0.000
220.51	-0.000
220.72	-0.000
220.94	-0.000
221.15	-0.000
221.37	-0.000
221.58	-0.000
221.79	-0.000
222.01	-0.000
222.22	-0.000
222.44	-0.000
222.65	-0.000
222.87	-0.000
223.08	-0.000
223.29	-0.000
223.51	-0.000
223.72	-0.000
223.94	-0.000
224.15	-0.000
224.36	-0.000
224.58	-0.000
224.79	-0.000
225.01	-0.000
225.22	-0.000
225.44	-0.000
225.65	-0.000
225.86	-0.000
226.08	-0.000
226.29	-0.000
226.51	-0.000
226.72	-0.000
226.93	-0.000
227.15	-0.000
227.36	-0.000
227.58	-0.000
227.79	-0.000
228.00	-0.000
228.22	-0.000
228.43	-0.000
228.65	-0.000
228.86	-0.000
229.07	-0.000
229.29	-0.000
229.50	-0.000
229.72	-0.000
229.93	-0.000
230.14	-0.000
230.36	-0.000
230.57	-0.000
230.78	-0.000
231.00	-0.000
231.21	-0.000
231.43	-0.000
231.64	-0.000
231.85	-0.000
232.07	-0.000
232.28	-0.000
232.50	-0.000
232.71	-0.000
232.92	-0.000
233.14	-0.000
233.35	-0.000
233.56	-0.000
233.78	-0.000
233.99	-0.000
234.21	-0.000
234.42	-0.000
234.63	-0.000
234.85	-0.000
235.06	-0.000
235.27	-0.000
235.49	-0.000
235.70	-0.000
235.91	-0.000
236.13	-0.000
236.34	-0.000
236.56	-0.000
236.77	-0.000
236.98	-0.000
237.20	-0.000
237.41	-0.000
237.62	-0.000
237.84	-0.000
238.05	-0.000
238.26	-0.000
238.48	-0.000
238.69	-0.000
238.91	-0.000
239.12	-0.000
239.33	-0.000
239.55	-0.000
239.76	-0.000
239.97	-0.000
240.19	-0.000
240.40	-0.000
240.61	-0.000
240.83	-0.000
241.04	-0.000
241.25	-0.000
241.47	-0.000
241.68	-0.000
241.89	-0.000
242.11	-0.000
242.32	-0.000
242.53	-0.000
242.75	-0.000
242.96	-0.000
243.17	-0.000
243.39	-0.000
243.60	-0.000
243.81	-0.000
244.03	-0.000
244.24	-0.000
244.45	-0.000
244.67	-0.000
244.88	-0.000
245.09	-0.000
245.31	-0.000
245.52	-0.000
245.73	-0.000
245.95	-0.000
246.16	-0.000
246.37	-0.000
246.59	-0.000
246.80	-0.000
247.01	-0.000
247.23	-0.000
247.44	-0.000
247.65	-0.000
247.87	-0.000
248.08	-0.000
248.29	-0.000
248.51	-0.000
248.72	-0.000
248.93	-0.000
249.15	-0.000
249.36	-0.000
249.57	-0.000
249.78	-0.000
250.00	-0.000
250.21	-0.000
250.42	-0.000
250.64	-0.000
250.85	-0.000
251.06	-0.000
251.28	-0.000
251.49	-0.000
251.70	-0.000
251.92	-0.000
252.13	-0.000
252.34	-0.000
252.55	-0.000
252.77	-0.000
252.98	-0.000
253.19	-0.000
253.41	-0.000
253.62	-0.000
253.83	-0.000
254.05	-0.000
254.26	-0.000
254.47	-0.000
254.68	-0.000
254.90	-0.000
255.11	-0.000
255.32	-0.000
255.54	-0.000
255.75	-0.000
255.96	-0.000
256.17	-0.000
256.39	-0.000
256.60	-0.000
256.81	-0.000
257.03	-0.000
257.24	-0.000
257.45	-0.000
257.66	-0.000
257.88	-0.000
258.09	-0.000
258.30	-0.000
258.51	-0.000
258.73	-0.000
258.94	-0.000
259.15	-0.000
259.37	-0.000
259.58	-0.000
259.79	-0.000
260.00	-0.000
260.22	-0.000
260.43	-0.000
260.64	-0.000
260.85	-0.000
261.07	-0.000
261.28	-0.000
261.49	-0.000
261.71	-0.000
261.92	-0.000
262.13	-0.000
262.34	-0.000
262.56	-0.000
262.77	-0.000
262.98	-0.000
263.19	-0.000
263.41	-0.000
263.62	-0.000
263.83	-0.000
264.04	-0.000
264.26	-0.000
264.47	-0.000
264.68	-0.000
264.89	-0.000
265.11	-0.000
265.32	-0.000
265.53	-0.000
265.74	-0.000
265.96	-0.000
266.17	-0.000
266.38	-0.000
266.59	-0.000
266.81	-0.000
267.02	-0.000
267.23	-0.000
267.44	-0.000
267.65	-0.000
267.87	-0.000
268.08	-0.000
268.29	-0.000
268.50	-0.000
268.72	-0.000
268.93	-0.000
269.14	-0.000
269.35	-0.000
269.57	-0.000
269.78	-0.000
269.99	-0.000
270.20	-0.000
270.41	-0.000
270.63	-0.000
270.84	-0.000
271.05	-0.000
271.26	-0.000
271.48	-0.000
271.69	-0.000
271.90	-0.000
272.11	-0.000
272.32	-0.000
272.54	-0.000
272.75	-0.000
272.96	-0.000
273.17	-0.000
273.39	-0.000
273.60	-0.000
273.81	-0.000
274.02	-0.000
274.23	-0.000
274.45	-0.000
274.66	-0.000
274.87	-0.000
275.08	-0.000
275.29	-0.000
275.51	-0.000
275.72	-0.000
275.93	-0.000
276.14	-0.000
276.35	-0.000
276.57	-0.000
276.78	-0.000
276.99	-0.000
277.20	-0.000
277.41	-0.000
277.63	-0.000
277.84	-0.000
278.05	-0.000
278.26	-0.000
278.47	-0.000
278.69	-0.000
278.90	-0.000
279.11	-0.000
279.32	-0.000
279.53	-0.000
279.74	-0.000
279.96	-0.000
280.17	-0.000
280.38	-0.000
280.59	-0.000
280.80	-0.000
281.02	-0.000
281.23	-0.000
281.44	-0.000
281.65	-0.000
281.86	-0.000
282.07	-0.000
282.29	-0.000
282.50	-0.000
282.71	-0.000
282.92	-0.000
283.13	-0.000
283.35	-0.000
283.56	-0.000
283.77	-0.000
283.98	-0.000
284.19	-0.000
284.40	-0.000
284.62	-0.000
284.83	-0.000
285.04	-0.000
285.25	-0.000
285.46	-0.000
285.67	-0.000
285.88	-0.000
286.10	-0.000
286.31	-0.000
286.52	-0.000
286.73	-0.000
286.94	-0.000
287.15	-0.000
287.37	-0.000
287.58	-0.000
287.79	-0.000
288.00	-0.000
288.21	-0.000
288.42	-0.000
288.63	-0.000
288.85	-0.000
289.06	-0.000
289.27	-0.000
289.48	-0.000
289.69	-0.000
289.90	-0.000
290.11	-0.000
290.33	-0.000
290.54	-0.000
290.75	-0.000
290.96	-0.000
291.17	-0.000
291.38	-0.000
291.59	-0.000
291.81	-0.000
292.02	-0.000
292.23	-0.000
292.44	-0.000
292.65	-0.000
292.86	-0.000
293.07	-0.000
293.28	-0.000
293.50	-0.000
293.71	-0.000
293.92	-0.000
294.13	-0.000
294.34	-0.000
294.55	-0.000
294.76	-0.000
294.97	-0.000
295.19	-0.000
295.40	-0.000
295.61	-0.000
295.82	-0.000
296.03	-0.000
296.24	-0.000
296.45	2.152
296.66	1.760
296.87	1.786
297.09	1.867
297.30	2.074
297.51	1.687
297.72	1.647
297.93	1.728
298.14	1.703
298.35	1.669
298.56	1.646
298.77	1.775
298.99	1.755
299.20	1.706
299.41	1.675
299.62	1.633
299.83	1.631
300.04	1.571
300.25	1.565
300.46	1.609
300.67	1.581
300.88	1.527
301.10	1.525
301.31	1.602
301.52	1.537
301.73	1.481
301.94	1.489
302.15	1.506
302.36	1.459
302.57	1.397
302.78	1.404
302.99	1.443
303.20	1.459
303.41	1.372
303.63	1.349
303.84	1.359
304.05	1.358
304.26	1.297
304.47	1.303
304.68	1.305
304.89	1.294
305.10	1.259
305.31	1.248
305.52	1.290
305.73	1.283
305.94	1.249
306.15	1.243
306.37	1.267
306.58	1.276
306.79	1.242
307.00	1.267
307.21	1.310
307.42	1.300
307.63	1.265
307.84	1.229
308.05	1.266
308.26	1.266
308.47	1.243
308.68	1.238
308.89	1.240
309.10	1.241
309.31	1.201
309.52	1.191
309.73	1.209
309.95	1.200
310.16	1.175
310.37	1.165
310.58	1.182
310.79	1.180
311.00	1.176
311.21	1.177
311.42	1.176
311.63	1.170
311.84	1.150
312.05	1.147
312.26	1.172
312.47	1.185
312.68	1.160
312.89	1.145
313.10	1.151
313.31	1.124
313.52	1.123
313.73	1.125
313.94	1.129
314.15	1.114
314.36	1.092
314.57	1.084
314.78	1.070
314.99	1.066
315.21	1.052
315.42	1.059
315.63	1.073
315.84	1.053
316.05	1.039
316.26	1.046
316.47	1.065
316.68	1.062
316.89	1.043
317.10	1.062
317.31	1.067
317.52	1.069
317.73	1.048
317.94	1.046
318.15	1.086
318.36	1.086
318.57	1.069
318.78	1.056
318.99	1.089
319.20	1.088
319.41	1.056
319.62	1.057
319.83	1.072
320.04	1.065
320.25	1.049
320.46	1.018
320.67	1.020
320.88	1.015
321.09	1.001
321.30	0.988
321.51	1.003
321.72	1.001
321.93	0.986
322.14	0.979
322.35	1.007
322.56	1.011
322.77	0.999
322.98	1.011
323.19	1.021
323.40	1.028
323.61	1.005
323.82	1.000
324.03	1.008
324.24	1.006
324.45	0.990
324.66	0.971
324.87	0.967
325.08	0.966
325.29	0.946
325.50	0.938
325.71	0.944
325.92	0.951
326.13	0.938
326.34	0.936
326.55	0.943
326.76	0.942
326.97	0.931
327.18	0.928
327.39	0.952
327.60	0.954
327.80	0.954
328.01	0.951
328.22	0.953
328.43	0.956
328.64	0.945
328.85	0.950
329.06	0.953
329.27	0.950
329.48	0.944
329.69	0.927
329.90	0.936
330.11	0.930
330.32	0.924
330.53	0.917
330.74	0.916
330.95	0.915
331.16	0.900
331.37	0.908
331.58	0.909
331.79	0.909
332.00	0.900
332.21	0.894
332.42	0.898
332.63	0.889
332.83	0.885
333.04	0.888
333.25	0.900
333.46	0.898
333.67	0.884
333.88	0.887
334.09	0.897
334.30	0.894
334.51	0.885
334.72	0.881
334.93	0.885
335.14	0.884
335.35	0.877
335.56	0.873
335.77	0.882
335.98	0.881
336.18	0.873
336.39	0.866
336.60	0.869
336.81	0.867
337.02	0.866
337.23	0.870
337.44	0.873
337.65	0.873
337.86	0.862
338.07	0.857
338.28	0.862
338.49	0.860
338.70	0.853
338.91	0.861
339.11	0.867
339.32	0.863
339.53	0.851
339.74	0.848
339.95	0.846
340.16	0.845
340.37	0.837
340.58	0.836
340.79	0.840
341.00	0.841
341.21	0.831
341.41	0.832
341.62	0.834
341.83	0.836
342.04	0.832
342.25	0.842
342.46	0.848
342.67	0.846
342.88	0.838
343.09	0.837
343.30	0.844
343.50	0.845
343.71	0.836
343.92	0.835
344.13	0.839
344.34	0.838
344.55	0.821
344.76	0.819
344.97	0.824
345.18	0.823
345.38	0.820
345.59	0.815
345.80	0.815
346.01	0.812
346.22	0.807
346.43	0.801
346.64	0.810
346.85	0.809
347.06	0.801
347.26	0.802
347.47	0.807
347.68	0.802
347.89	0.798
348.10	0.794
348.31	0.801
348.52	0.799
348.73	0.797
348.93	0.794
349.14	0.796
349.35	0.796
349.56	0.790
349.77	0.785
349.98	0.791
350.19	0.788
350.39	0.783
350.60	0.779
350.81	0.796
351.02	0.795
351.23	0.790
351.44	0.794
351.65	0.796
351.86	0.794
352.06	0.792
352.27	0.792
352.48	0.794
352.69	0.793
352.90	0.787
353.11	0.773
353.31	0.780
353.52	0.776
353.73	0.768
353.94	0.770
354.15	0.776
354.36	0.776
354.57	0.767
354.77	0.769
354.98	0.769
355.19	0.769
355.40	0.769
355.61	0.774
355.82	0.779
356.02	0.779
356.23	0.771
356.44	0.773
356.65	0.777
356.86	0.778
357.07	0.771
357.27	0.774
357.48	0.777
357.69	0.773
357.90	0.758
358.11	0.755
358.32	0.758
358.52	0.761
358.73	0.751
358.94	0.753
359.15	0.757
359.36	0.758
359.56	0.753
359.77	0.750
359.98	0.756
360.19	0.755
360.40	0.752
360.61	0.753
360.81	0.752
361.02	0.753
361.23	0.744
361.44	0.742
361.65	0.741
361.85	0.742
362.06	0.739
362.27	0.741
362.48	0.742
362.69	0.743
362.89	0.737
363.10	0.738
363.31	0.744
363.52	0.747
363.73	0.742
363.93	0.743
364.14	0.746
364.35	0.747
364.56	0.738
364.77	0.740
364.97	0.743
365.18	0.744
365.39	0.738
365.60	0.735
365.81	0.735
366.01	0.736
366.22	0.733
366.43	0.732
366.64	0.734
366.84	0.741
367.05	0.737
367.26	0.736
367.47	0.739
367.68	0.739
367.88	0.735
368.09	0.733
368.30	0.735
368.51	0.734
368.71	0.733
368.92	0.737
369.13	0.734
369.34	0.734
369.55	0.733
369.75	0.732
369.96	0.740
370.17	0.739
370.38	0.736
370.58	0.737
370.79	0.742
371.00	0.741
371.21	0.731
371.41	0.737
371.62	0.742
371.83	0.738
372.04	0.735
372.24	0.728
372.45	0.729
372.66	0.730
372.87	0.725
373.07	0.722
373.28	0.724
373.49	0.727
373.70	0.718
373.90	0.716
374.11	0.725
374.32	0.724
374.53	0.722
374.73	0.723
374.94	0.726
375.15	0.726
375.36	0.724
375.56	0.732
375.77	0.732
375.98	0.733
376.19	0.730
376.39	0.723
376.60	0.728
376.81	0.728
377.02	0.725
377.22	0.724
377.43	0.725
377.64	0.724
377.84	0.715
378.05	0.719
378.26	0.725
378.47	0.725
378.67	0.722
378.88	0.718
379.09	0.720
379.30	0.720
379.50	0.718
379.71	0.720
379.92	0.723
380.12	0.723
380.33	0.715
380.54	0.711
380.75	0.718
380.95	0.719
381.16	0.717
381.37	0.717
381.57	0.719
381.78	0.719
381.99	0.719
382.20	0.718
382.40	0.721
382.61	0.721
382.82	0.718
383.02	0.711
383.23	0.713
383.44	0.713
383.64	0.712
383.85	0.714
384.06	0.717
384.27	0.715
384.47	0.713
384.68	0.713
384.89	0.719
385.09	0.718
385.30	0.717
385.51	0.717
385.71	0.721
385.92	0.721
386.13	0.719
386.33	0.722
386.54	0.722
386.75	0.721
386.95	0.717
387.16	0.713
387.37	0.716
387.58	0.715
387.78	0.713
387.99	0.710
388.20	0.712
388.40	0.709
388.61	0.706
388.82	0.708
389.02	0.711
389.23	0.711
389.44	0.709
389.64	0.709
389.85	0.721
390.06	0.721
390.26	0.721
390.47	0.720
390.68	0.723
390.88	0.720
391.09	0.716
391.30	0.715
391.50	0.716
391.71	0.716
391.92	0.713
392.12	0.706
392.33	0.707
392.53	0.706
392.74	0.707
392.95	0.706
393.15	0.709
393.36	0.710
393.57	0.708
393.77	0.711
393.98	0.712
394.19	0.712
394.39	0.710
394.60	0.711
394.81	0.714
395.01	0.712
395.22	0.710
395.43	0.711
395.63	0.716
395.84	0.717
396.04	0.714
396.25	0.715
396.46	0.717
396.66	0.715
396.87	0.713
397.08	0.709
397.28	0.711
397.49	0.712
397.69	0.709
397.90	0.704
398.11	0.706
398.31	0.707
398.52	0.704
398.73	0.705
398.93	0.704
399.14	0.703
399.34	0.703
399.55	0.704
399.76	0.704
399.96	0.705
400.17	0.703
400.37	0.701
400.58	0.708
400.79	0.709
400.99	0.706
401.20	0.712
401.41	0.715
401.61	0.716
401.82	0.721
402.02	0.721
402.23	0.722
402.44	0.722
402.64	0.723
402.85	0.717
403.05	0.716
403.26	0.715
403.47	0.709
403.67	0.708
403.88	0.709
404.08	0.703
404.29	0.701
404.50	0.700
404.70	0.701
404.91	0.699
405.11	0.696
405.32	0.697
405.52	0.697
405.73	0.698
405.94	0.696
406.14	0.698
406.35	0.701
406.55	0.700
406.76	0.697
406.97	0.698
407.17	0.701
407.38	0.701
407.58	0.700
407.79	0.702
407.99	0.704
408.20	0.705
408.41	0.700
408.61	0.699
408.82	0.700
409.02	0.700
409.23	0.698
409.43	0.697
409.64	0.699
409.84	0.698
410.05	0.695
410.26	0.694
410.46	0.693
410.67	0.692
410.87	0.694
411.08	0.696
411.28	0.697
411.49	0.698
411.69	0.695
411.90	0.697
412.11	0.699
412.31	0.700
412.52	0.698
412.72	0.699
412.93	0.700
413.13	0.698
413.34	0.694
413.54	0.696
413.75	0.698
413.95	0.697
414.16	0.694
414.37	0.696
414.57	0.696
414.78	0.699
414.98	0.696
415.19	0.697
415.39	0.695
415.60	0.697
415.80	0.696
416.01	0.695
416.21	0.697
416.42	0.698
416.62	0.693
416.83	0.693
417.03	0.693
417.24	0.693
417.44	0.690
417.65	0.690
417.86	0.691
418.06	0.689
418.27	0.686
418.47	0.688
418.68	0.688
418.88	0.689
419.09	0.687
419.29	0.687
419.50	0.688
419.70	0.687
419.91	0.686
420.11	0.684
420.32	0.687
420.52	0.686
420.73	0.685
420.93	0.686
421.14	0.688
421.34	0.687
421.55	0.683
421.75	0.683
421.96	0.686
422.16	0.686
422.37	0.684
422.57	0.681
422.78	0.683
422.98	0.680
423.19	0.677
423.39	0.676
423.60	0.680
423.80	0.681
424.01	0.680
424.21	0.682
424.42	0.683
424.62	0.683
424.83	0.682
425.03	0.682
425.23	0.685
425.44	0.685
425.64	0.685
425.85	0.684
426.05	0.685
426.26	0.686
426.46	0.682
426.67	0.681
426.87	0.686
427.08	0.686
427.28	0.684
427.49	0.685
427.69	0.686
427.90	0.684
428.10	0.680
428.31	0.681
428.51	0.682
428.71	0.682
428.92	0.683
429.12	0.680
429.33	0.681
429.53	0.684
429.74	0.688
429.94	0.688
430.15	0.688
430.35	0.688
430.56	0.685
430.76	0.684
430.96	0.684
431.17	0.681
431.37	0.678
431.58	0.677
431.78	0.674
431.99	0.667
432.19	0.668
432.40	0.671
432.60	0.671
432.80	0.674
433.01	0.672
433.21	0.673
433.42	0.675
433.62	0.675
433.83	0.674
434.03	0.677
434.23	0.680
434.44	0.679
434.64	0.676
434.85	0.681
435.05	0.682
435.26	0.682
435.46	0.681
435.66	0.680
435.87	0.681
436.07	0.681
436.28	0.676
436.48	0.673
436.69	0.673
436.89	0.673
437.09	0.667
437.30	0.666
437.50	0.666
437.71	0.678
437.91	0.677
438.11	0.678
438.32	0.682
438.52	0.682
438.73	0.681
438.93	0.679
439.13	0.679
439.34	0.682
439.54	0.679
439.75	0.679
439.95	0.669
440.15	0.674
440.36	0.672
440.56	0.670
440.77	0.671
440.97	0.671
441.17	0.670
441.38	0.672
441.58	0.669
441.79	0.669
441.99	0.668
442.19	0.667
442.40	0.664
442.60	0.665
442.81	0.662
443.01	0.662
443.21	0.662
443.42	0.662
443.62	0.660
443.82	0.660
444.03	0.661
444.23	0.661
444.44	0.661
444.64	0.660
444.84	0.661
445.05	0.661
445.25	0.659
445.45	0.660
445.66	0.662
445.86	0.661
446.06	0.663
446.27	0.662
446.47	0.666
446.68	0.664
446.88	0.663
447.08	0.662
447.29	0.665
447.49	0.664
447.69	0.664
447.90	0.663
448.10	0.666
448.30	0.664
448.51	0.665
448.71	0.663
448.91	0.666
449.12	0.665
449.32	0.665
449.52	0.664
449.73	0.668
449.93	0.667
450.14	0.667
450.34	0.666
450.54	0.668
450.75	0.665
450.95	0.664
451.15	0.664
451.36	0.666
451.56	0.663
451.76	0.662
451.97	0.659
452.17	0.660
452.37	0.658
452.58	0.655
452.78	0.655
452.98	0.657
453.19	0.656
453.39	0.656
453.59	0.655
453.79	0.656
454.00	0.657
454.20	0.655
454.40	0.656
454.61	0.658
454.81	0.659
455.01	0.657
455.22	0.658
455.42	0.660
455.62	0.658
455.83	0.657
456.03	0.660
456.23	0.660
456.44	0.661
456.64	0.660
456.84	0.660
457.04	0.661
457.25	0.660
457.45	0.657
457.65	0.656
457.86	0.657
458.06	0.656
458.26	0.651
458.47	0.651
458.67	0.652
458.87	0.652
459.07	0.650
459.28	0.652
459.48	0.655
459.68	0.655
459.89	0.653
460.09	0.652
460.29	0.653
460.49	0.654
460.70	0.653
460.90	0.653
461.10	0.653
461.31	0.653
461.51	0.649
461.71	0.651
461.91	0.653
462.12	0.653
462.32	0.652
462.52	0.653
462.72	0.655
462.93	0.655
463.13	0.654
463.33	0.655
463.53	0.657
463.74	0.656
463.94	0.652
464.14	0.653
464.35	0.654
464.55	0.654
464.75	0.652
464.95	0.650
465.16	0.653
465.36	0.652
465.56	0.650
465.76	0.649
465.97	0.650
466.17	0.651
466.37	0.648
466.57	0.649
466.78	0.649
466.98	0.650
467.18	0.648
467.38	0.646
467.59	0.648
467.79	0.650
467.99	0.649
468.19	0.650
468.39	0.653
468.60	0.653
468.80	0.652
469.00	0.653
469.20	0.654
469.41	0.654
469.61	0.654
469.81	0.654
470.01	0.654
470.22	0.654
470.42	0.651
470.62	0.649
470.82	0.650
471.02	0.650
471.23	0.647
471.43	0.647
471.63	0.650
471.83	0.649
472.04	0.648
472.24	0.647
472.44	0.653
472.64	0.653
472.84	0.651
473.05	0.650
473.25	0.653
473.45	0.652
473.65	0.651
473.85	0.651
474.06	0.653
474.26	0.652
474.46	0.653
474.66	0.650
474.86	0.651
475.07	0.651
475.27	0.650
475.47	0.648
475.67	0.649
475.87	0.651
476.08	0.647
476.28	0.648
476.48	0.650
476.68	0.648
476.88	0.646
477.09	0.646
477.29	0.648
477.49	0.648
477.69	0.647
477.89	0.647
478.09	0.646
478.30	0.648
478.50	0.645
478.70	0.645
478.90	0.645
479.10	0.648
479.31	0.649
479.51	0.647
479.71	0.648
479.91	0.648
480.11	0.647
480.31	0.648
480.52	0.647
480.72	0.646
480.92	0.645
481.12	0.644
481.32	0.641
481.52	0.639
481.72	0.639
481.93	0.643
482.13	0.643
482.33	0.643
482.53	0.640
482.73	0.641
482.93	0.642
483.14	0.642
483.34	0.642
483.54	0.642
483.74	0.642
483.94	0.641
484.14	0.637
484.34	0.637
484.55	0.638
484.75	0.637
484.95	0.635
485.15	0.635
485.35	0.635
485.55	0.635
485.75	0.633
485.96	0.634
486.16	0.635
486.36	0.635
486.56	0.633
486.76	0.633
486.96	0.634
487.16	0.633
487.36	0.631
487.57	0.631
487.77	0.631
487.97	0.632
488.17	0.629
488.37	0.629
488.57	0.629
488.77	0.629
488.97	0.627
489.18	0.627
489.38	0.629
489.58	0.630
489.78	0.630
489.98	0.629
490.18	0.629
490.38	0.631
490.58	0.629
490.78	0.630
490.98	0.632
491.19	0.633
491.39	0.633
491.59	0.631
491.79	0.634
491.99	0.635
492.19	0.634
492.39	0.637
492.59	0.637
492.79	0.639
492.99	0.639
493.20	0.638
493.40	0.638
493.60	0.639
493.80	0.638
494.00	0.636
494.20	0.636
494.40	0.636
494.60	0.634
494.80	0.638
495.00	0.637
495.20	0.635
495.40	0.634
495.61	0.637
495.81	0.636
496.01	0.640
496.21	0.640
496.41	0.640
496.61	0.640
496.81	0.640
497.01	0.635
497.21	0.634
497.41	0.635
497.61	0.634
497.81	0.631
498.01	0.632
498.21	0.630
498.41	0.627
498.61	0.627
498.82	0.629
499.02	0.630
499.22	0.631
499.42	0.630
499.62	0.632
499.82	0.633
500.02	0.634
500.22	0.633
500.42	0.635
500.62	0.636
500.82	0.636
501.02	0.633
501.22	0.633
501.42	0.633
501.62	0.635
501.82	0.634
502.02	0.634
502.22	0.634
502.42	0.636
502.62	0.633
502.82	0.633
503.02	0.634
503.22	0.634
503.42	0.632
503.63	0.632
503.83	0.630
504.03	0.629
504.23	0.627
504.43	0.628
504.63	0.628
504.83	0.628
505.03	0.627
505.23	0.629
505.43	0.631
505.63	0.631
505.83	0.631
506.03	0.632
506.23	0.635
506.43	0.635
506.63	0.634
506.83	0.633
507.03	0.636
507.23	0.636
507.43	0.633
507.63	0.633
507.83	0.634
508.03	0.634
508.23	0.633
508.43	0.632
508.63	0.634
508.83	0.634
509.03	0.635
509.23	0.634
509.43	0.635
509.63	0.635
509.83	0.634
510.03	0.637
510.23	0.639
510.43	0.639
510.63	0.640
510.83	0.640
511.03	0.642
511.23	0.639
511.43	0.639
511.63	0.640
511.83	0.643
512.03	0.643
512.22	0.640
512.42	0.639
512.62	0.640
512.82	0.639
513.02	0.638
513.22	0.638
513.42	0.640
513.62	0.643
513.82	0.641
514.02	0.640
514.22	0.641
514.42	0.641
514.62	0.641
514.82	0.641
515.02	0.644
515.22	0.647
515.42	0.646
515.62	0.648
515.82	0.646
516.02	0.647
516.22	0.647
516.42	0.648
516.62	0.650
516.82	0.651
517.01	0.649
517.21	0.648
517.41	0.652
517.61	0.652
517.81	0.648
518.01	0.647
518.21	0.647
518.41	0.646
518.61	0.645
518.81	0.646
519.01	0.646
519.21	0.647
519.41	0.646
519.61	0.641
519.81	0.643
520.00	0.643
520.20	0.644
520.40	0.647
520.60	0.648
520.80	0.647
521.00	0.647
521.20	0.648
521.40	0.652
521.60	0.652
521.80	0.651
522.00	0.652
522.20	0.655
522.39	0.654
522.59	0.650
522.79	0.652
522.99	0.655
523.19	0.653
523.39	0.651
523.59	0.649
523.79	0.652
523.99	0.654
524.19	0.653
524.38	0.652
524.58	0.654
524.78	0.654
524.98	0.652
525.18	0.654
525.38	0.655
525.58	0.655
525.78	0.653
525.98	0.652
526.18	0.653
526.37	0.652
526.57	0.653
526.77	0.653
526.97	0.654
527.17	0.654
527.37	0.651
527.57	0.653
527.77	0.655
527.96	0.655
528.16	0.654
528.36	0.654
528.56	0.656
528.76	0.654
528.96	0.653
529.16	0.654
529.36	0.656
529.55	0.656
529.75	0.652
529.95	0.653
530.15	0.654
530.35	0.657
530.55	0.654
530.75	0.655
530.94	0.657
531.14	0.657
531.34	0.655
531.54	0.654
531.74	0.658
531.94	0.661
532.13	0.659
532.33	0.661
532.53	0.659
532.73	0.659
532.93	0.657
533.13	0.658
533.33	0.658
533.52	0.658
533.72	0.661
533.92	0.659
534.12	0.657
534.32	0.657
534.52	0.655
534.71	0.657
534.91	0.660
535.11	0.661
535.31	0.660
535.51	0.662
535.71	0.664
535.90	0.662
536.10	0.663
536.30	0.665
536.50	0.665
536.70	0.666
536.89	0.663
537.09	0.663
537.29	0.665
537.49	0.665
537.69	0.663
537.89	0.664
538.08	0.664
538.28	0.662
538.48	0.663
538.68	0.665
538.88	0.667
539.07	0.666
539.27	0.664
539.47	0.663
539.67	0.663
539.87	0.664
540.06	0.661
540.26	0.662
540.46	0.664
540.66	0.661
540.86	0.658
541.05	0.658
541.25	0.660
541.45	0.660
541.65	0.658
541.84	0.661
542.04	0.661
542.24	0.663
542.44	0.661
542.64	0.662
542.83	0.665
543.03	0.665
543.23	0.663
543.43	0.663
543.62	0.665
543.82	0.665
544.02	0.664
544.22	0.664
544.42	0.667
544.61	0.668
544.81	0.664
545.01	0.664
545.21	0.666
545.40	0.667
545.60	0.665
545.80	0.668
546.00	0.669
546.19	0.668
546.39	0.667
546.59	0.664
546.79	0.665
546.98	0.666
547.18	0.665
547.38	0.666
547.58	0.668
547.77	0.669
547.97	0.665
548.17	0.666
548.37	0.667
548.56	0.668
548.76	0.667
548.96	0.669
549.16	0.672
549.35	0.672
549.55	0.669
549.75	0.670
549.95	0.673
550.14	0.673
550.34	0.671
550.54	0.676
550.73	0.679
550.93	0.680
551.13	0.676
551.33	0.675
551.52	0.675
551.72	0.676
551.92	0.674
552.12	0.674
552.31	0.675
552.51	0.675
552.71	0.670
552.90	0.670
553.10	0.671
553.30	0.671
553.50	0.671
553.69	0.673
553.89	0.674
554.09	0.675
554.28	0.671
554.48	0.673
554.68	0.675
554.87	0.675
555.07	0.673
555.27	0.672
555.47	0.674
555.66	0.674
555.86	0.672
556.06	0.674
556.25	0.675
556.45	0.683
556.65	0.681
556.84	0.684
557.04	0.687
557.24	0.688
557.43	0.688
557.63	0.691
557.83	0.693
558.02	0.693
558.22	0.697
558.42	0.698
558.61	0.691
558.81	0.691
559.01	0.687
559.21	0.687
559.40	0.688
559.60	0.687
559.80	0.682
559.99	0.684
560.19	0.687
560.39	0.680
560.58	0.678
560.78	0.678
560.97	0.682
561.17	0.681
561.37	0.678
561.56	0.679
561.76	0.681
561.96	0.681
562.15	0.678
562.35	0.680
562.55	0.682
562.74	0.681
562.94	0.680
563.14	0.679
563.33	0.679
563.53	0.680
563.73	0.677
563.92	0.679
564.12	0.682
564.31	0.684
564.51	0.681
564.71	0.683
564.90	0.686
565.10	0.687
565.30	0.689
565.49	0.690
565.69	0.693
565.89	0.693
566.08	0.690
566.28	0.691
566.47	0.693
566.67	0.692
566.87	0.688
567.06	0.690
567.26	0.697
567.46	0.692
567.65	0.691
567.85	0.693
568.04	0.696
568.24	0.695
568.44	0.693
568.63	0.691
568.83	0.692
569.02	0.692
569.22	0.687
569.42	0.683
569.61	0.685
569.81	0.684
570.00	0.682
570.20	0.683
570.40	0.684
570.59	0.684
570.79	0.682
570.98	0.681
571.18	0.682
571.38	0.682
571.57	0.680
571.77	0.677
571.96	0.681
572.16	0.679
572.35	0.673
572.55	0.674
572.75	0.672
572.94	0.672
573.14	0.671
573.33	0.671
573.53	0.671
573.73	0.670
573.92	0.668
574.12	0.666
574.31	0.668
574.51	0.669
574.70	0.666
574.90	0.667
575.09	0.669
575.29	0.669
575.49	0.666
575.68	0.667
575.88	0.669
576.07	0.670
576.27	0.668
576.46	0.667
576.66	0.667
576.86	0.666
577.05	0.664
577.25	0.663
577.44	0.664
577.64	0.664
577.83	0.662
578.03	0.663
578.22	0.663
578.42	0.663
578.61	0.660
578.81	0.661
579.00	0.662
579.20	0.662
579.40	0.660
579.59	0.659
579.79	0.659
579.98	0.659
580.18	0.658
580.37	0.658
580.57	0.660
580.76	0.664
580.96	0.662
581.15	0.663
581.35	0.666
581.54	0.665
581.74	0.665
581.93	0.666
582.13	0.668
582.32	0.665
582.52	0.663
582.71	0.662
582.91	0.659
583.10	0.659
583.30	0.657
583.49	0.657
583.69	0.660
583.88	0.661
584.08	0.660
584.27	0.662
584.47	0.665
584.66	0.665
584.86	0.664
585.05	0.666
585.25	0.669
585.44	0.668
585.64	0.666
585.83	0.663
586.03	0.664
586.22	0.663
586.42	0.659
586.61	0.661
586.81	0.663
587.00	0.663
587.20	0.660
587.39	0.661
587.59	0.663
587.78	0.664
587.98	0.664
588.17	0.666
588.37	0.668
588.56	0.669
588.76	0.665
588.95	0.665
589.15	0.669
589.34	0.671
589.54	0.670
589.73	0.671
589.92	0.674
590.12	0.674
590.31	0.672
590.51	0.677
590.70	0.678
590.90	0.679
591.09	0.677
591.29	0.676
591.48	0.676
591.68	0.676
591.87	0.674
592.06	0.674
592.26	0.677
592.45	0.676
592.65	0.669
592.84	0.669
593.04	0.672
593.23	0.674
593.43	0.671
593.62	0.671
593.81	0.671
594.01	0.671
594.20	0.668
594.40	0.667
594.59	0.670
594.79	0.671
594.98	0.669
595.17	0.668
595.37	0.669
595.56	0.671
595.76	0.670
595.95	0.672
596.14	0.674
596.34	0.676
596.53	0.674
596.73	0.675
596.92	0.677
597.12	0.680
597.31	0.680
597.50	0.679
597.70	0.681
597.89	0.681
598.09	0.677
598.28	0.679
598.47	0.681
598.67	0.680
598.86	0.676
599.06	0.678
599.25	0.678
599.44	0.677
599.64	0.674
599.83	0.671
600.03	0.675
600.22	0.675
600.41	0.675
600.61	0.672
600.80	0.675
601.00	0.675
601.19	0.671
601.38	0.669
601.58	0.672
601.77	0.673
601.96	0.675
602.16	0.675
602.35	0.684
602.55	0.681
602.74	0.682
602.93	0.683
603.13	0.688
603.32	0.690
603.51	0.689
603.71	0.692
603.90	0.694
604.09	0.695
604.29	0.692
604.48	0.687
604.68	0.688
604.87	0.687
605.06	0.683
605.26	0.679
605.45	0.680
605.64	0.680
605.84	0.675
606.03	0.673
606.22	0.672
606.42	0.671
606.61	0.667
606.80	0.667
607.00	0.669
607.19	0.670
607.38	0.668
607.58	0.669
607.77	0.672
607.96	0.672
608.16	0.671
608.35	0.676
608.54	0.680
608.74	0.683
608.93	0.688
609.12	0.691
609.32	0.694
609.51	0.697
609.70	0.696
609.90	0.698
610.09	0.702
610.28	0.707
610.48	0.700
610.67	0.702
610.86	0.702
611.06	0.696
611.25	0.693
611.44	0.695
611.64	0.694
611.83	0.697
612.02	0.693
612.21	0.692
612.41	0.690
612.60	0.689
612.79	0.685
612.99	0.685
613.18	0.688
613.37	0.685
613.57	0.683
613.76	0.685
613.95	0.683
614.14	0.683
614.34	0.679
614.53	0.680
614.72	0.684
614.92	0.684
615.11	0.681
615.30	0.678
615.49	0.679
615.69	0.681
615.88	0.678
616.07	0.679
616.26	0.681
616.46	0.682
616.65	0.679
616.84	0.678
617.04	0.679
617.23	0.683
617.42	0.683
617.61	0.687
617.81	0.688
618.00	0.689
618.19	0.687
618.38	0.691
618.58	0.695
618.77	0.696
618.96	0.695
619.15	0.697
619.35	0.699
619.54	0.699
619.73	0.695
619.92	0.697
620.12	0.702
620.31	0.703
620.50	0.697
620.69	0.696
620.89	0.700
621.08	0.701
621.27	0.701
621.46	0.699
621.66	0.704
621.85	0.704
622.04	0.700
622.23	0.700
622.43	0.701
622.62	0.701
622.81	0.700
623.00	0.699
623.19	0.703
623.39	0.701
623.58	0.697
623.77	0.696
623.96	0.699
624.16	0.699
624.35	0.694
624.54	0.697
624.73	0.700
624.92	0.698
625.12	0.696
625.31	0.696
625.50	0.700
625.69	0.701
625.88	0.697
626.08	0.696
626.27	0.698
626.46	0.699
626.65	0.696
626.84	0.696
627.04	0.702
627.23	0.701
627.42	0.696
627.61	0.697
627.80	0.700
628.00	0.701
628.19	0.699
628.38	0.703
628.57	0.705
628.76	0.705
628.96	0.702
629.15	0.703
629.34	0.707
629.53	0.708
629.72	0.702
629.91	0.702
630.11	0.706
630.30	0.707
630.49	0.709
630.68	0.710
630.87	0.713
631.06	0.715
631.26	0.709
631.45	0.711
631.64	0.720
631.83	0.721
632.02	0.719
632.21	0.718
632.41	0.725
632.60	0.719
632.79	0.717
632.98	0.717
633.17	0.718
633.36	0.721
633.55	0.716
633.75	0.711
633.94	0.713
634.13	0.714
634.32	0.711
634.51	0.705
634.70	0.709
634.89	0.708
635.09	0.704
635.28	0.704
635.47	0.705
635.66	0.708
635.85	0.703
636.04	0.705
636.23	0.710
636.43	0.711
636.62	0.709
636.81	0.708
637.00	0.711
637.19	0.715
637.38	0.712
637.57	0.711
637.76	0.713
637.95	0.715
638.15	0.711
638.34	0.707
638.53	0.711
638.72	0.713
638.91	0.711
639.10	0.708
639.29	0.709
639.48	0.710
639.67	0.710
639.87	0.710
640.06	0.715
640.25	0.715
640.44	0.716
640.63	0.716
640.82	0.718
641.01	0.718
641.20	0.717
641.39	0.719
641.58	0.721
641.78	0.719
641.97	0.715
642.16	0.729
642.35	0.731
642.54	0.729
642.73	0.723
642.92	0.722
643.11	0.725
643.30	0.726
643.49	0.720
643.68	0.724
643.87	0.726
644.06	0.725
644.25	0.704
644.45	0.706
644.64	0.707
644.83	0.708
645.02	0.704
645.21	0.704
645.40	0.705
645.59	0.704
645.78	0.697
645.97	0.699
646.16	0.702
646.35	0.702
646.54	0.699
646.73	0.701
646.92	0.703
647.11	0.702
647.30	0.698
647.49	0.700
647.68	0.701
647.88	0.700
648.07	0.692
648.26	0.695
648.45	0.697
648.64	0.694
648.83	0.692
649.02	0.694
649.21	0.704
649.40	0.703
649.59	0.698
649.78	0.700
649.97	0.714
650.16	0.713
650.35	0.707
650.54	0.708
650.73	0.717
650.92	0.713
651.11	0.707
651.30	0.705
651.49	0.710
651.68	0.710
651.87	0.706
652.06	0.696
652.25	0.700
652.44	0.702
652.63	0.699
652.82	0.698
653.01	0.698
653.20	0.696
653.39	0.684
653.58	0.682
653.77	0.681
653.96	0.676
654.15	0.668
654.34	0.667
654.53	0.663
654.72	0.658
654.91	0.649
655.10	0.645
655.29	0.643
655.48	0.641
655.67	0.636
655.86	0.633
656.05	0.632
656.24	0.631
656.43	0.626
656.62	0.625
656.81	0.625
657.00	0.623
657.19	0.621
657.38	0.621
657.57	0.620
657.76	0.623
657.95	0.621
658.14	0.624
658.33	0.627
658.51	0.632
658.70	0.632
658.89	0.634
659.08	0.642
659.27	0.649
659.46	0.649
659.65	0.655
659.84	0.659
660.03	0.662
660.22	0.663
660.41	0.667
660.60	0.667
660.79	0.668
660.98	0.674
661.17	0.673
661.36	0.672
661.55	0.673
661.74	0.670
661.92	0.672
662.11	0.674
662.30	0.673
662.49	0.665
662.68	0.664
662.87	0.669
663.06	0.662
663.25	0.663
663.44	0.663
663.63	0.664
663.82	0.663
664.01	0.659
664.20	0.657
664.38	0.659
664.57	0.660
664.76	0.659
664.95	0.659
665.14	0.664
665.33	0.660
665.52	0.666
665.71	0.670
665.90	0.670
666.09	0.671
666.28	0.669
666.46	0.668
666.65	0.669
666.84	0.667
667.03	0.661
667.22	0.659
667.41	0.662
667.60	0.651
667.79	0.644
667.98	0.646
668.16	0.647
668.35	0.645
668.54	0.642
668.73	0.642
668.92	0.643
669.11	0.643
669.30	0.636
669.49	0.633
669.67	0.636
669.86	0.639
670.05	0.636
670.24	0.634
670.43	0.633
670.62	0.632
670.81	0.627
671.00	0.629
671.18	0.629
671.37	0.628
671.56	0.625
671.75	0.625
671.94	0.622
672.13	0.621
672.32	0.616
672.50	0.615
672.69	0.615
672.88	0.616
673.07	0.612
673.26	0.614
673.45	0.615
673.63	0.615
673.82	0.611
674.01	0.612
674.20	0.611
674.39	0.611
674.58	0.610
674.76	0.609
674.95	0.607
675.14	0.607
675.33	0.602
675.52	0.601
675.71	0.601
675.89	0.601
676.08	0.597
676.27	0.596
676.46	0.596
676.65	0.596
676.84	0.595
677.02	0.596
677.21	0.599
677.40	0.598
677.59	0.596
677.78	0.596
677.96	0.599
678.15	0.597
678.34	0.596
678.53	0.597
678.72	0.597
678.90	0.594
679.09	0.590
679.28	0.586
679.47	0.586
679.66	0.585
679.84	0.582
680.03	0.580
680.22	0.580
680.41	0.581
680.60	0.577
680.78	0.577
680.97	0.580
681.16	0.580
681.35	0.579
681.53	0.578
681.72	0.580
681.91	0.581
682.10	0.579
682.29	0.582
682.47	0.580
682.66	0.580
682.85	0.577
683.04	0.575
683.22	0.575
683.41	0.577
683.60	0.575
683.79	0.576
683.97	0.575
684.16	0.574
684.35	0.570
684.54	0.571
684.72	0.571
684.91	0.572
685.10	0.570
685.29	0.571
685.47	0.568
685.66	0.567
685.85	0.563
686.04	0.563
686.22	0.565
686.41	0.567
686.60	0.565
686.79	0.568
686.97	0.568
687.16	0.570
687.35	0.568
687.54	0.572
687.72	0.576
687.91	0.576
688.10	0.578
688.29	0.577
688.47	0.576
688.66	0.576
688.85	0.572
689.03	0.570
689.22	0.574
689.41	0.574
689.60	0.569
689.78	0.566
689.97	0.567
690.16	0.564
690.34	0.560
690.53	0.560
690.72	0.560
690.91	0.558
691.09	0.556
691.28	0.550
691.47	0.548
691.65	0.547
691.84	0.545
692.03	0.544
692.21	0.542
692.40	0.542
692.59	0.540
692.77	0.539
692.96	0.541
693.15	0.541
693.34	0.538
693.52	0.539
693.71	0.539
693.90	0.541
694.08	0.541
694.27	0.542
694.46	0.551
694.64	0.552
694.83	0.551
695.02	0.550
695.20	0.551
695.39	0.550
695.58	0.550
695.76	0.551
695.95	0.550
696.14	0.549
696.32	0.546
696.51	0.537
696.70	0.537
696.88	0.539
697.07	0.537
697.26	0.538
697.44	0.539
697.63	0.538
697.81	0.536
698.00	0.536
698.19	0.535
698.37	0.536
698.56	0.535
698.75	0.534
698.93	0.533
699.12	0.533
699.31	0.532
699.49	0.531
699.68	0.533
699.87	0.535
700.05	0.535
700.24	0.534
700.42	0.536
700.61	0.535
700.80	0.533
700.98	0.533
701.17	0.535
701.36	0.533
701.54	0.533
701.73	0.534
701.91	0.532
702.10	0.531
702.29	0.529
702.47	0.527
702.66	0.529
702.84	0.531
703.03	0.528
703.22	0.530
703.40	0.530
703.59	0.531
703.77	0.530
703.96	0.530
704.15	0.532
704.33	0.532
704.52	0.531
704.70	0.530
704.89	0.530
705.08	0.529
705.26	0.525
705.45	0.525
705.63	0.525
705.82	0.522
706.00	0.520
706.19	0.520
706.38	0.520
706.56	0.520
706.75	0.517
706.93	0.516
707.12	0.518
707.30	0.518
707.49	0.516
707.68	0.514
707.86	0.514
708.05	0.514
708.23	0.511
708.42	0.512
708.60	0.514
708.79	0.514
708.98	0.512
709.16	0.512
709.35	0.513
709.53	0.516
709.72	0.515
709.90	0.517
710.09	0.519
710.27	0.521
710.46	0.524
710.64	0.523
710.83	0.525
711.02	0.526
711.20	0.525
711.39	0.524
711.57	0.521
711.76	0.522
711.94	0.520
712.13	0.521
712.31	0.521
712.50	0.516
712.68	0.512
712.87	0.514
713.05	0.514
713.24	0.515
713.42	0.514
713.61	0.515
713.79	0.516
713.98	0.516
714.16	0.517
714.35	0.516
714.54	0.518
714.72	0.518
714.91	0.516
715.09	0.522
715.28	0.525
715.46	0.525
715.65	0.522
715.83	0.522
716.02	0.523
716.20	0.520
716.39	0.519
716.57	0.520
716.76	0.523
716.94	0.523
717.12	0.516
717.31	0.517
717.49	0.521
717.68	0.522
717.86	0.521
718.05	0.524
718.23	0.526
718.42	0.529
718.60	0.530
718.79	0.537
718.97	0.539
719.16	0.539
719.34	0.536
719.53	0.536
719.71	0.536
719.90	0.538
720.08	0.534
720.27	0.534
720.45	0.533
720.63	0.532
720.82	0.526
721.00	0.529
721.19	0.533
721.37	0.532
721.56	0.531
721.74	0.534
721.93	0.542
722.11	0.549
722.30	0.549
722.48	0.554
722.66	0.555
722.85	0.554
723.03	0.555
723.22	0.552
723.40	0.557
723.59	0.556
723.77	0.560
723.95	0.554
724.14	0.555
724.32	0.557
724.51	0.555
724.69	0.557
724.88	0.557
725.06	0.555
725.24	0.556
725.43	0.558
725.61	0.561
725.80	0.555
725.98	0.553
726.16	0.549
726.35	0.554
726.53	0.554
726.72	0.552
726.90	0.562
727.09	0.562
727.27	0.567
727.45	0.563
727.64	0.572
727.82	0.581
728.01	0.585
728.19	0.583
728.37	0.588
728.56	0.593
728.74	0.600
728.92	0.588
729.11	0.590
729.29	0.589
729.48	0.591
729.66	0.580
729.84	0.580
730.03	0.584
730.21	0.585
730.40	0.575
730.58	0.575
730.76	0.575
730.95	0.578
731.13	0.578
731.31	0.590
731.50	0.599
731.68	0.602
731.86	0.596
732.05	0.610
732.23	0.614
732.42	0.617
732.60	0.620
732.78	0.625
732.97	0.643
733.15	0.650
733.33	0.637
733.52	0.644
733.70	0.656
733.88	0.665
734.07	0.651
734.25	0.676
734.43	0.685
734.62	0.687
734.80	0.682
734.98	0.673
735.17	0.678
735.35	0.684
735.53	0.672
735.72	0.676
735.90	0.698
736.08	0.716
736.27	0.693
736.45	0.703
736.63	0.713
736.82	0.723
737.00	0.722
737.18	0.734
737.37	0.764
737.55	0.788
737.73	0.778
737.92	0.781
738.10	0.777
738.28	0.796
738.46	0.782
738.65	0.795
738.83	0.814
739.01	0.867
739.20	0.858
739.38	0.844
739.56	0.836
739.75	0.844
739.93	0.809
740.11	0.834
740.29	0.838
740.48	0.843
740.66	0.820
740.84	0.816
741.03	0.781
741.21	0.790
741.39	0.770
741.57	0.782
741.76	0.797
741.94	0.803
742.12	0.769
742.31	0.774
742.49	0.796
742.67	0.820
742.85	0.834
743.04	0.835
743.22	0.843
743.40	0.893
743.58	0.878
743.77	0.896
743.95	0.932
744.13	0.981
744.31	0.957
744.50	0.950
744.68	0.948
744.86	0.924
745.04	0.936
745.23	0.997
745.41	0.985
745.59	0.985
745.77	0.949
745.96	0.934
746.14	0.947
746.32	0.944
746.50	0.937
746.69	0.918
746.87	0.923
747.05	0.908
747.23	0.840
747.42	0.825
747.60	0.851
747.78	0.852
747.96	0.880
748.14	0.836
748.33	0.863
748.51	0.854
748.69	0.850
748.87	0.879
749.06	0.874
749.24	0.873
749.42	0.855
749.60	0.838
749.78	0.848
749.97	0.806
750.15	0.802
750.33	0.803
750.51	0.826
750.69	0.830
750.88	0.831
751.06	0.841
751.24	0.865
751.42	0.857
751.60	0.850
751.79	0.916
751.97	0.957
752.15	0.959
752.33	0.930
752.51	0.994
752.69	1.015
752.88	0.987
753.06	1.032
753.24	1.010
753.42	1.048
753.60	1.211
753.78	1.071
753.97	1.091
754.15	1.099
754.33	1.126
754.51	1.001
754.69	0.983
754.87	1.009
755.06	0.943
755.24	0.941
755.42	0.950
755.60	0.859
755.78	0.868
755.96	0.816
756.15	0.820
756.33	0.829
756.51	0.847
756.69	0.835
756.87	0.803
757.05	0.819
757.23	0.805
757.42	0.771
757.60	0.771
757.78	0.760
757.96	0.759
758.14	0.741
758.32	0.724
758.50	0.737
758.69	0.734
758.87	0.726
759.05	0.732
759.23	0.741
759.41	0.745
759.59	0.734
759.77	0.756
759.95	0.782
760.13	0.828
760.32	0.827
760.50	0.823
760.68	0.847
760.86	0.847
761.04	0.819
761.22	0.823
761.40	0.865
761.58	0.870
761.76	0.839
761.95	0.823
762.13	0.784
762.31	0.784
762.49	0.755
762.67	0.772
762.85	0.788
763.03	0.784
763.21	0.766
763.39	0.748
763.57	0.752
763.75	0.749
763.94	0.736
764.12	0.736
764.30	0.760
764.48	0.762
764.66	0.727
764.84	0.725
765.02	0.762
765.20	0.768
765.38	0.749
765.56	0.756
765.74	0.794
765.92	0.792
766.10	0.798
766.28	0.792
766.46	0.823
766.65	0.824
766.83	0.811
767.01	0.796
767.19	0.808
767.37	0.809
767.55	0.793
767.73	0.774
767.91	0.777
768.09	0.766
768.27	0.755
768.45	0.745
768.63	0.750
768.81	0.751
768.99	0.724
769.17	0.744
769.35	0.756
769.53	0.754
769.71	0.737
769.89	0.746
770.07	0.752
770.25	0.737
770.43	0.715
770.61	0.736
770.79	0.744
770.97	0.753
771.15	0.723
771.33	0.727
771.51	0.730
771.69	0.740
771.87	0.748
772.05	0.754
772.24	0.763
772.42	0.772
772.60	0.750
772.78	0.807
772.96	0.835
773.14	0.830
773.32	0.806
773.49	0.811
773.67	0.810
773.85	0.788
774.03	0.775
774.21	0.803
774.39	0.811
774.57	0.833
774.75	0.760
774.93	0.757
775.11	0.778
775.29	0.783
775.47	0.785
775.65	0.792
775.83	0.810
776.01	0.832
776.19	0.790
776.37	0.795
776.55	0.797
776.73	0.798
776.91	0.789
777.09	0.773
777.27	0.775
777.45	0.763
777.63	0.740
777.81	0.734
777.99	0.721
778.17	0.719
778.35	0.695
778.53	0.685
778.71	0.691
778.89	0.679
779.07	0.668
779.24	0.672
779.42	0.675
779.60	0.693
779.78	0.691
779.96	0.696
780.14	0.704
780.32	0.724
780.50	0.707
780.68	0.708
780.86	0.705
781.04	0.724
781.22	0.728
781.40	0.737
781.58	0.729
781.75	0.722
781.93	0.704
782.11	0.703
782.29	0.692
782.47	0.689
782.65	0.677
782.83	0.706
783.01	0.700
783.19	0.694
783.37	0.681
783.55	0.684
783.72	0.703
783.90	0.717
784.08	0.709
784.26	0.718
784.44	0.737
784.62	0.738
784.80	0.704
784.98	0.710
785.16	0.717
785.33	0.729
785.51	0.713
785.69	0.699
785.87	0.696
786.05	0.707
786.23	0.706
786.41	0.705
786.59	0.711
786.77	0.710
786.94	0.696
787.12	0.698
787.30	0.701
787.48	0.700
787.66	0.691
787.84	0.692
788.02	0.684
788.19	0.681
788.37	0.667
788.55	0.668
788.73	0.670
788.91	0.665
789.09	0.649
789.27	0.639
789.44	0.650
789.62	0.655
789.80	0.664
789.98	0.688
790.16	0.675
790.34	0.672
790.51	0.661
790.69	0.679
790.87	0.687
791.05	0.685
791.23	0.679
791.41	0.681
791.58	0.688
791.76	0.666
791.94	0.636
792.12	0.646
792.30	0.651
792.48	0.648
792.65	0.640
792.83	0.644
793.01	0.651
793.19	0.648
793.37	0.632
793.54	0.629
793.72	0.641
793.90	0.640
794.08	0.629
794.26	0.629
794.43	0.639
794.61	0.623
794.79	0.613
794.97	0.612
795.15	0.618
795.32	0.621
795.50	0.611
795.68	0.606
795.86	0.610
796.04	0.610
796.21	0.602
796.39	0.601
796.57	0.616
796.75	0.622
796.92	0.622
797.10	0.627
797.28	0.630
797.46	0.634
797.64	0.634
797.81	0.642
797.99	0.648
798.17	0.652
798.35	0.646
798.52	0.649
798.70	0.645
798.88	0.654
799.06	0.652
799.23	0.654
799.41	0.662
799.59	0.657
799.77	0.645
799.94	0.652
800.12	0.662
800.30	0.677
800.48	0.675
800.65	0.677
800.83	0.667
801.01	0.658
801.19	0.658
801.36	0.652
801.54	0.653
801.72	0.662
801.90	0.648
802.07	0.642
802.25	0.630
802.43	0.616
802.60	0.611
802.78	0.618
802.96	0.623
803.14	0.616
803.31	0.614
803.49	0.615
803.67	0.613
803.84	0.618
804.02	0.612
804.20	0.616
804.38	0.621
804.55	0.620
804.73	0.605
804.91	0.606
805.08	0.620
805.26	0.617
805.44	0.679
805.61	0.683
805.79	0.684
805.97	0.683
806.15	0.673
806.32	0.668
806.50	0.674
806.68	0.675
806.85	0.665
807.03	0.654
807.21	0.670
807.38	0.606
807.56	0.596
807.74	0.605
807.91	0.613
808.09	0.615
808.27	0.632
808.44	0.657
808.62	0.667
808.80	0.671
808.97	0.667
809.15	0.662
809.33	0.680
809.50	0.684
809.68	0.669
809.86	0.674
810.03	0.704
810.21	0.685
810.39	0.667
810.56	0.674
810.74	0.698
810.91	0.768
811.09	0.753
811.27	0.771
811.44	0.778
811.62	0.782
811.80	0.766
811.97	0.738
812.15	0.738
812.33	0.731
812.50	0.715
812.68	0.702
812.85	0.650
813.03	0.655
813.21	0.624
813.38	0.618
813.56	0.620
813.74	0.631
813.91	0.638
814.09	0.667
814.26	0.662
814.44	0.667
814.62	0.656
814.79	0.659
814.97	0.664
815.14	0.666
815.32	0.669
815.50	0.685
815.67	0.687
815.85	0.675
816.02	0.664
816.20	0.670
816.38	0.682
816.55	0.688
816.73	0.687
816.90	0.695
817.08	0.726
817.26	0.733
817.43	0.714
817.61	0.737
817.78	0.758
817.96	0.738
818.13	0.731
818.31	0.732
818.49	0.745
818.66	0.732
818.84	0.718
819.01	0.697
819.19	0.704
819.36	0.707
819.54	0.679
819.71	0.718
819.89	0.732
820.07	0.744
820.24	0.738
820.42	0.738
820.59	0.762
820.77	0.785
820.94	0.777
821.12	0.793
821.29	0.806
821.47	0.808
821.64	0.745
821.82	0.757
822.00	0.754
822.17	0.753
822.35	0.744
822.52	0.744
822.70	0.734
822.87	0.744
823.05	0.722
823.22	0.735
823.40	0.758
823.57	0.780
823.75	0.761
823.92	0.783
824.10	0.802
824.27	0.843
824.45	0.832
824.62	0.892
824.80	0.906
824.97	0.921
825.15	0.912
825.32	0.924
825.50	0.928
825.67	0.941
825.85	0.915
826.02	0.928
826.20	0.950
826.37	1.064
826.55	0.980
826.72	1.168
826.90	1.240
827.07	1.285
827.25	1.239
827.42	1.415
827.60	1.565
827.77	1.789
827.95	1.777
828.12	1.939
828.30	1.505
828.47	1.688
828.65	1.244
828.82	1.305
829.00	1.394
829.17	1.508
829.34	1.499
829.52	1.615
829.69	-0.000
829.87	-0.000
830.04	-0.000
830.22	-0.000
830.39	-0.000
830.57	-0.000
830.74	-0.000
830.92	-0.000
831.09	-0.000
831.26	-0.000
831.44	-0.000
831.61	-0.000
831.79	-0.000
831.96	-0.000
832.14	-0.000
832.31	-0.000
832.49	-0.000
832.66	-0.000
832.83	-0.000
833.01	-0.000
833.18	-0.000
833.36	-0.000
833.53	-0.000
833.70	-0.000
833.88	-0.000
834.05	-0.000
834.23	-0.000
834.40	-0.000
834.58	-0.000
834.75	-0.000
834.92	-0.000
835.10	-0.000
835.27	-0.000
835.45	-0.000
835.62	-0.000
835.79	-0.000
835.97	-0.000
836.14	-0.000
836.32	-0.000
836.49	-0.000
836.66	-0.000
836.84	-0.000
837.01	-0.000
837.18	-0.000
837.36	-0.000
837.53	-0.000
837.71	-0.000
837.88	-0.000
838.05	-0.000
838.23	-0.000
838.40	-0.000
838.58	-0.000
838.75	-0.000
838.92	-0.000
839.10	-0.000
839.27	-0.000
839.44	-0.000
839.62	-0.000
839.79	-0.000
839.96	-0.000
840.14	-0.000
840.31	-0.000
840.48	-0.000
840.66	-0.000
840.83	-0.000
841.01	-0.000
841.18	-0.000
841.35	-0.000
841.53	-0.000
841.70	-0.000
841.87	-0.000
842.05	-0.000
842.22	-0.000
842.39	-0.000
842.57	-0.000
842.74	-0.000
842.91	-0.000
843.09	-0.000
843.26	-0.000
843.43	-0.000
843.60	-0.000
843.78	-0.000
843.95	-0.000
844.12	-0.000
844.30	-0.000
844.47	-0.000
844.64	-0.000
844.82	-0.000
844.99	-0.000
845.16	-0.000
845.34	-0.000
845.51	-0.000
845.68	-0.000
845.85	-0.000
846.03	-0.000
846.20	-0.000
846.37	-0.000
846.55	-0.000
846.72	-0.000
846.89	-0.000
847.06	-0.000
847.24	-0.000
847.41	-0.000
847.58	-0.000
847.76	-0.000
847.93	-0.000
848.10	-0.000
848.27	-0.000
848.45	-0.000
848.62	-0.000
848.79	-0.000
848.97	-0.000
849.14	-0.000
849.31	-0.000
849.48	-0.000
849.66	-0.000
849.83	-0.000
850.00	-0.000
850.17	-0.000
850.35	-0.000
850.52	-0.000
850.69	-0.000
850.86	-0.000
851.04	-0.000
851.21	-0.000
851.38	-0.000
851.55	-0.000
851.72	-0.000
851.90	-0.000
852.07	-0.000
852.24	-0.000
852.41	-0.000
852.59	-0.000
852.76	-0.000
852.93	-0.000
853.10	-0.000
853.28	-0.000
853.45	-0.000
853.62	-0.000
853.79	-0.000
853.96	-0.000
854.14	-0.000
854.31	-0.000
854.48	-0.000
854.65	-0.000
854.82	-0.000
855.00	-0.000
855.17	-0.000
855.34	-0.000
855.51	-0.000
855.68	-0.000
855.86	-0.000
856.03	-0.000
856.20	-0.000
856.37	-0.000
856.54	-0.000
856.72	-0.000
856.89	-0.000
857.06	-0.000
857.23	-0.000
857.40	-0.000
857.57	-0.000
857.75	-0.000
857.92	-0.000
858.09	-0.000
858.26	-0.000
858.43	-0.000
858.60	-0.000
858.78	-0.000
858.95	-0.000
859.12	-0.000
859.29	-0.000
859.46	-0.000
859.63	-0.000
859.81	-0.000
859.98	-0.000
860.15	-0.000
860.32	-0.000
860.49	-0.000
860.66	-0.000
860.83	-0.000
861.01	-0.000
861.18	-0.000
861.35	-0.000
861.52	-0.000
861.69	-0.000
861.86	-0.000
862.03	-0.000
862.21	-0.000
862.38	-0.000
862.55	-0.000
862.72	-0.000
862.89	-0.000
863.06	-0.000
863.23	-0.000
863.40	-0.000
863.58	-0.000
863.75	-0.000
863.92	-0.000
864.09	-0.000
864.26	-0.000
864.43	-0.000
864.60	-0.000
864.77	-0.000
864.94	-0.000
865.11	-0.000
865.29	-0.000
865.46	-0.000
865.63	-0.000
865.80	-0.000
865.97	-0.000
866.14	-0.000
866.31	-0.000
866.48	-0.000
866.65	-0.000
866.82	-0.000
866.99	-0.000
867.16	-0.000
867.34	-0.000
867.51	-0.000
867.68	-0.000
867.85	-0.000
868.02	-0.000
868.19	-0.000
868.36	-0.000
868.53	-0.000
868.70	-0.000
868.87	-0.000
869.04	-0.000
869.21	-0.000
869.38	-0.000
869.55	-0.000
869.72	-0.000
869.89	-0.000
870.06	-0.000
870.24	-0.000
870.41	-0.000
870.58	-0.000
870.75	-0.000
870.92	-0.000
871.09	-0.000
871.26	-0.000
871.43	-0.000
871.60	-0.000
871.77	-0.000
871.94	-0.000
872.11	-0.000
872.28	-0.000
872.45	-0.000
872.62	-0.000
872.79	-0.000
872.96	-0.000
873.13	-0.000
873.30	-0.000
873.47	-0.000
873.64	-0.000
873.81	-0.000
873.98	-0.000
874.15	-0.000
874.32	-0.000
874.49	-0.000
874.66	-0.000
874.83	-0.000
875.00	-0.000
875.17	-0.000
875.34	-0.000
875.51	-0.000
875.68	-0.000
875.85	-0.000
876.02	-0.000
876.19	-0.000
876.36	-0.000
876.53	-0.000
876.70	-0.000
876.87	-0.000
877.04	-0.000
877.21	-0.000
877.38	-0.000
877.55	-0.000
877.72	-0.000
877.89	-0.000
878.06	-0.000
878.23	-0.000
878.39	-0.000
878.56	-0.000
878.73	-0.000
878.90	-0.000
879.07	-0.000
879.24	-0.000
879.41	-0.000
879.58	-0.000
879.75	-0.000
879.92	-0.000
880.09	-0.000
880.26	-0.000
880.43	-0.000
880.60	-0.000
880.77	-0.000
880.94	-0.000
881.11	-0.000
881.27	-0.000
881.44	-0.000
881.61	-0.000
881.78	-0.000
881.95	-0.000
882.12	-0.000
882.29	-0.000
882.46	-0.000
882.63	-0.000
882.80	-0.000
882.97	-0.000
883.14	-0.000
883.30	-0.000
883.47	-0.000
883.64	-0.000
883.81	-0.000
883.98	-0.000
884.15	-0.000
884.32	-0.000
884.49	-0.000
884.66	-0.000
884.82	-0.000
884.99	-0.000
885.16	-0.000
885.33	-0.000
885.50	-0.000
885.67	-0.000
885.84	-0.000
886.01	-0.000
886.17	-0.000
886.34	-0.000
886.51	-0.000
886.68	-0.000
886.85	-0.000
887.02	-0.000
887.19	-0.000
887.36	-0.000
887.52	-0.000
887.69	-0.000
887.86	-0.000
888.03	-0.000
888.20	-0.000
888.37	-0.000
888.54	-0.000
888.70	-0.000
888.87	-0.000
889.04	-0.000
889.21	-0.000
889.38	-0.000
889.55	-0.000
889.71	-0.000
889.88	-0.000
890.05	-0.000
890.22	-0.000
890.39	-0.000
>>>>>End Processed Spectral Data<<<<<
