SpectraSuite Data File
++++++++++++++++++++++++++++++++++++
Date: Fri Jun 19 13:48:21 CEST 2015
User: introlabs
Dark Spectrum Present: Yes
Reference Spectrum Present: Yes
Number of Sampled Component Spectra: 1
Spectrometers: USB4H08886
Integration Time (usec): 745692 (USB4H08886)
Spectra Averaged: 5 (USB4H08886)
Boxcar Smoothing: 5 (USB4H08886)
Correct for Electrical Dark: Yes (USB4H08886)
Strobe/Lamp Enabled: No (USB4H08886)
Correct for Detector Non-linearity: Yes (USB4H08886)
Correct for Stray Light: Yes (USB4H08886)
Number of Pixels in Processed Spectrum: 3648
>>>>>Begin Processed Spectral Data<<<<<
178.14	-0.000
178.36	-0.000
178.57	-0.000
178.79	-0.000
179.01	-0.000
179.22	-0.000
179.44	-0.000
179.65	-0.000
179.87	-0.000
180.08	-0.000
180.30	-0.000
180.52	-0.000
180.73	-0.000
180.95	-0.000
181.16	-0.000
181.38	-0.000
181.59	-0.000
181.81	-0.000
182.03	-0.000
182.24	-0.000
182.46	-0.000
182.67	-0.000
182.89	-0.000
183.10	-0.000
183.32	-0.000
183.54	-0.000
183.75	-0.000
183.97	-0.000
184.18	-0.000
184.40	-0.000
184.61	-0.000
184.83	-0.000
185.04	-0.000
185.26	-0.000
185.48	-0.000
185.69	-0.000
185.91	-0.000
186.12	-0.000
186.34	-0.000
186.55	-0.000
186.77	-0.000
186.98	-0.000
187.20	-0.000
187.42	-0.000
187.63	-0.000
187.85	-0.000
188.06	-0.000
188.28	-0.000
188.49	-0.000
188.71	-0.000
188.92	-0.000
189.14	-0.000
189.36	-0.000
189.57	-0.000
189.79	-0.000
190.00	-0.000
190.22	-0.000
190.43	-0.000
190.65	-0.000
190.86	-0.000
191.08	-0.000
191.29	-0.000
191.51	-0.000
191.72	-0.000
191.94	-0.000
192.16	-0.000
192.37	-0.000
192.59	-0.000
192.80	-0.000
193.02	-0.000
193.23	-0.000
193.45	-0.000
193.66	-0.000
193.88	-0.000
194.09	-0.000
194.31	-0.000
194.52	-0.000
194.74	-0.000
194.95	-0.000
195.17	-0.000
195.38	-0.000
195.60	-0.000
195.81	-0.000
196.03	-0.000
196.25	-0.000
196.46	-0.000
196.68	-0.000
196.89	-0.000
197.11	-0.000
197.32	-0.000
197.54	-0.000
197.75	-0.000
197.97	-0.000
198.18	-0.000
198.40	-0.000
198.61	-0.000
198.83	-0.000
199.04	-0.000
199.26	-0.000
199.47	-0.000
199.69	-0.000
199.90	-0.000
200.12	-0.000
200.33	-0.000
200.55	-0.000
200.76	-0.000
200.98	-0.000
201.19	-0.000
201.41	-0.000
201.62	-0.000
201.84	-0.000
202.05	-0.000
202.27	-0.000
202.48	-0.000
202.70	-0.000
202.91	-0.000
203.13	-0.000
203.34	-0.000
203.56	-0.000
203.77	-0.000
203.99	-0.000
204.20	-0.000
204.42	-0.000
204.63	-0.000
204.85	-0.000
205.06	-0.000
205.28	-0.000
205.49	-0.000
205.71	-0.000
205.92	-0.000
206.14	-0.000
206.35	-0.000
206.56	-0.000
206.78	-0.000
206.99	-0.000
207.21	-0.000
207.42	-0.000
207.64	-0.000
207.85	-0.000
208.07	-0.000
208.28	-0.000
208.50	-0.000
208.71	-0.000
208.93	-0.000
209.14	-0.000
209.36	-0.000
209.57	-0.000
209.79	-0.000
210.00	-0.000
210.22	-0.000
210.43	-0.000
210.64	-0.000
210.86	-0.000
211.07	-0.000
211.29	-0.000
211.50	-0.000
211.72	-0.000
211.93	-0.000
212.15	-0.000
212.36	-0.000
212.58	-0.000
212.79	-0.000
213.01	-0.000
213.22	-0.000
213.43	-0.000
213.65	-0.000
213.86	-0.000
214.08	-0.000
214.29	-0.000
214.51	-0.000
214.72	-0.000
214.94	-0.000
215.15	-0.000
215.36	-0.000
215.58	-0.000
215.79	-0.000
216.01	-0.000
216.22	-0.000
216.44	-0.000
216.65	-0.000
216.87	-0.000
217.08	-0.000
217.29	-0.000
217.51	-0.000
217.72	-0.000
217.94	-0.000
218.15	-0.000
218.37	-0.000
218.58	-0.000
218.80	-0.000
219.01	-0.000
219.22	-0.000
219.44	-0.000
219.65	-0.000
219.87	-0.000
220.08	-0.000
220.30	-0.000
220.51	-0.000
220.72	-0.000
220.94	-0.000
221.15	-0.000
221.37	-0.000
221.58	-0.000
221.79	-0.000
222.01	-0.000
222.22	-0.000
222.44	-0.000
222.65	-0.000
222.87	-0.000
223.08	-0.000
223.29	-0.000
223.51	-0.000
223.72	-0.000
223.94	-0.000
224.15	-0.000
224.36	-0.000
224.58	-0.000
224.79	-0.000
225.01	-0.000
225.22	-0.000
225.44	-0.000
225.65	-0.000
225.86	-0.000
226.08	-0.000
226.29	-0.000
226.51	-0.000
226.72	-0.000
226.93	-0.000
227.15	-0.000
227.36	-0.000
227.58	-0.000
227.79	-0.000
228.00	-0.000
228.22	-0.000
228.43	-0.000
228.65	-0.000
228.86	-0.000
229.07	-0.000
229.29	-0.000
229.50	-0.000
229.72	-0.000
229.93	-0.000
230.14	-0.000
230.36	-0.000
230.57	-0.000
230.78	-0.000
231.00	-0.000
231.21	-0.000
231.43	-0.000
231.64	-0.000
231.85	-0.000
232.07	-0.000
232.28	-0.000
232.50	-0.000
232.71	-0.000
232.92	-0.000
233.14	-0.000
233.35	-0.000
233.56	-0.000
233.78	-0.000
233.99	-0.000
234.21	-0.000
234.42	-0.000
234.63	-0.000
234.85	-0.000
235.06	-0.000
235.27	-0.000
235.49	-0.000
235.70	-0.000
235.91	-0.000
236.13	-0.000
236.34	-0.000
236.56	-0.000
236.77	-0.000
236.98	-0.000
237.20	-0.000
237.41	-0.000
237.62	-0.000
237.84	-0.000
238.05	-0.000
238.26	-0.000
238.48	-0.000
238.69	-0.000
238.91	-0.000
239.12	-0.000
239.33	-0.000
239.55	-0.000
239.76	-0.000
239.97	-0.000
240.19	-0.000
240.40	-0.000
240.61	-0.000
240.83	-0.000
241.04	-0.000
241.25	-0.000
241.47	-0.000
241.68	-0.000
241.89	-0.000
242.11	-0.000
242.32	-0.000
242.53	-0.000
242.75	-0.000
242.96	-0.000
243.17	-0.000
243.39	-0.000
243.60	-0.000
243.81	-0.000
244.03	-0.000
244.24	-0.000
244.45	-0.000
244.67	-0.000
244.88	-0.000
245.09	-0.000
245.31	-0.000
245.52	-0.000
245.73	-0.000
245.95	-0.000
246.16	-0.000
246.37	-0.000
246.59	-0.000
246.80	-0.000
247.01	-0.000
247.23	-0.000
247.44	-0.000
247.65	-0.000
247.87	-0.000
248.08	-0.000
248.29	-0.000
248.51	-0.000
248.72	-0.000
248.93	-0.000
249.15	-0.000
249.36	-0.000
249.57	-0.000
249.78	-0.000
250.00	-0.000
250.21	-0.000
250.42	-0.000
250.64	-0.000
250.85	-0.000
251.06	-0.000
251.28	-0.000
251.49	-0.000
251.70	-0.000
251.92	-0.000
252.13	-0.000
252.34	-0.000
252.55	-0.000
252.77	-0.000
252.98	-0.000
253.19	-0.000
253.41	-0.000
253.62	-0.000
253.83	-0.000
254.05	-0.000
254.26	-0.000
254.47	-0.000
254.68	-0.000
254.90	-0.000
255.11	-0.000
255.32	-0.000
255.54	-0.000
255.75	-0.000
255.96	-0.000
256.17	-0.000
256.39	-0.000
256.60	-0.000
256.81	-0.000
257.03	-0.000
257.24	-0.000
257.45	-0.000
257.66	-0.000
257.88	-0.000
258.09	-0.000
258.30	-0.000
258.51	-0.000
258.73	-0.000
258.94	-0.000
259.15	-0.000
259.37	-0.000
259.58	-0.000
259.79	-0.000
260.00	-0.000
260.22	-0.000
260.43	-0.000
260.64	-0.000
260.85	-0.000
261.07	-0.000
261.28	-0.000
261.49	-0.000
261.71	-0.000
261.92	-0.000
262.13	-0.000
262.34	-0.000
262.56	-0.000
262.77	-0.000
262.98	-0.000
263.19	-0.000
263.41	-0.000
263.62	-0.000
263.83	-0.000
264.04	-0.000
264.26	-0.000
264.47	-0.000
264.68	-0.000
264.89	-0.000
265.11	-0.000
265.32	-0.000
265.53	-0.000
265.74	-0.000
265.96	-0.000
266.17	-0.000
266.38	-0.000
266.59	-0.000
266.81	-0.000
267.02	-0.000
267.23	-0.000
267.44	-0.000
267.65	-0.000
267.87	-0.000
268.08	-0.000
268.29	-0.000
268.50	-0.000
268.72	-0.000
268.93	-0.000
269.14	-0.000
269.35	-0.000
269.57	-0.000
269.78	-0.000
269.99	-0.000
270.20	-0.000
270.41	-0.000
270.63	-0.000
270.84	-0.000
271.05	-0.000
271.26	-0.000
271.48	-0.000
271.69	-0.000
271.90	-0.000
272.11	-0.000
272.32	-0.000
272.54	-0.000
272.75	-0.000
272.96	-0.000
273.17	-0.000
273.39	-0.000
273.60	-0.000
273.81	-0.000
274.02	-0.000
274.23	-0.000
274.45	-0.000
274.66	-0.000
274.87	-0.000
275.08	-0.000
275.29	-0.000
275.51	-0.000
275.72	-0.000
275.93	-0.000
276.14	-0.000
276.35	-0.000
276.57	-0.000
276.78	-0.000
276.99	-0.000
277.20	-0.000
277.41	-0.000
277.63	-0.000
277.84	-0.000
278.05	-0.000
278.26	-0.000
278.47	-0.000
278.69	-0.000
278.90	-0.000
279.11	-0.000
279.32	-0.000
279.53	-0.000
279.74	-0.000
279.96	-0.000
280.17	-0.000
280.38	-0.000
280.59	-0.000
280.80	-0.000
281.02	-0.000
281.23	-0.000
281.44	-0.000
281.65	-0.000
281.86	-0.000
282.07	-0.000
282.29	-0.000
282.50	-0.000
282.71	-0.000
282.92	-0.000
283.13	-0.000
283.35	-0.000
283.56	-0.000
283.77	-0.000
283.98	-0.000
284.19	-0.000
284.40	-0.000
284.62	-0.000
284.83	-0.000
285.04	-0.000
285.25	-0.000
285.46	-0.000
285.67	-0.000
285.88	-0.000
286.10	-0.000
286.31	-0.000
286.52	-0.000
286.73	-0.000
286.94	-0.000
287.15	-0.000
287.37	-0.000
287.58	-0.000
287.79	-0.000
288.00	-0.000
288.21	-0.000
288.42	-0.000
288.63	-0.000
288.85	-0.000
289.06	-0.000
289.27	-0.000
289.48	-0.000
289.69	-0.000
289.90	-0.000
290.11	-0.000
290.33	-0.000
290.54	-0.000
290.75	-0.000
290.96	-0.000
291.17	-0.000
291.38	-0.000
291.59	-0.000
291.81	-0.000
292.02	-0.000
292.23	-0.000
292.44	-0.000
292.65	-0.000
292.86	-0.000
293.07	-0.000
293.28	-0.000
293.50	-0.000
293.71	-0.000
293.92	-0.000
294.13	-0.000
294.34	-0.000
294.55	-0.000
294.76	-0.000
294.97	-0.000
295.19	-0.000
295.40	-0.000
295.61	-0.000
295.82	-0.000
296.03	-0.000
296.24	-0.000
296.45	-0.000
296.66	3.019
296.87	3.295
297.09	-0.000
297.30	-0.000
297.51	2.278
297.72	2.156
297.93	2.603
298.14	2.376
298.35	2.213
298.56	2.126
298.77	2.728
298.99	2.486
299.20	2.282
299.41	2.177
299.62	2.092
299.83	2.072
300.04	1.910
300.25	1.865
300.46	1.968
300.67	1.910
300.88	1.794
301.10	1.786
301.31	1.947
301.52	1.834
301.73	1.731
301.94	1.725
302.15	1.750
302.36	1.676
302.57	1.582
302.78	1.590
302.99	1.646
303.20	1.676
303.41	1.542
303.63	1.506
303.84	1.518
304.05	1.500
304.26	1.419
304.47	1.425
304.68	1.429
304.89	1.417
305.10	1.360
305.31	1.349
305.52	1.405
305.73	1.398
305.94	1.352
306.15	1.340
306.37	1.375
306.58	1.389
306.79	1.348
307.00	1.373
307.21	1.425
307.42	1.417
307.63	1.366
307.84	1.323
308.05	1.367
308.26	1.365
308.47	1.330
308.68	1.322
308.89	1.322
309.10	1.320
309.31	1.270
309.52	1.258
309.73	1.276
309.95	1.268
310.16	1.234
310.37	1.220
310.58	1.241
310.79	1.243
311.00	1.237
311.21	1.240
311.42	1.243
311.63	1.237
311.84	1.215
312.05	1.211
312.26	1.237
312.47	1.250
312.68	1.224
312.89	1.204
313.10	1.211
313.31	1.182
313.52	1.180
313.73	1.181
313.94	1.185
314.15	1.165
314.36	1.142
314.57	1.133
314.78	1.120
314.99	1.112
315.21	1.099
315.42	1.102
315.63	1.116
315.84	1.091
316.05	1.075
316.26	1.083
316.47	1.102
316.68	1.098
316.89	1.078
317.10	1.101
317.31	1.107
317.52	1.109
317.73	1.086
317.94	1.085
318.15	1.134
318.36	1.132
318.57	1.111
318.78	1.100
318.99	1.138
319.20	1.134
319.41	1.095
319.62	1.097
319.83	1.110
320.04	1.104
320.25	1.090
320.46	1.055
320.67	1.062
320.88	1.059
321.09	1.043
321.30	1.026
321.51	1.045
321.72	1.043
321.93	1.028
322.14	1.020
322.35	1.049
322.56	1.050
322.77	1.034
322.98	1.044
323.19	1.051
323.40	1.059
323.61	1.038
323.82	1.028
324.03	1.032
324.24	1.027
324.45	1.014
324.66	0.994
324.87	0.990
325.08	0.990
325.29	0.970
325.50	0.963
325.71	0.968
325.92	0.975
326.13	0.963
326.34	0.963
326.55	0.973
326.76	0.972
326.97	0.958
327.18	0.953
327.39	0.980
327.60	0.981
327.80	0.981
328.01	0.979
328.22	0.978
328.43	0.979
328.64	0.967
328.85	0.971
329.06	0.973
329.27	0.973
329.48	0.968
329.69	0.947
329.90	0.959
330.11	0.951
330.32	0.944
330.53	0.938
330.74	0.939
330.95	0.939
331.16	0.923
331.37	0.931
331.58	0.931
331.79	0.931
332.00	0.922
332.21	0.915
332.42	0.920
332.63	0.911
332.83	0.906
333.04	0.910
333.25	0.922
333.46	0.921
333.67	0.907
333.88	0.910
334.09	0.920
334.30	0.918
334.51	0.907
334.72	0.902
334.93	0.906
335.14	0.905
335.35	0.895
335.56	0.889
335.77	0.899
335.98	0.896
336.18	0.888
336.39	0.880
336.60	0.886
336.81	0.884
337.02	0.882
337.23	0.887
337.44	0.890
337.65	0.892
337.86	0.881
338.07	0.877
338.28	0.883
338.49	0.881
338.70	0.874
338.91	0.880
339.11	0.887
339.32	0.884
339.53	0.872
339.74	0.868
339.95	0.866
340.16	0.865
340.37	0.856
340.58	0.854
340.79	0.858
341.00	0.858
341.21	0.847
341.41	0.847
341.62	0.849
341.83	0.850
342.04	0.845
342.25	0.855
342.46	0.860
342.67	0.859
342.88	0.851
343.09	0.850
343.30	0.857
343.50	0.859
343.71	0.849
343.92	0.848
344.13	0.853
344.34	0.852
344.55	0.836
344.76	0.834
344.97	0.839
345.18	0.838
345.38	0.835
345.59	0.830
345.80	0.831
346.01	0.829
346.22	0.824
346.43	0.818
346.64	0.827
346.85	0.827
347.06	0.819
347.26	0.819
347.47	0.823
347.68	0.818
347.89	0.815
348.10	0.809
348.31	0.817
348.52	0.816
348.73	0.812
348.93	0.808
349.14	0.810
349.35	0.810
349.56	0.804
349.77	0.799
349.98	0.806
350.19	0.802
350.39	0.797
350.60	0.792
350.81	0.809
351.02	0.807
351.23	0.803
351.44	0.806
351.65	0.810
351.86	0.807
352.06	0.804
352.27	0.804
352.48	0.805
352.69	0.805
352.90	0.800
353.11	0.786
353.31	0.794
353.52	0.789
353.73	0.781
353.94	0.781
354.15	0.788
354.36	0.789
354.57	0.780
354.77	0.784
354.98	0.783
355.19	0.781
355.40	0.781
355.61	0.786
355.82	0.791
356.02	0.791
356.23	0.784
356.44	0.785
356.65	0.788
356.86	0.788
357.07	0.782
357.27	0.785
357.48	0.789
357.69	0.785
357.90	0.769
358.11	0.766
358.32	0.770
358.52	0.772
358.73	0.763
358.94	0.765
359.15	0.769
359.36	0.769
359.56	0.764
359.77	0.761
359.98	0.767
360.19	0.767
360.40	0.764
360.61	0.765
360.81	0.765
361.02	0.765
361.23	0.756
361.44	0.755
361.65	0.757
361.85	0.756
362.06	0.754
362.27	0.756
362.48	0.756
362.69	0.758
362.89	0.752
363.10	0.753
363.31	0.758
363.52	0.762
363.73	0.757
363.93	0.756
364.14	0.758
364.35	0.760
364.56	0.749
364.77	0.752
364.97	0.754
365.18	0.755
365.39	0.749
365.60	0.745
365.81	0.745
366.01	0.745
366.22	0.742
366.43	0.741
366.64	0.744
366.84	0.751
367.05	0.746
367.26	0.745
367.47	0.748
367.68	0.747
367.88	0.744
368.09	0.743
368.30	0.747
368.51	0.747
368.71	0.745
368.92	0.749
369.13	0.747
369.34	0.746
369.55	0.745
369.75	0.744
369.96	0.751
370.17	0.751
370.38	0.746
370.58	0.745
370.79	0.750
371.00	0.749
371.21	0.739
371.41	0.745
371.62	0.750
371.83	0.745
372.04	0.743
372.24	0.736
372.45	0.738
372.66	0.739
372.87	0.735
373.07	0.732
373.28	0.733
373.49	0.737
373.70	0.727
373.90	0.726
374.11	0.735
374.32	0.735
374.53	0.733
374.73	0.733
374.94	0.736
375.15	0.737
375.36	0.734
375.56	0.743
375.77	0.743
375.98	0.743
376.19	0.740
376.39	0.734
376.60	0.737
376.81	0.738
377.02	0.735
377.22	0.733
377.43	0.733
377.64	0.733
377.84	0.724
378.05	0.728
378.26	0.735
378.47	0.735
378.67	0.731
378.88	0.729
379.09	0.729
379.30	0.730
379.50	0.727
379.71	0.729
379.92	0.732
380.12	0.732
380.33	0.723
380.54	0.719
380.75	0.726
380.95	0.726
381.16	0.724
381.37	0.724
381.57	0.726
381.78	0.726
381.99	0.725
382.20	0.725
382.40	0.728
382.61	0.729
382.82	0.725
383.02	0.718
383.23	0.721
383.44	0.720
383.64	0.718
383.85	0.721
384.06	0.724
384.27	0.721
384.47	0.719
384.68	0.719
384.89	0.725
385.09	0.725
385.30	0.725
385.51	0.724
385.71	0.728
385.92	0.728
386.13	0.726
386.33	0.728
386.54	0.730
386.75	0.728
386.95	0.724
387.16	0.718
387.37	0.720
387.58	0.720
387.78	0.718
387.99	0.715
388.20	0.718
388.40	0.716
388.61	0.711
388.82	0.714
389.02	0.717
389.23	0.717
389.44	0.715
389.64	0.716
389.85	0.728
390.06	0.727
390.26	0.727
390.47	0.725
390.68	0.727
390.88	0.725
391.09	0.721
391.30	0.720
391.50	0.720
391.71	0.720
391.92	0.717
392.12	0.709
392.33	0.710
392.53	0.710
392.74	0.710
392.95	0.709
393.15	0.713
393.36	0.715
393.57	0.712
393.77	0.716
393.98	0.717
394.19	0.717
394.39	0.717
394.60	0.719
394.81	0.720
395.01	0.718
395.22	0.716
395.43	0.717
395.63	0.721
395.84	0.722
396.04	0.718
396.25	0.720
396.46	0.722
396.66	0.720
396.87	0.716
397.08	0.713
397.28	0.716
397.49	0.716
397.69	0.712
397.90	0.707
398.11	0.709
398.31	0.710
398.52	0.706
398.73	0.707
398.93	0.706
399.14	0.706
399.34	0.705
399.55	0.706
399.76	0.707
399.96	0.707
400.17	0.705
400.37	0.703
400.58	0.710
400.79	0.712
400.99	0.709
401.20	0.715
401.41	0.718
401.61	0.719
401.82	0.724
402.02	0.723
402.23	0.725
402.44	0.725
402.64	0.724
402.85	0.718
403.05	0.717
403.26	0.716
403.47	0.709
403.67	0.708
403.88	0.708
404.08	0.702
404.29	0.700
404.50	0.699
404.70	0.700
404.91	0.699
405.11	0.696
405.32	0.697
405.52	0.698
405.73	0.698
405.94	0.696
406.14	0.699
406.35	0.701
406.55	0.700
406.76	0.698
406.97	0.699
407.17	0.701
407.38	0.701
407.58	0.699
407.79	0.701
407.99	0.704
408.20	0.704
408.41	0.700
408.61	0.698
408.82	0.700
409.02	0.700
409.23	0.697
409.43	0.697
409.64	0.697
409.84	0.698
410.05	0.694
410.26	0.693
410.46	0.692
410.67	0.692
410.87	0.693
411.08	0.695
411.28	0.696
411.49	0.697
411.69	0.694
411.90	0.696
412.11	0.697
412.31	0.697
412.52	0.696
412.72	0.697
412.93	0.698
413.13	0.696
413.34	0.693
413.54	0.694
413.75	0.696
413.95	0.696
414.16	0.692
414.37	0.696
414.57	0.696
414.78	0.698
414.98	0.696
415.19	0.698
415.39	0.696
415.60	0.698
415.80	0.697
416.01	0.695
416.21	0.697
416.42	0.698
416.62	0.692
416.83	0.693
417.03	0.692
417.24	0.692
417.44	0.689
417.65	0.688
417.86	0.688
418.06	0.686
418.27	0.685
418.47	0.686
418.68	0.687
418.88	0.687
419.09	0.686
419.29	0.686
419.50	0.688
419.70	0.688
419.91	0.686
420.11	0.684
420.32	0.686
420.52	0.686
420.73	0.684
420.93	0.685
421.14	0.687
421.34	0.685
421.55	0.681
421.75	0.681
421.96	0.682
422.16	0.682
422.37	0.682
422.57	0.679
422.78	0.681
422.98	0.677
423.19	0.675
423.39	0.674
423.60	0.679
423.80	0.680
424.01	0.678
424.21	0.680
424.42	0.681
424.62	0.681
424.83	0.680
425.03	0.681
425.23	0.683
425.44	0.684
425.64	0.684
425.85	0.682
426.05	0.683
426.26	0.684
426.46	0.681
426.67	0.680
426.87	0.686
427.08	0.686
427.28	0.684
427.49	0.685
427.69	0.686
427.90	0.685
428.10	0.682
428.31	0.681
428.51	0.682
428.71	0.682
428.92	0.682
429.12	0.679
429.33	0.680
429.53	0.684
429.74	0.687
429.94	0.687
430.15	0.687
430.35	0.687
430.56	0.684
430.76	0.684
430.96	0.684
431.17	0.682
431.37	0.679
431.58	0.677
431.78	0.674
431.99	0.667
432.19	0.669
432.40	0.671
432.60	0.672
432.80	0.674
433.01	0.673
433.21	0.673
433.42	0.675
433.62	0.675
433.83	0.674
434.03	0.677
434.23	0.681
434.44	0.680
434.64	0.677
434.85	0.682
435.05	0.683
435.26	0.684
435.46	0.682
435.66	0.682
435.87	0.682
436.07	0.682
436.28	0.678
436.48	0.675
436.69	0.674
436.89	0.675
437.09	0.668
437.30	0.666
437.50	0.667
437.71	0.678
437.91	0.676
438.11	0.678
438.32	0.683
438.52	0.683
438.73	0.682
438.93	0.680
439.13	0.680
439.34	0.684
439.54	0.682
439.75	0.682
439.95	0.672
440.15	0.677
440.36	0.675
440.56	0.673
440.77	0.674
440.97	0.674
441.17	0.672
441.38	0.674
441.58	0.671
441.79	0.671
441.99	0.669
442.19	0.668
442.40	0.666
442.60	0.666
442.81	0.663
443.01	0.663
443.21	0.664
443.42	0.663
443.62	0.662
443.82	0.661
444.03	0.663
444.23	0.663
444.44	0.663
444.64	0.662
444.84	0.664
445.05	0.664
445.25	0.662
445.45	0.662
445.66	0.664
445.86	0.663
446.06	0.665
446.27	0.664
446.47	0.667
446.68	0.665
446.88	0.664
447.08	0.663
447.29	0.666
447.49	0.666
447.69	0.666
447.90	0.664
448.10	0.668
448.30	0.665
448.51	0.666
448.71	0.664
448.91	0.667
449.12	0.666
449.32	0.667
449.52	0.666
449.73	0.669
449.93	0.669
450.14	0.669
450.34	0.669
450.54	0.671
450.75	0.668
450.95	0.668
451.15	0.667
451.36	0.669
451.56	0.666
451.76	0.665
451.97	0.662
452.17	0.662
452.37	0.661
452.58	0.658
452.78	0.658
452.98	0.660
453.19	0.659
453.39	0.660
453.59	0.659
453.79	0.660
454.00	0.661
454.20	0.659
454.40	0.660
454.61	0.662
454.81	0.662
455.01	0.660
455.22	0.661
455.42	0.663
455.62	0.660
455.83	0.660
456.03	0.663
456.23	0.664
456.44	0.665
456.64	0.664
456.84	0.664
457.04	0.664
457.25	0.664
457.45	0.661
457.65	0.660
457.86	0.661
458.06	0.660
458.26	0.655
458.47	0.655
458.67	0.656
458.87	0.656
459.07	0.654
459.28	0.656
459.48	0.659
459.68	0.659
459.89	0.658
460.09	0.657
460.29	0.658
460.49	0.660
460.70	0.658
460.90	0.658
461.10	0.659
461.31	0.658
461.51	0.655
461.71	0.656
461.91	0.658
462.12	0.658
462.32	0.656
462.52	0.657
462.72	0.660
462.93	0.661
463.13	0.659
463.33	0.660
463.53	0.662
463.74	0.662
463.94	0.657
464.14	0.658
464.35	0.659
464.55	0.659
464.75	0.657
464.95	0.655
465.16	0.657
465.36	0.656
465.56	0.654
465.76	0.653
465.97	0.653
466.17	0.654
466.37	0.651
466.57	0.652
466.78	0.653
466.98	0.654
467.18	0.651
467.38	0.650
467.59	0.652
467.79	0.654
467.99	0.653
468.19	0.655
468.39	0.658
468.60	0.659
468.80	0.657
469.00	0.659
469.20	0.659
469.41	0.660
469.61	0.660
469.81	0.659
470.01	0.659
470.22	0.659
470.42	0.657
470.62	0.655
470.82	0.657
471.02	0.655
471.23	0.654
471.43	0.654
471.63	0.657
471.83	0.656
472.04	0.654
472.24	0.653
472.44	0.658
472.64	0.658
472.84	0.656
473.05	0.655
473.25	0.659
473.45	0.657
473.65	0.655
473.85	0.657
474.06	0.658
474.26	0.658
474.46	0.659
474.66	0.655
474.86	0.656
475.07	0.656
475.27	0.654
475.47	0.651
475.67	0.652
475.87	0.654
476.08	0.650
476.28	0.651
476.48	0.652
476.68	0.650
476.88	0.648
477.09	0.650
477.29	0.652
477.49	0.653
477.69	0.652
477.89	0.652
478.09	0.651
478.30	0.654
478.50	0.651
478.70	0.650
478.90	0.651
479.10	0.653
479.31	0.654
479.51	0.652
479.71	0.652
479.91	0.652
480.11	0.651
480.31	0.651
480.52	0.650
480.72	0.650
480.92	0.649
481.12	0.648
481.32	0.645
481.52	0.643
481.72	0.643
481.93	0.647
482.13	0.647
482.33	0.647
482.53	0.645
482.73	0.646
482.93	0.647
483.14	0.647
483.34	0.646
483.54	0.646
483.74	0.646
483.94	0.645
484.14	0.640
484.34	0.640
484.55	0.641
484.75	0.641
484.95	0.639
485.15	0.639
485.35	0.639
485.55	0.638
485.75	0.636
485.96	0.637
486.16	0.639
486.36	0.639
486.56	0.636
486.76	0.637
486.96	0.637
487.16	0.637
487.36	0.635
487.57	0.635
487.77	0.635
487.97	0.636
488.17	0.633
488.37	0.633
488.57	0.633
488.77	0.634
488.97	0.632
489.18	0.632
489.38	0.634
489.58	0.635
489.78	0.634
489.98	0.633
490.18	0.633
490.38	0.635
490.58	0.633
490.78	0.634
490.98	0.636
491.19	0.636
491.39	0.635
491.59	0.635
491.79	0.637
491.99	0.638
492.19	0.637
492.39	0.640
492.59	0.640
492.79	0.642
492.99	0.642
493.20	0.642
493.40	0.642
493.60	0.643
493.80	0.641
494.00	0.639
494.20	0.640
494.40	0.640
494.60	0.637
494.80	0.641
495.00	0.641
495.20	0.639
495.40	0.638
495.61	0.639
495.81	0.639
496.01	0.643
496.21	0.644
496.41	0.643
496.61	0.643
496.81	0.642
497.01	0.637
497.21	0.637
497.41	0.637
497.61	0.637
497.81	0.635
498.01	0.635
498.21	0.633
498.41	0.631
498.61	0.631
498.82	0.633
499.02	0.635
499.22	0.635
499.42	0.635
499.62	0.636
499.82	0.637
500.02	0.638
500.22	0.637
500.42	0.639
500.62	0.640
500.82	0.640
501.02	0.638
501.22	0.639
501.42	0.639
501.62	0.641
501.82	0.640
502.02	0.640
502.22	0.639
502.42	0.641
502.62	0.638
502.82	0.638
503.02	0.639
503.22	0.639
503.42	0.636
503.63	0.636
503.83	0.635
504.03	0.634
504.23	0.632
504.43	0.633
504.63	0.634
504.83	0.634
505.03	0.633
505.23	0.635
505.43	0.637
505.63	0.637
505.83	0.637
506.03	0.638
506.23	0.641
506.43	0.641
506.63	0.640
506.83	0.639
507.03	0.641
507.23	0.641
507.43	0.638
507.63	0.639
507.83	0.639
508.03	0.640
508.23	0.639
508.43	0.638
508.63	0.640
508.83	0.640
509.03	0.641
509.23	0.639
509.43	0.641
509.63	0.642
509.83	0.640
510.03	0.642
510.23	0.644
510.43	0.644
510.63	0.644
510.83	0.644
511.03	0.645
511.23	0.643
511.43	0.642
511.63	0.644
511.83	0.646
512.03	0.646
512.22	0.643
512.42	0.643
512.62	0.644
512.82	0.643
513.02	0.643
513.22	0.643
513.42	0.645
513.62	0.648
513.82	0.646
514.02	0.645
514.22	0.646
514.42	0.647
514.62	0.646
514.82	0.646
515.02	0.649
515.22	0.652
515.42	0.650
515.62	0.652
515.82	0.651
516.02	0.652
516.22	0.652
516.42	0.653
516.62	0.655
516.82	0.656
517.01	0.655
517.21	0.654
517.41	0.658
517.61	0.658
517.81	0.655
518.01	0.654
518.21	0.654
518.41	0.652
518.61	0.651
518.81	0.651
519.01	0.652
519.21	0.652
519.41	0.651
519.61	0.646
519.81	0.648
520.00	0.648
520.20	0.649
520.40	0.652
520.60	0.654
520.80	0.653
521.00	0.653
521.20	0.654
521.40	0.659
521.60	0.659
521.80	0.658
522.00	0.658
522.20	0.662
522.39	0.661
522.59	0.657
522.79	0.659
522.99	0.661
523.19	0.660
523.39	0.658
523.59	0.656
523.79	0.659
523.99	0.661
524.19	0.660
524.38	0.658
524.58	0.660
524.78	0.661
524.98	0.659
525.18	0.662
525.38	0.662
525.58	0.663
525.78	0.660
525.98	0.659
526.18	0.659
526.37	0.658
526.57	0.659
526.77	0.659
526.97	0.660
527.17	0.660
527.37	0.656
527.57	0.659
527.77	0.661
527.96	0.662
528.16	0.661
528.36	0.662
528.56	0.664
528.76	0.661
528.96	0.660
529.16	0.661
529.36	0.664
529.55	0.664
529.75	0.660
529.95	0.660
530.15	0.661
530.35	0.664
530.55	0.661
530.75	0.662
530.94	0.664
531.14	0.665
531.34	0.663
531.54	0.661
531.74	0.664
531.94	0.667
532.13	0.665
532.33	0.667
532.53	0.665
532.73	0.665
532.93	0.662
533.13	0.664
533.33	0.664
533.52	0.665
533.72	0.668
533.92	0.666
534.12	0.663
534.32	0.663
534.52	0.661
534.71	0.663
534.91	0.666
535.11	0.668
535.31	0.666
535.51	0.668
535.71	0.670
535.90	0.667
536.10	0.668
536.30	0.670
536.50	0.672
536.70	0.672
536.89	0.669
537.09	0.669
537.29	0.671
537.49	0.671
537.69	0.669
537.89	0.669
538.08	0.669
538.28	0.666
538.48	0.667
538.68	0.669
538.88	0.670
539.07	0.671
539.27	0.669
539.47	0.668
539.67	0.668
539.87	0.670
540.06	0.667
540.26	0.668
540.46	0.670
540.66	0.667
540.86	0.664
541.05	0.665
541.25	0.666
541.45	0.666
541.65	0.664
541.84	0.666
542.04	0.667
542.24	0.668
542.44	0.667
542.64	0.668
542.83	0.672
543.03	0.672
543.23	0.670
543.43	0.671
543.62	0.673
543.82	0.673
544.02	0.671
544.22	0.671
544.42	0.675
544.61	0.676
544.81	0.673
545.01	0.672
545.21	0.674
545.40	0.674
545.60	0.672
545.80	0.675
546.00	0.676
546.19	0.676
546.39	0.674
546.59	0.671
546.79	0.672
546.98	0.673
547.18	0.672
547.38	0.673
547.58	0.676
547.77	0.676
547.97	0.672
548.17	0.673
548.37	0.674
548.56	0.675
548.76	0.674
548.96	0.676
549.16	0.679
549.35	0.679
549.55	0.676
549.75	0.676
549.95	0.680
550.14	0.681
550.34	0.678
550.54	0.684
550.73	0.687
550.93	0.687
551.13	0.684
551.33	0.682
551.52	0.683
551.72	0.683
551.92	0.680
552.12	0.680
552.31	0.681
552.51	0.681
552.71	0.676
552.90	0.676
553.10	0.676
553.30	0.676
553.50	0.675
553.69	0.677
553.89	0.678
554.09	0.678
554.28	0.675
554.48	0.677
554.68	0.679
554.87	0.680
555.07	0.677
555.27	0.677
555.47	0.679
555.66	0.680
555.86	0.678
556.06	0.681
556.25	0.682
556.45	0.690
556.65	0.688
556.84	0.691
557.04	0.694
557.24	0.696
557.43	0.696
557.63	0.699
557.83	0.701
558.02	0.701
558.22	0.705
558.42	0.705
558.61	0.698
558.81	0.698
559.01	0.694
559.21	0.693
559.40	0.694
559.60	0.695
559.80	0.691
559.99	0.691
560.19	0.694
560.39	0.688
560.58	0.686
560.78	0.686
560.97	0.690
561.17	0.688
561.37	0.686
561.56	0.687
561.76	0.689
561.96	0.689
562.15	0.686
562.35	0.689
562.55	0.690
562.74	0.689
562.94	0.687
563.14	0.686
563.33	0.688
563.53	0.687
563.73	0.684
563.92	0.686
564.12	0.688
564.31	0.690
564.51	0.689
564.71	0.690
564.90	0.693
565.10	0.694
565.30	0.696
565.49	0.697
565.69	0.700
565.89	0.700
566.08	0.697
566.28	0.698
566.47	0.700
566.67	0.698
566.87	0.695
567.06	0.697
567.26	0.704
567.46	0.699
567.65	0.697
567.85	0.699
568.04	0.702
568.24	0.701
568.44	0.699
568.63	0.697
568.83	0.698
569.02	0.697
569.22	0.692
569.42	0.687
569.61	0.690
569.81	0.689
570.00	0.686
570.20	0.688
570.40	0.689
570.59	0.689
570.79	0.686
570.98	0.684
571.18	0.686
571.38	0.685
571.57	0.683
571.77	0.681
571.96	0.685
572.16	0.682
572.35	0.676
572.55	0.676
572.75	0.675
572.94	0.675
573.14	0.674
573.33	0.674
573.53	0.675
573.73	0.674
573.92	0.671
574.12	0.669
574.31	0.672
574.51	0.673
574.70	0.670
574.90	0.672
575.09	0.674
575.29	0.674
575.49	0.671
575.68	0.672
575.88	0.674
576.07	0.675
576.27	0.673
576.46	0.671
576.66	0.671
576.86	0.670
577.05	0.667
577.25	0.665
577.44	0.667
577.64	0.667
577.83	0.665
578.03	0.666
578.22	0.666
578.42	0.664
578.61	0.663
578.81	0.664
579.00	0.665
579.20	0.665
579.40	0.664
579.59	0.662
579.79	0.663
579.98	0.663
580.18	0.662
580.37	0.662
580.57	0.665
580.76	0.669
580.96	0.667
581.15	0.668
581.35	0.670
581.54	0.669
581.74	0.668
581.93	0.670
582.13	0.672
582.32	0.669
582.52	0.667
582.71	0.666
582.91	0.662
583.10	0.662
583.30	0.661
583.49	0.660
583.69	0.664
583.88	0.666
584.08	0.664
584.27	0.666
584.47	0.669
584.66	0.670
584.86	0.669
585.05	0.671
585.25	0.674
585.44	0.674
585.64	0.672
585.83	0.669
586.03	0.669
586.22	0.668
586.42	0.664
586.61	0.665
586.81	0.668
587.00	0.668
587.20	0.665
587.39	0.666
587.59	0.668
587.78	0.669
587.98	0.669
588.17	0.670
588.37	0.673
588.56	0.675
588.76	0.671
588.95	0.671
589.15	0.675
589.34	0.678
589.54	0.676
589.73	0.676
589.92	0.680
590.12	0.680
590.31	0.677
590.51	0.682
590.70	0.684
590.90	0.684
591.09	0.682
591.29	0.681
591.48	0.681
591.68	0.682
591.87	0.680
592.06	0.679
592.26	0.682
592.45	0.682
592.65	0.675
592.84	0.675
593.04	0.677
593.23	0.680
593.43	0.677
593.62	0.676
593.81	0.677
594.01	0.677
594.20	0.674
594.40	0.673
594.59	0.676
594.79	0.676
594.98	0.674
595.17	0.673
595.37	0.675
595.56	0.677
595.76	0.676
595.95	0.677
596.14	0.680
596.34	0.682
596.53	0.680
596.73	0.681
596.92	0.683
597.12	0.685
597.31	0.685
597.50	0.684
597.70	0.686
597.89	0.685
598.09	0.681
598.28	0.683
598.47	0.685
598.67	0.683
598.86	0.680
599.06	0.682
599.25	0.683
599.44	0.681
599.64	0.678
599.83	0.676
600.03	0.679
600.22	0.680
600.41	0.679
600.61	0.677
600.80	0.681
601.00	0.681
601.19	0.676
601.38	0.674
601.58	0.677
601.77	0.678
601.96	0.681
602.16	0.681
602.35	0.690
602.55	0.688
602.74	0.688
602.93	0.689
603.13	0.694
603.32	0.697
603.51	0.695
603.71	0.698
603.90	0.700
604.09	0.700
604.29	0.697
604.48	0.691
604.68	0.693
604.87	0.692
605.06	0.688
605.26	0.685
605.45	0.685
605.64	0.685
605.84	0.680
606.03	0.679
606.22	0.678
606.42	0.677
606.61	0.674
606.80	0.673
607.00	0.675
607.19	0.676
607.38	0.674
607.58	0.675
607.77	0.678
607.96	0.678
608.16	0.676
608.35	0.681
608.54	0.685
608.74	0.688
608.93	0.693
609.12	0.696
609.32	0.698
609.51	0.702
609.70	0.701
609.90	0.703
610.09	0.708
610.28	0.714
610.48	0.707
610.67	0.709
610.86	0.710
611.06	0.704
611.25	0.702
611.44	0.703
611.64	0.703
611.83	0.705
612.02	0.701
612.21	0.699
612.41	0.698
612.60	0.696
612.79	0.692
612.99	0.691
613.18	0.694
613.37	0.691
613.57	0.688
613.76	0.690
613.95	0.688
614.14	0.688
614.34	0.685
614.53	0.686
614.72	0.690
614.92	0.691
615.11	0.687
615.30	0.684
615.49	0.686
615.69	0.690
615.88	0.686
616.07	0.687
616.26	0.689
616.46	0.691
616.65	0.687
616.84	0.686
617.04	0.687
617.23	0.691
617.42	0.692
617.61	0.695
617.81	0.696
618.00	0.698
618.19	0.696
618.38	0.701
618.58	0.704
618.77	0.706
618.96	0.704
619.15	0.706
619.35	0.708
619.54	0.709
619.73	0.705
619.92	0.707
620.12	0.711
620.31	0.711
620.50	0.705
620.69	0.704
620.89	0.707
621.08	0.708
621.27	0.708
621.46	0.707
621.66	0.711
621.85	0.711
622.04	0.706
622.23	0.707
622.43	0.709
622.62	0.709
622.81	0.708
623.00	0.709
623.19	0.713
623.39	0.712
623.58	0.708
623.77	0.706
623.96	0.709
624.16	0.710
624.35	0.705
624.54	0.707
624.73	0.711
624.92	0.708
625.12	0.705
625.31	0.705
625.50	0.709
625.69	0.710
625.88	0.707
626.08	0.707
626.27	0.708
626.46	0.708
626.65	0.705
626.84	0.705
627.04	0.711
627.23	0.711
627.42	0.707
627.61	0.708
627.80	0.712
628.00	0.713
628.19	0.710
628.38	0.715
628.57	0.718
628.76	0.717
628.96	0.713
629.15	0.714
629.34	0.717
629.53	0.717
629.72	0.711
629.91	0.711
630.11	0.717
630.30	0.717
630.49	0.719
630.68	0.720
630.87	0.724
631.06	0.727
631.26	0.721
631.45	0.724
631.64	0.733
631.83	0.735
632.02	0.732
632.21	0.730
632.41	0.738
632.60	0.731
632.79	0.729
632.98	0.730
633.17	0.732
633.36	0.734
633.55	0.729
633.75	0.725
633.94	0.726
634.13	0.727
634.32	0.724
634.51	0.717
634.70	0.721
634.89	0.721
635.09	0.716
635.28	0.716
635.47	0.717
635.66	0.720
635.85	0.717
636.04	0.719
636.23	0.723
636.43	0.725
636.62	0.724
636.81	0.723
637.00	0.725
637.19	0.730
637.38	0.725
637.57	0.725
637.76	0.726
637.95	0.727
638.15	0.722
638.34	0.718
638.53	0.722
638.72	0.723
638.91	0.719
639.10	0.716
639.29	0.716
639.48	0.718
639.67	0.718
639.87	0.717
640.06	0.722
640.25	0.722
640.44	0.723
640.63	0.723
640.82	0.727
641.01	0.727
641.20	0.727
641.39	0.730
641.58	0.731
641.78	0.730
641.97	0.725
642.16	0.740
642.35	0.742
642.54	0.741
642.73	0.735
642.92	0.733
643.11	0.737
643.30	0.737
643.49	0.731
643.68	0.734
643.87	0.736
644.06	0.737
644.25	0.715
644.45	0.719
644.64	0.720
644.83	0.721
645.02	0.717
645.21	0.718
645.40	0.720
645.59	0.720
645.78	0.713
645.97	0.715
646.16	0.716
646.35	0.716
646.54	0.712
646.73	0.713
646.92	0.715
647.11	0.714
647.30	0.709
647.49	0.711
647.68	0.711
647.88	0.710
648.07	0.702
648.26	0.706
648.45	0.708
648.64	0.705
648.83	0.702
649.02	0.704
649.21	0.716
649.40	0.715
649.59	0.709
649.78	0.710
649.97	0.725
650.16	0.724
650.35	0.718
650.54	0.720
650.73	0.729
650.92	0.726
651.11	0.719
651.30	0.717
651.49	0.721
651.68	0.721
651.87	0.718
652.06	0.707
652.25	0.711
652.44	0.713
652.63	0.709
652.82	0.708
653.01	0.708
653.20	0.705
653.39	0.693
653.58	0.691
653.77	0.690
653.96	0.685
654.15	0.676
654.34	0.674
654.53	0.669
654.72	0.664
654.91	0.654
655.10	0.650
655.29	0.649
655.48	0.647
655.67	0.641
655.86	0.638
656.05	0.638
656.24	0.638
656.43	0.632
656.62	0.632
656.81	0.633
657.00	0.631
657.19	0.629
657.38	0.629
657.57	0.629
657.76	0.631
657.95	0.630
658.14	0.633
658.33	0.637
658.51	0.642
658.70	0.643
658.89	0.644
659.08	0.653
659.27	0.660
659.46	0.661
659.65	0.667
659.84	0.671
660.03	0.674
660.22	0.674
660.41	0.679
660.60	0.679
660.79	0.680
660.98	0.686
661.17	0.685
661.36	0.684
661.55	0.685
661.74	0.683
661.92	0.685
662.11	0.688
662.30	0.686
662.49	0.678
662.68	0.677
662.87	0.681
663.06	0.675
663.25	0.675
663.44	0.676
663.63	0.677
663.82	0.675
664.01	0.669
664.20	0.667
664.38	0.669
664.57	0.669
664.76	0.668
664.95	0.669
665.14	0.674
665.33	0.668
665.52	0.675
665.71	0.680
665.90	0.680
666.09	0.681
666.28	0.679
666.46	0.679
666.65	0.680
666.84	0.679
667.03	0.672
667.22	0.671
667.41	0.675
667.60	0.664
667.79	0.657
667.98	0.659
668.16	0.661
668.35	0.661
668.54	0.656
668.73	0.656
668.92	0.658
669.11	0.657
669.30	0.651
669.49	0.646
669.67	0.648
669.86	0.650
670.05	0.647
670.24	0.645
670.43	0.643
670.62	0.642
670.81	0.636
671.00	0.637
671.18	0.637
671.37	0.637
671.56	0.634
671.75	0.632
671.94	0.629
672.13	0.627
672.32	0.622
672.50	0.621
672.69	0.622
672.88	0.623
673.07	0.618
673.26	0.620
673.45	0.622
673.63	0.622
673.82	0.618
674.01	0.621
674.20	0.620
674.39	0.618
674.58	0.618
674.76	0.618
674.95	0.617
675.14	0.617
675.33	0.612
675.52	0.610
675.71	0.610
675.89	0.609
676.08	0.605
676.27	0.605
676.46	0.606
676.65	0.605
676.84	0.604
677.02	0.606
677.21	0.609
677.40	0.608
677.59	0.605
677.78	0.606
677.96	0.609
678.15	0.609
678.34	0.606
678.53	0.607
678.72	0.607
678.90	0.604
679.09	0.600
679.28	0.597
679.47	0.597
679.66	0.597
679.84	0.593
680.03	0.590
680.22	0.589
680.41	0.591
680.60	0.587
680.78	0.586
680.97	0.589
681.16	0.589
681.35	0.587
681.53	0.586
681.72	0.587
681.91	0.589
682.10	0.587
682.29	0.590
682.47	0.588
682.66	0.588
682.85	0.586
683.04	0.585
683.22	0.584
683.41	0.586
683.60	0.585
683.79	0.586
683.97	0.585
684.16	0.584
684.35	0.580
684.54	0.581
684.72	0.581
684.91	0.582
685.10	0.579
685.29	0.581
685.47	0.578
685.66	0.577
685.85	0.574
686.04	0.573
686.22	0.576
686.41	0.578
686.60	0.575
686.79	0.579
686.97	0.580
687.16	0.581
687.35	0.579
687.54	0.582
687.72	0.586
687.91	0.586
688.10	0.588
688.29	0.587
688.47	0.585
688.66	0.584
688.85	0.580
689.03	0.577
689.22	0.582
689.41	0.583
689.60	0.577
689.78	0.575
689.97	0.576
690.16	0.573
690.34	0.570
690.53	0.569
690.72	0.570
690.91	0.568
691.09	0.566
691.28	0.560
691.47	0.558
691.65	0.557
691.84	0.554
692.03	0.553
692.21	0.551
692.40	0.550
692.59	0.548
692.77	0.547
692.96	0.548
693.15	0.549
693.34	0.547
693.52	0.547
693.71	0.547
693.90	0.549
694.08	0.549
694.27	0.550
694.46	0.559
694.64	0.560
694.83	0.559
695.02	0.557
695.20	0.557
695.39	0.558
695.58	0.557
695.76	0.558
695.95	0.558
696.14	0.557
696.32	0.555
696.51	0.545
696.70	0.546
696.88	0.547
697.07	0.545
697.26	0.547
697.44	0.548
697.63	0.548
697.81	0.545
698.00	0.544
698.19	0.544
698.37	0.545
698.56	0.544
698.75	0.544
698.93	0.544
699.12	0.543
699.31	0.542
699.49	0.541
699.68	0.542
699.87	0.544
700.05	0.544
700.24	0.543
700.42	0.544
700.61	0.544
700.80	0.542
700.98	0.542
701.17	0.543
701.36	0.542
701.54	0.541
701.73	0.542
701.91	0.540
702.10	0.540
702.29	0.538
702.47	0.537
702.66	0.539
702.84	0.540
703.03	0.538
703.22	0.540
703.40	0.541
703.59	0.542
703.77	0.541
703.96	0.540
704.15	0.541
704.33	0.541
704.52	0.541
704.70	0.540
704.89	0.540
705.08	0.539
705.26	0.534
705.45	0.535
705.63	0.534
705.82	0.532
706.00	0.530
706.19	0.530
706.38	0.530
706.56	0.529
706.75	0.527
706.93	0.525
707.12	0.527
707.30	0.527
707.49	0.524
707.68	0.522
707.86	0.521
708.05	0.521
708.23	0.518
708.42	0.519
708.60	0.522
708.79	0.522
708.98	0.520
709.16	0.519
709.35	0.522
709.53	0.526
709.72	0.525
709.90	0.528
710.09	0.530
710.27	0.532
710.46	0.535
710.64	0.534
710.83	0.536
711.02	0.537
711.20	0.536
711.39	0.535
711.57	0.533
711.76	0.533
711.94	0.531
712.13	0.532
712.31	0.532
712.50	0.528
712.68	0.525
712.87	0.526
713.05	0.527
713.24	0.527
713.42	0.526
713.61	0.526
713.79	0.526
713.98	0.527
714.16	0.527
714.35	0.527
714.54	0.528
714.72	0.527
714.91	0.524
715.09	0.530
715.28	0.533
715.46	0.534
715.65	0.531
715.83	0.532
716.02	0.535
716.20	0.532
716.39	0.530
716.57	0.532
716.76	0.535
716.94	0.535
717.12	0.526
717.31	0.527
717.49	0.530
717.68	0.532
717.86	0.531
718.05	0.533
718.23	0.535
718.42	0.537
718.60	0.538
718.79	0.547
718.97	0.551
719.16	0.552
719.34	0.550
719.53	0.550
719.71	0.550
719.90	0.553
720.08	0.549
720.27	0.550
720.45	0.550
720.63	0.549
720.82	0.542
721.00	0.545
721.19	0.548
721.37	0.547
721.56	0.548
721.74	0.552
721.93	0.560
722.11	0.569
722.30	0.568
722.48	0.573
722.66	0.574
722.85	0.573
723.03	0.573
723.22	0.571
723.40	0.574
723.59	0.574
723.77	0.577
723.95	0.571
724.14	0.572
724.32	0.573
724.51	0.571
724.69	0.572
724.88	0.573
725.06	0.571
725.24	0.573
725.43	0.575
725.61	0.577
725.80	0.570
725.98	0.567
726.16	0.563
726.35	0.570
726.53	0.569
726.72	0.567
726.90	0.579
727.09	0.580
727.27	0.585
727.45	0.580
727.64	0.591
727.82	0.600
728.01	0.605
728.19	0.602
728.37	0.607
728.56	0.612
728.74	0.620
728.92	0.607
729.11	0.610
729.29	0.610
729.48	0.612
729.66	0.600
729.84	0.600
730.03	0.604
730.21	0.607
730.40	0.596
730.58	0.598
730.76	0.597
730.95	0.600
731.13	0.600
731.31	0.613
731.50	0.623
731.68	0.628
731.86	0.623
732.05	0.638
732.23	0.641
732.42	0.646
732.60	0.649
732.78	0.656
732.97	0.674
733.15	0.681
733.33	0.671
733.52	0.676
733.70	0.689
733.88	0.700
734.07	0.684
734.25	0.712
734.43	0.724
734.62	0.728
734.80	0.721
734.98	0.711
735.17	0.719
735.35	0.725
735.53	0.716
735.72	0.719
735.90	0.743
736.08	0.763
736.27	0.736
736.45	0.745
736.63	0.759
736.82	0.772
737.00	0.774
737.18	0.788
737.37	0.823
737.55	0.848
737.73	0.840
737.92	0.842
738.10	0.841
738.28	0.867
738.46	0.851
738.65	0.866
738.83	0.892
739.01	0.952
739.20	0.940
739.38	0.923
739.56	0.915
739.75	0.920
739.93	0.880
740.11	0.910
740.29	0.913
740.48	0.923
740.66	0.896
740.84	0.886
741.03	0.850
741.21	0.861
741.39	0.837
741.57	0.853
741.76	0.875
741.94	0.884
742.12	0.845
742.31	0.852
742.49	0.877
742.67	0.903
742.85	0.921
743.04	0.924
743.22	0.938
743.40	1.002
743.58	0.976
743.77	0.998
743.95	1.046
744.13	1.110
744.31	1.079
744.50	1.067
744.68	1.070
744.86	1.034
745.04	1.048
745.23	1.134
745.41	1.111
745.59	1.117
745.77	1.071
745.96	1.052
746.14	1.063
746.32	1.061
746.50	1.051
746.69	1.030
746.87	1.053
747.05	1.035
747.23	0.941
747.42	0.926
747.60	0.961
747.78	0.959
747.96	0.995
748.14	0.942
748.33	0.974
748.51	0.967
748.69	0.957
748.87	0.992
749.06	0.990
749.24	0.990
749.42	0.975
749.60	0.953
749.78	0.974
749.97	0.921
750.15	0.915
750.33	0.920
750.51	0.949
750.69	0.953
750.88	0.949
751.06	0.958
751.24	0.989
751.42	0.972
751.60	0.960
751.79	1.039
751.97	1.097
752.15	1.096
752.33	1.049
752.51	1.137
752.69	1.163
752.88	1.119
753.06	1.183
753.24	1.153
753.42	1.210
753.60	1.467
753.78	1.231
753.97	1.252
754.15	1.272
754.33	1.319
754.51	1.138
754.69	1.115
754.87	1.154
755.06	1.059
755.24	1.055
755.42	1.059
755.60	0.951
755.78	0.962
755.96	0.899
756.15	0.902
756.33	0.906
756.51	0.924
756.69	0.908
756.87	0.873
757.05	0.897
757.23	0.876
757.42	0.839
757.60	0.834
757.78	0.822
757.96	0.820
758.14	0.799
758.32	0.782
758.50	0.799
758.69	0.799
758.87	0.789
759.05	0.794
759.23	0.810
759.41	0.809
759.59	0.802
759.77	0.829
759.95	0.861
760.13	0.915
760.32	0.916
760.50	0.912
760.68	0.939
760.86	0.942
761.04	0.906
761.22	0.910
761.40	0.971
761.58	0.970
761.76	0.936
761.95	0.915
762.13	0.867
762.31	0.865
762.49	0.830
762.67	0.848
762.85	0.862
763.03	0.859
763.21	0.837
763.39	0.815
763.57	0.818
763.75	0.811
763.94	0.791
764.12	0.795
764.30	0.821
764.48	0.822
764.66	0.781
764.84	0.780
765.02	0.819
765.20	0.826
765.38	0.802
765.56	0.808
765.74	0.856
765.92	0.859
766.10	0.865
766.28	0.859
766.46	0.895
766.65	0.896
766.83	0.884
767.01	0.868
767.19	0.879
767.37	0.884
767.55	0.868
767.73	0.841
767.91	0.844
768.09	0.831
768.27	0.818
768.45	0.803
768.63	0.810
768.81	0.810
768.99	0.780
769.17	0.804
769.35	0.815
769.53	0.815
769.71	0.796
769.89	0.808
770.07	0.817
770.25	0.797
770.43	0.776
770.61	0.805
770.79	0.812
770.97	0.823
771.15	0.790
771.33	0.796
771.51	0.799
771.69	0.808
771.87	0.813
772.05	0.820
772.24	0.834
772.42	0.842
772.60	0.813
772.78	0.881
772.96	0.915
773.14	0.911
773.32	0.887
773.49	0.894
773.67	0.892
773.85	0.871
774.03	0.853
774.21	0.885
774.39	0.899
774.57	0.929
774.75	0.844
774.93	0.840
775.11	0.866
775.29	0.869
775.47	0.870
775.65	0.883
775.83	0.904
776.01	0.932
776.19	0.876
776.37	0.879
776.55	0.877
776.73	0.872
776.91	0.860
777.09	0.840
777.27	0.843
777.45	0.831
777.63	0.808
777.81	0.806
777.99	0.791
778.17	0.792
778.35	0.769
778.53	0.761
778.71	0.771
778.89	0.761
779.07	0.749
779.24	0.754
779.42	0.754
779.60	0.771
779.78	0.764
779.96	0.771
780.14	0.782
780.32	0.803
780.50	0.781
780.68	0.775
780.86	0.765
781.04	0.781
781.22	0.783
781.40	0.796
781.58	0.789
781.75	0.779
781.93	0.760
782.11	0.758
782.29	0.743
782.47	0.741
782.65	0.730
782.83	0.760
783.01	0.757
783.19	0.750
783.37	0.733
783.55	0.735
783.72	0.758
783.90	0.768
784.08	0.759
784.26	0.773
784.44	0.797
784.62	0.799
784.80	0.761
784.98	0.765
785.16	0.772
785.33	0.788
785.51	0.772
785.69	0.754
785.87	0.755
786.05	0.766
786.23	0.758
786.41	0.755
786.59	0.764
786.77	0.763
786.94	0.749
787.12	0.753
787.30	0.756
787.48	0.754
787.66	0.741
787.84	0.741
788.02	0.732
788.19	0.729
788.37	0.712
788.55	0.712
788.73	0.714
788.91	0.709
789.09	0.690
789.27	0.679
789.44	0.691
789.62	0.700
789.80	0.708
789.98	0.735
790.16	0.725
790.34	0.722
790.51	0.709
790.69	0.729
790.87	0.736
791.05	0.733
791.23	0.725
791.41	0.724
791.58	0.729
791.76	0.706
791.94	0.673
792.12	0.682
792.30	0.686
792.48	0.683
792.65	0.675
792.83	0.682
793.01	0.692
793.19	0.689
793.37	0.673
793.54	0.669
793.72	0.682
793.90	0.682
794.08	0.669
794.26	0.671
794.43	0.680
794.61	0.663
794.79	0.650
794.97	0.647
795.15	0.654
795.32	0.658
795.50	0.647
795.68	0.642
795.86	0.647
796.04	0.647
796.21	0.641
796.39	0.638
796.57	0.653
796.75	0.662
796.92	0.666
797.10	0.669
797.28	0.674
797.46	0.679
797.64	0.678
797.81	0.686
797.99	0.692
798.17	0.695
798.35	0.690
798.52	0.694
798.70	0.692
798.88	0.699
799.06	0.698
799.23	0.700
799.41	0.710
799.59	0.704
799.77	0.690
799.94	0.699
800.12	0.709
800.30	0.727
800.48	0.725
800.65	0.722
800.83	0.710
801.01	0.704
801.19	0.703
801.36	0.699
801.54	0.704
801.72	0.715
801.90	0.699
802.07	0.693
802.25	0.679
802.43	0.663
802.60	0.659
802.78	0.669
802.96	0.673
803.14	0.666
803.31	0.662
803.49	0.661
803.67	0.658
803.84	0.661
804.02	0.652
804.20	0.655
804.38	0.661
804.55	0.659
804.73	0.643
804.91	0.644
805.08	0.655
805.26	0.650
805.44	0.720
805.61	0.724
805.79	0.727
805.97	0.728
806.15	0.718
806.32	0.712
806.50	0.719
806.68	0.718
806.85	0.708
807.03	0.700
807.21	0.718
807.38	0.646
807.56	0.634
807.74	0.645
807.91	0.651
808.09	0.651
808.27	0.671
808.44	0.700
808.62	0.712
808.80	0.714
808.97	0.708
809.15	0.703
809.33	0.721
809.50	0.729
809.68	0.709
809.86	0.720
810.03	0.756
810.21	0.734
810.39	0.713
810.56	0.718
810.74	0.746
810.91	0.824
811.09	0.812
811.27	0.836
811.44	0.843
811.62	0.848
811.80	0.828
811.97	0.798
812.15	0.797
812.33	0.792
812.50	0.776
812.68	0.764
812.85	0.704
813.03	0.707
813.21	0.671
813.38	0.666
813.56	0.671
813.74	0.683
813.91	0.687
814.09	0.721
814.26	0.714
814.44	0.715
814.62	0.702
814.79	0.708
814.97	0.713
815.14	0.719
815.32	0.720
815.50	0.738
815.67	0.739
815.85	0.731
816.02	0.716
816.20	0.724
816.38	0.741
816.55	0.747
816.73	0.746
816.90	0.757
817.08	0.788
817.26	0.797
817.43	0.773
817.61	0.802
817.78	0.824
817.96	0.804
818.13	0.794
818.31	0.796
818.49	0.810
818.66	0.798
818.84	0.782
819.01	0.763
819.19	0.769
819.36	0.769
819.54	0.737
819.71	0.785
819.89	0.798
820.07	0.810
820.24	0.804
820.42	0.807
820.59	0.831
820.77	0.859
820.94	0.842
821.12	0.864
821.29	0.887
821.47	0.888
821.64	0.815
821.82	0.835
822.00	0.836
822.17	0.834
822.35	0.827
822.52	0.831
822.70	0.820
822.87	0.834
823.05	0.810
823.22	0.824
823.40	0.860
823.57	0.887
823.75	0.860
823.92	0.892
824.10	0.913
824.27	0.962
824.45	0.948
824.62	1.023
824.80	1.046
824.97	1.066
825.15	1.051
825.32	1.063
825.50	1.070
825.67	1.089
825.85	1.060
826.02	1.090
826.20	1.124
826.37	1.321
826.55	1.202
826.72	1.574
826.90	1.850
827.07	2.058
827.25	1.837
827.42	-0.000
827.60	-0.000
827.77	-0.000
827.95	-0.000
828.12	-0.000
828.30	-0.000
828.47	-0.000
828.65	1.843
828.82	2.140
829.00	-0.000
829.17	-0.000
829.34	-0.000
829.52	-0.000
829.69	-0.000
829.87	-0.000
830.04	-0.000
830.22	-0.000
830.39	-0.000
830.57	-0.000
830.74	-0.000
830.92	-0.000
831.09	-0.000
831.26	-0.000
831.44	-0.000
831.61	-0.000
831.79	-0.000
831.96	-0.000
832.14	-0.000
832.31	-0.000
832.49	-0.000
832.66	-0.000
832.83	-0.000
833.01	-0.000
833.18	-0.000
833.36	-0.000
833.53	-0.000
833.70	-0.000
833.88	-0.000
834.05	-0.000
834.23	-0.000
834.40	-0.000
834.58	-0.000
834.75	-0.000
834.92	-0.000
835.10	-0.000
835.27	-0.000
835.45	-0.000
835.62	-0.000
835.79	-0.000
835.97	-0.000
836.14	-0.000
836.32	-0.000
836.49	-0.000
836.66	-0.000
836.84	-0.000
837.01	-0.000
837.18	-0.000
837.36	-0.000
837.53	-0.000
837.71	-0.000
837.88	-0.000
838.05	-0.000
838.23	-0.000
838.40	-0.000
838.58	-0.000
838.75	-0.000
838.92	-0.000
839.10	-0.000
839.27	-0.000
839.44	-0.000
839.62	-0.000
839.79	-0.000
839.96	-0.000
840.14	-0.000
840.31	-0.000
840.48	-0.000
840.66	-0.000
840.83	-0.000
841.01	-0.000
841.18	-0.000
841.35	-0.000
841.53	-0.000
841.70	-0.000
841.87	-0.000
842.05	-0.000
842.22	-0.000
842.39	-0.000
842.57	-0.000
842.74	-0.000
842.91	-0.000
843.09	-0.000
843.26	-0.000
843.43	-0.000
843.60	-0.000
843.78	-0.000
843.95	-0.000
844.12	-0.000
844.30	-0.000
844.47	-0.000
844.64	-0.000
844.82	-0.000
844.99	-0.000
845.16	-0.000
845.34	-0.000
845.51	-0.000
845.68	-0.000
845.85	-0.000
846.03	-0.000
846.20	-0.000
846.37	-0.000
846.55	-0.000
846.72	-0.000
846.89	-0.000
847.06	-0.000
847.24	-0.000
847.41	-0.000
847.58	-0.000
847.76	-0.000
847.93	-0.000
848.10	-0.000
848.27	-0.000
848.45	-0.000
848.62	-0.000
848.79	-0.000
848.97	-0.000
849.14	-0.000
849.31	-0.000
849.48	-0.000
849.66	-0.000
849.83	-0.000
850.00	-0.000
850.17	-0.000
850.35	-0.000
850.52	-0.000
850.69	-0.000
850.86	-0.000
851.04	-0.000
851.21	-0.000
851.38	-0.000
851.55	-0.000
851.72	-0.000
851.90	-0.000
852.07	-0.000
852.24	-0.000
852.41	-0.000
852.59	-0.000
852.76	-0.000
852.93	-0.000
853.10	-0.000
853.28	-0.000
853.45	-0.000
853.62	-0.000
853.79	-0.000
853.96	-0.000
854.14	-0.000
854.31	-0.000
854.48	-0.000
854.65	-0.000
854.82	-0.000
855.00	-0.000
855.17	-0.000
855.34	-0.000
855.51	-0.000
855.68	-0.000
855.86	-0.000
856.03	-0.000
856.20	-0.000
856.37	-0.000
856.54	-0.000
856.72	-0.000
856.89	-0.000
857.06	-0.000
857.23	-0.000
857.40	-0.000
857.57	-0.000
857.75	-0.000
857.92	-0.000
858.09	-0.000
858.26	-0.000
858.43	-0.000
858.60	-0.000
858.78	-0.000
858.95	-0.000
859.12	-0.000
859.29	-0.000
859.46	-0.000
859.63	-0.000
859.81	-0.000
859.98	-0.000
860.15	-0.000
860.32	-0.000
860.49	-0.000
860.66	-0.000
860.83	-0.000
861.01	-0.000
861.18	-0.000
861.35	-0.000
861.52	-0.000
861.69	-0.000
861.86	-0.000
862.03	-0.000
862.21	-0.000
862.38	-0.000
862.55	-0.000
862.72	-0.000
862.89	-0.000
863.06	-0.000
863.23	-0.000
863.40	-0.000
863.58	-0.000
863.75	-0.000
863.92	-0.000
864.09	-0.000
864.26	-0.000
864.43	-0.000
864.60	-0.000
864.77	-0.000
864.94	-0.000
865.11	-0.000
865.29	-0.000
865.46	-0.000
865.63	-0.000
865.80	-0.000
865.97	-0.000
866.14	-0.000
866.31	-0.000
866.48	-0.000
866.65	-0.000
866.82	-0.000
866.99	-0.000
867.16	-0.000
867.34	-0.000
867.51	-0.000
867.68	-0.000
867.85	-0.000
868.02	-0.000
868.19	-0.000
868.36	-0.000
868.53	-0.000
868.70	-0.000
868.87	-0.000
869.04	-0.000
869.21	-0.000
869.38	-0.000
869.55	-0.000
869.72	-0.000
869.89	-0.000
870.06	-0.000
870.24	-0.000
870.41	-0.000
870.58	-0.000
870.75	-0.000
870.92	-0.000
871.09	-0.000
871.26	-0.000
871.43	-0.000
871.60	-0.000
871.77	-0.000
871.94	-0.000
872.11	-0.000
872.28	-0.000
872.45	-0.000
872.62	-0.000
872.79	-0.000
872.96	-0.000
873.13	-0.000
873.30	-0.000
873.47	-0.000
873.64	-0.000
873.81	-0.000
873.98	-0.000
874.15	-0.000
874.32	-0.000
874.49	-0.000
874.66	-0.000
874.83	-0.000
875.00	-0.000
875.17	-0.000
875.34	-0.000
875.51	-0.000
875.68	-0.000
875.85	-0.000
876.02	-0.000
876.19	-0.000
876.36	-0.000
876.53	-0.000
876.70	-0.000
876.87	-0.000
877.04	-0.000
877.21	-0.000
877.38	-0.000
877.55	-0.000
877.72	-0.000
877.89	-0.000
878.06	-0.000
878.23	-0.000
878.39	-0.000
878.56	-0.000
878.73	-0.000
878.90	-0.000
879.07	-0.000
879.24	-0.000
879.41	-0.000
879.58	-0.000
879.75	-0.000
879.92	-0.000
880.09	-0.000
880.26	-0.000
880.43	-0.000
880.60	-0.000
880.77	-0.000
880.94	-0.000
881.11	-0.000
881.27	-0.000
881.44	-0.000
881.61	-0.000
881.78	-0.000
881.95	-0.000
882.12	-0.000
882.29	-0.000
882.46	-0.000
882.63	-0.000
882.80	-0.000
882.97	-0.000
883.14	-0.000
883.30	-0.000
883.47	-0.000
883.64	-0.000
883.81	-0.000
883.98	-0.000
884.15	-0.000
884.32	-0.000
884.49	-0.000
884.66	-0.000
884.82	-0.000
884.99	-0.000
885.16	-0.000
885.33	-0.000
885.50	-0.000
885.67	-0.000
885.84	-0.000
886.01	-0.000
886.17	-0.000
886.34	-0.000
886.51	-0.000
886.68	-0.000
886.85	-0.000
887.02	-0.000
887.19	-0.000
887.36	-0.000
887.52	-0.000
887.69	-0.000
887.86	-0.000
888.03	-0.000
888.20	-0.000
888.37	-0.000
888.54	-0.000
888.70	-0.000
888.87	-0.000
889.04	-0.000
889.21	-0.000
889.38	-0.000
889.55	-0.000
889.71	-0.000
889.88	-0.000
890.05	-0.000
890.22	-0.000
890.39	-0.000
>>>>>End Processed Spectral Data<<<<<
