SpectraSuite Data File
++++++++++++++++++++++++++++++++++++
Date: Fri Jun 19 15:10:32 CEST 2015
User: introlabs
Dark Spectrum Present: Yes
Reference Spectrum Present: Yes
Number of Sampled Component Spectra: 1
Spectrometers: USB4H08886
Integration Time (usec): 745692 (USB4H08886)
Spectra Averaged: 5 (USB4H08886)
Boxcar Smoothing: 5 (USB4H08886)
Correct for Electrical Dark: Yes (USB4H08886)
Strobe/Lamp Enabled: No (USB4H08886)
Correct for Detector Non-linearity: Yes (USB4H08886)
Correct for Stray Light: Yes (USB4H08886)
Number of Pixels in Processed Spectrum: 3648
>>>>>Begin Processed Spectral Data<<<<<
178.14	-0.000
178.36	-0.000
178.57	-0.000
178.79	-0.000
179.01	-0.000
179.22	-0.000
179.44	-0.000
179.65	-0.000
179.87	-0.000
180.08	-0.000
180.30	-0.000
180.52	-0.000
180.73	-0.000
180.95	-0.000
181.16	-0.000
181.38	-0.000
181.59	-0.000
181.81	-0.000
182.03	-0.000
182.24	-0.000
182.46	-0.000
182.67	-0.000
182.89	-0.000
183.10	-0.000
183.32	-0.000
183.54	-0.000
183.75	-0.000
183.97	-0.000
184.18	-0.000
184.40	-0.000
184.61	-0.000
184.83	-0.000
185.04	-0.000
185.26	-0.000
185.48	-0.000
185.69	-0.000
185.91	-0.000
186.12	-0.000
186.34	-0.000
186.55	-0.000
186.77	-0.000
186.98	-0.000
187.20	-0.000
187.42	-0.000
187.63	-0.000
187.85	-0.000
188.06	-0.000
188.28	-0.000
188.49	-0.000
188.71	-0.000
188.92	-0.000
189.14	-0.000
189.36	-0.000
189.57	-0.000
189.79	-0.000
190.00	-0.000
190.22	-0.000
190.43	-0.000
190.65	-0.000
190.86	-0.000
191.08	-0.000
191.29	-0.000
191.51	-0.000
191.72	-0.000
191.94	-0.000
192.16	-0.000
192.37	-0.000
192.59	-0.000
192.80	-0.000
193.02	-0.000
193.23	-0.000
193.45	-0.000
193.66	-0.000
193.88	-0.000
194.09	-0.000
194.31	-0.000
194.52	-0.000
194.74	-0.000
194.95	-0.000
195.17	-0.000
195.38	-0.000
195.60	-0.000
195.81	-0.000
196.03	-0.000
196.25	-0.000
196.46	-0.000
196.68	-0.000
196.89	-0.000
197.11	-0.000
197.32	-0.000
197.54	-0.000
197.75	-0.000
197.97	-0.000
198.18	-0.000
198.40	-0.000
198.61	-0.000
198.83	-0.000
199.04	-0.000
199.26	-0.000
199.47	-0.000
199.69	-0.000
199.90	-0.000
200.12	-0.000
200.33	-0.000
200.55	-0.000
200.76	-0.000
200.98	-0.000
201.19	-0.000
201.41	-0.000
201.62	-0.000
201.84	-0.000
202.05	-0.000
202.27	-0.000
202.48	-0.000
202.70	-0.000
202.91	-0.000
203.13	-0.000
203.34	-0.000
203.56	-0.000
203.77	-0.000
203.99	-0.000
204.20	-0.000
204.42	-0.000
204.63	-0.000
204.85	-0.000
205.06	-0.000
205.28	-0.000
205.49	-0.000
205.71	-0.000
205.92	-0.000
206.14	-0.000
206.35	-0.000
206.56	-0.000
206.78	-0.000
206.99	-0.000
207.21	-0.000
207.42	-0.000
207.64	-0.000
207.85	-0.000
208.07	-0.000
208.28	-0.000
208.50	-0.000
208.71	-0.000
208.93	-0.000
209.14	-0.000
209.36	-0.000
209.57	-0.000
209.79	-0.000
210.00	-0.000
210.22	-0.000
210.43	-0.000
210.64	-0.000
210.86	-0.000
211.07	-0.000
211.29	-0.000
211.50	-0.000
211.72	-0.000
211.93	-0.000
212.15	-0.000
212.36	-0.000
212.58	-0.000
212.79	-0.000
213.01	-0.000
213.22	-0.000
213.43	-0.000
213.65	-0.000
213.86	-0.000
214.08	-0.000
214.29	-0.000
214.51	-0.000
214.72	-0.000
214.94	-0.000
215.15	-0.000
215.36	-0.000
215.58	-0.000
215.79	-0.000
216.01	-0.000
216.22	-0.000
216.44	-0.000
216.65	-0.000
216.87	-0.000
217.08	-0.000
217.29	-0.000
217.51	-0.000
217.72	-0.000
217.94	-0.000
218.15	-0.000
218.37	-0.000
218.58	-0.000
218.80	-0.000
219.01	-0.000
219.22	-0.000
219.44	-0.000
219.65	-0.000
219.87	-0.000
220.08	-0.000
220.30	-0.000
220.51	-0.000
220.72	-0.000
220.94	-0.000
221.15	-0.000
221.37	-0.000
221.58	-0.000
221.79	-0.000
222.01	-0.000
222.22	-0.000
222.44	-0.000
222.65	-0.000
222.87	-0.000
223.08	-0.000
223.29	-0.000
223.51	-0.000
223.72	-0.000
223.94	-0.000
224.15	-0.000
224.36	-0.000
224.58	-0.000
224.79	-0.000
225.01	-0.000
225.22	-0.000
225.44	-0.000
225.65	-0.000
225.86	-0.000
226.08	-0.000
226.29	-0.000
226.51	-0.000
226.72	-0.000
226.93	-0.000
227.15	-0.000
227.36	-0.000
227.58	-0.000
227.79	-0.000
228.00	-0.000
228.22	-0.000
228.43	-0.000
228.65	-0.000
228.86	-0.000
229.07	-0.000
229.29	-0.000
229.50	-0.000
229.72	-0.000
229.93	-0.000
230.14	-0.000
230.36	-0.000
230.57	-0.000
230.78	-0.000
231.00	-0.000
231.21	-0.000
231.43	-0.000
231.64	-0.000
231.85	-0.000
232.07	-0.000
232.28	-0.000
232.50	-0.000
232.71	-0.000
232.92	-0.000
233.14	-0.000
233.35	-0.000
233.56	-0.000
233.78	-0.000
233.99	-0.000
234.21	-0.000
234.42	-0.000
234.63	-0.000
234.85	-0.000
235.06	-0.000
235.27	-0.000
235.49	-0.000
235.70	-0.000
235.91	-0.000
236.13	-0.000
236.34	-0.000
236.56	-0.000
236.77	-0.000
236.98	-0.000
237.20	-0.000
237.41	-0.000
237.62	-0.000
237.84	-0.000
238.05	-0.000
238.26	-0.000
238.48	-0.000
238.69	-0.000
238.91	-0.000
239.12	-0.000
239.33	-0.000
239.55	-0.000
239.76	-0.000
239.97	-0.000
240.19	-0.000
240.40	-0.000
240.61	-0.000
240.83	-0.000
241.04	-0.000
241.25	-0.000
241.47	-0.000
241.68	-0.000
241.89	-0.000
242.11	-0.000
242.32	-0.000
242.53	-0.000
242.75	-0.000
242.96	-0.000
243.17	-0.000
243.39	-0.000
243.60	-0.000
243.81	-0.000
244.03	-0.000
244.24	-0.000
244.45	-0.000
244.67	-0.000
244.88	-0.000
245.09	-0.000
245.31	-0.000
245.52	-0.000
245.73	-0.000
245.95	-0.000
246.16	-0.000
246.37	-0.000
246.59	-0.000
246.80	-0.000
247.01	-0.000
247.23	-0.000
247.44	-0.000
247.65	-0.000
247.87	-0.000
248.08	-0.000
248.29	-0.000
248.51	-0.000
248.72	-0.000
248.93	-0.000
249.15	-0.000
249.36	-0.000
249.57	-0.000
249.78	-0.000
250.00	-0.000
250.21	-0.000
250.42	-0.000
250.64	-0.000
250.85	-0.000
251.06	-0.000
251.28	-0.000
251.49	-0.000
251.70	-0.000
251.92	-0.000
252.13	-0.000
252.34	-0.000
252.55	-0.000
252.77	-0.000
252.98	-0.000
253.19	-0.000
253.41	-0.000
253.62	-0.000
253.83	-0.000
254.05	-0.000
254.26	-0.000
254.47	-0.000
254.68	-0.000
254.90	-0.000
255.11	-0.000
255.32	-0.000
255.54	-0.000
255.75	-0.000
255.96	-0.000
256.17	-0.000
256.39	-0.000
256.60	-0.000
256.81	-0.000
257.03	-0.000
257.24	-0.000
257.45	-0.000
257.66	-0.000
257.88	-0.000
258.09	-0.000
258.30	-0.000
258.51	-0.000
258.73	-0.000
258.94	-0.000
259.15	-0.000
259.37	-0.000
259.58	-0.000
259.79	-0.000
260.00	-0.000
260.22	-0.000
260.43	-0.000
260.64	-0.000
260.85	-0.000
261.07	-0.000
261.28	-0.000
261.49	-0.000
261.71	-0.000
261.92	-0.000
262.13	-0.000
262.34	-0.000
262.56	-0.000
262.77	-0.000
262.98	-0.000
263.19	-0.000
263.41	-0.000
263.62	-0.000
263.83	-0.000
264.04	-0.000
264.26	-0.000
264.47	-0.000
264.68	-0.000
264.89	-0.000
265.11	-0.000
265.32	-0.000
265.53	-0.000
265.74	-0.000
265.96	-0.000
266.17	-0.000
266.38	-0.000
266.59	-0.000
266.81	-0.000
267.02	-0.000
267.23	-0.000
267.44	-0.000
267.65	-0.000
267.87	-0.000
268.08	-0.000
268.29	-0.000
268.50	-0.000
268.72	-0.000
268.93	-0.000
269.14	-0.000
269.35	-0.000
269.57	-0.000
269.78	-0.000
269.99	-0.000
270.20	-0.000
270.41	-0.000
270.63	-0.000
270.84	-0.000
271.05	-0.000
271.26	-0.000
271.48	-0.000
271.69	-0.000
271.90	-0.000
272.11	-0.000
272.32	-0.000
272.54	-0.000
272.75	-0.000
272.96	-0.000
273.17	-0.000
273.39	-0.000
273.60	-0.000
273.81	-0.000
274.02	-0.000
274.23	-0.000
274.45	-0.000
274.66	-0.000
274.87	-0.000
275.08	-0.000
275.29	-0.000
275.51	-0.000
275.72	-0.000
275.93	-0.000
276.14	-0.000
276.35	-0.000
276.57	-0.000
276.78	-0.000
276.99	-0.000
277.20	-0.000
277.41	-0.000
277.63	-0.000
277.84	-0.000
278.05	-0.000
278.26	-0.000
278.47	-0.000
278.69	-0.000
278.90	-0.000
279.11	-0.000
279.32	-0.000
279.53	-0.000
279.74	-0.000
279.96	-0.000
280.17	-0.000
280.38	-0.000
280.59	-0.000
280.80	-0.000
281.02	-0.000
281.23	-0.000
281.44	-0.000
281.65	-0.000
281.86	-0.000
282.07	-0.000
282.29	-0.000
282.50	-0.000
282.71	-0.000
282.92	-0.000
283.13	-0.000
283.35	-0.000
283.56	-0.000
283.77	-0.000
283.98	-0.000
284.19	-0.000
284.40	-0.000
284.62	-0.000
284.83	-0.000
285.04	-0.000
285.25	-0.000
285.46	-0.000
285.67	-0.000
285.88	-0.000
286.10	-0.000
286.31	-0.000
286.52	-0.000
286.73	-0.000
286.94	-0.000
287.15	-0.000
287.37	-0.000
287.58	-0.000
287.79	-0.000
288.00	-0.000
288.21	-0.000
288.42	-0.000
288.63	-0.000
288.85	-0.000
289.06	-0.000
289.27	-0.000
289.48	-0.000
289.69	-0.000
289.90	-0.000
290.11	-0.000
290.33	-0.000
290.54	-0.000
290.75	-0.000
290.96	-0.000
291.17	-0.000
291.38	-0.000
291.59	-0.000
291.81	-0.000
292.02	-0.000
292.23	-0.000
292.44	-0.000
292.65	-0.000
292.86	-0.000
293.07	-0.000
293.28	-0.000
293.50	-0.000
293.71	-0.000
293.92	-0.000
294.13	-0.000
294.34	-0.000
294.55	-0.000
294.76	-0.000
294.97	-0.000
295.19	-0.000
295.40	-0.000
295.61	-0.000
295.82	-0.000
296.03	-0.000
296.24	-0.000
296.45	2.237
296.66	1.837
296.87	1.850
297.09	1.920
297.30	2.202
297.51	1.765
297.72	1.730
297.93	1.808
298.14	1.777
298.35	1.736
298.56	1.701
298.77	1.807
298.99	1.783
299.20	1.770
299.41	1.761
299.62	1.697
299.83	1.691
300.04	1.628
300.25	1.631
300.46	1.664
300.67	1.636
300.88	1.587
301.10	1.592
301.31	1.664
301.52	1.595
301.73	1.537
301.94	1.536
302.15	1.548
302.36	1.497
302.57	1.439
302.78	1.449
302.99	1.488
303.20	1.506
303.41	1.418
303.63	1.398
303.84	1.403
304.05	1.395
304.26	1.340
304.47	1.347
304.68	1.352
304.89	1.336
305.10	1.299
305.31	1.284
305.52	1.328
305.73	1.320
305.94	1.281
306.15	1.273
306.37	1.291
306.58	1.300
306.79	1.271
307.00	1.291
307.21	1.333
307.42	1.324
307.63	1.289
307.84	1.254
308.05	1.290
308.26	1.291
308.47	1.273
308.68	1.269
308.89	1.266
309.10	1.262
309.31	1.224
309.52	1.212
309.73	1.226
309.95	1.221
310.16	1.195
310.37	1.184
310.58	1.201
310.79	1.197
311.00	1.199
311.21	1.201
311.42	1.201
311.63	1.195
311.84	1.178
312.05	1.173
312.26	1.193
312.47	1.207
312.68	1.181
312.89	1.164
313.10	1.170
313.31	1.145
313.52	1.147
313.73	1.149
313.94	1.153
314.15	1.137
314.36	1.119
314.57	1.116
314.78	1.100
314.99	1.097
315.21	1.085
315.42	1.090
315.63	1.099
315.84	1.076
316.05	1.063
316.26	1.068
316.47	1.085
316.68	1.080
316.89	1.060
317.10	1.081
317.31	1.086
317.52	1.090
317.73	1.070
317.94	1.070
318.15	1.113
318.36	1.113
318.57	1.099
318.78	1.090
318.99	1.124
319.20	1.122
319.41	1.087
319.62	1.088
319.83	1.100
320.04	1.095
320.25	1.084
320.46	1.049
320.67	1.051
320.88	1.046
321.09	1.030
321.30	1.016
321.51	1.030
321.72	1.029
321.93	1.014
322.14	1.007
322.35	1.032
322.56	1.034
322.77	1.022
322.98	1.034
323.19	1.041
323.40	1.048
323.61	1.028
323.82	1.023
324.03	1.028
324.24	1.025
324.45	1.012
324.66	0.992
324.87	0.986
325.08	0.986
325.29	0.967
325.50	0.959
325.71	0.964
325.92	0.972
326.13	0.958
326.34	0.959
326.55	0.965
326.76	0.965
326.97	0.956
327.18	0.951
327.39	0.976
327.60	0.977
327.80	0.978
328.01	0.975
328.22	0.975
328.43	0.980
328.64	0.968
328.85	0.972
329.06	0.972
329.27	0.971
329.48	0.969
329.69	0.950
329.90	0.960
330.11	0.954
330.32	0.948
330.53	0.940
330.74	0.939
330.95	0.938
331.16	0.925
331.37	0.935
331.58	0.934
331.79	0.934
332.00	0.924
332.21	0.917
332.42	0.921
332.63	0.912
332.83	0.909
333.04	0.912
333.25	0.923
333.46	0.921
333.67	0.907
333.88	0.910
334.09	0.920
334.30	0.918
334.51	0.909
334.72	0.904
334.93	0.906
335.14	0.904
335.35	0.896
335.56	0.892
335.77	0.902
335.98	0.901
336.18	0.896
336.39	0.887
336.60	0.890
336.81	0.890
337.02	0.891
337.23	0.895
337.44	0.898
337.65	0.901
337.86	0.891
338.07	0.883
338.28	0.887
338.49	0.885
338.70	0.879
338.91	0.887
339.11	0.892
339.32	0.887
339.53	0.876
339.74	0.873
339.95	0.869
340.16	0.867
340.37	0.861
340.58	0.858
340.79	0.859
341.00	0.859
341.21	0.848
341.41	0.848
341.62	0.849
341.83	0.850
342.04	0.846
342.25	0.858
342.46	0.861
342.67	0.859
342.88	0.854
343.09	0.853
343.30	0.860
343.50	0.864
343.71	0.855
343.92	0.854
344.13	0.858
344.34	0.857
344.55	0.840
344.76	0.838
344.97	0.843
345.18	0.841
345.38	0.839
345.59	0.834
345.80	0.834
346.01	0.831
346.22	0.827
346.43	0.821
346.64	0.829
346.85	0.829
347.06	0.823
347.26	0.822
347.47	0.826
347.68	0.821
347.89	0.817
348.10	0.812
348.31	0.819
348.52	0.818
348.73	0.816
348.93	0.813
349.14	0.815
349.35	0.814
349.56	0.810
349.77	0.805
349.98	0.810
350.19	0.808
350.39	0.804
350.60	0.799
350.81	0.815
351.02	0.812
351.23	0.808
351.44	0.810
351.65	0.813
351.86	0.810
352.06	0.809
352.27	0.809
352.48	0.811
352.69	0.809
352.90	0.804
353.11	0.790
353.31	0.798
353.52	0.795
353.73	0.786
353.94	0.788
354.15	0.794
354.36	0.793
354.57	0.785
354.77	0.788
354.98	0.788
355.19	0.788
355.40	0.787
355.61	0.793
355.82	0.796
356.02	0.796
356.23	0.789
356.44	0.790
356.65	0.794
356.86	0.793
357.07	0.787
357.27	0.789
357.48	0.791
357.69	0.787
357.90	0.773
358.11	0.770
358.32	0.773
358.52	0.776
358.73	0.767
358.94	0.769
359.15	0.773
359.36	0.774
359.56	0.769
359.77	0.766
359.98	0.773
360.19	0.772
360.40	0.769
360.61	0.770
360.81	0.768
361.02	0.769
361.23	0.761
361.44	0.758
361.65	0.760
361.85	0.759
362.06	0.758
362.27	0.760
362.48	0.761
362.69	0.763
362.89	0.757
363.10	0.759
363.31	0.762
363.52	0.766
363.73	0.762
363.93	0.761
364.14	0.763
364.35	0.764
364.56	0.753
364.77	0.754
364.97	0.756
365.18	0.757
365.39	0.753
365.60	0.749
365.81	0.750
366.01	0.750
366.22	0.748
366.43	0.747
366.64	0.748
366.84	0.753
367.05	0.752
367.26	0.751
367.47	0.752
367.68	0.751
367.88	0.749
368.09	0.747
368.30	0.749
368.51	0.748
368.71	0.748
368.92	0.752
369.13	0.750
369.34	0.749
369.55	0.748
369.75	0.748
369.96	0.754
370.17	0.754
370.38	0.750
370.58	0.750
370.79	0.756
371.00	0.754
371.21	0.746
371.41	0.751
371.62	0.756
371.83	0.751
372.04	0.749
372.24	0.742
372.45	0.743
372.66	0.744
372.87	0.741
373.07	0.737
373.28	0.738
373.49	0.740
373.70	0.731
373.90	0.730
374.11	0.739
374.32	0.738
374.53	0.737
374.73	0.738
374.94	0.740
375.15	0.740
375.36	0.737
375.56	0.746
375.77	0.746
375.98	0.746
376.19	0.744
376.39	0.738
376.60	0.741
376.81	0.741
377.02	0.739
377.22	0.738
377.43	0.738
377.64	0.738
377.84	0.729
378.05	0.734
378.26	0.740
378.47	0.739
378.67	0.736
378.88	0.734
379.09	0.735
379.30	0.735
379.50	0.733
379.71	0.735
379.92	0.737
380.12	0.737
380.33	0.729
380.54	0.725
380.75	0.732
380.95	0.732
381.16	0.730
381.37	0.730
381.57	0.731
381.78	0.731
381.99	0.732
382.20	0.732
382.40	0.734
382.61	0.734
382.82	0.731
383.02	0.724
383.23	0.727
383.44	0.728
383.64	0.726
383.85	0.730
384.06	0.732
384.27	0.730
384.47	0.728
384.68	0.728
384.89	0.734
385.09	0.734
385.30	0.733
385.51	0.732
385.71	0.735
385.92	0.736
386.13	0.734
386.33	0.736
386.54	0.738
386.75	0.737
386.95	0.733
387.16	0.728
387.37	0.730
387.58	0.730
387.78	0.728
387.99	0.726
388.20	0.728
388.40	0.726
388.61	0.723
388.82	0.725
389.02	0.728
389.23	0.728
389.44	0.726
389.64	0.727
389.85	0.739
390.06	0.738
390.26	0.739
390.47	0.738
390.68	0.740
390.88	0.738
391.09	0.734
391.30	0.732
391.50	0.732
391.71	0.732
391.92	0.730
392.12	0.721
392.33	0.722
392.53	0.722
392.74	0.722
392.95	0.721
393.15	0.724
393.36	0.726
393.57	0.724
393.77	0.727
393.98	0.729
394.19	0.728
394.39	0.728
394.60	0.729
394.81	0.731
395.01	0.729
395.22	0.727
395.43	0.728
395.63	0.733
395.84	0.734
396.04	0.731
396.25	0.733
396.46	0.735
396.66	0.733
396.87	0.732
397.08	0.729
397.28	0.732
397.49	0.733
397.69	0.729
397.90	0.724
398.11	0.726
398.31	0.726
398.52	0.722
398.73	0.723
398.93	0.722
399.14	0.722
399.34	0.721
399.55	0.722
399.76	0.722
399.96	0.723
400.17	0.722
400.37	0.720
400.58	0.727
400.79	0.729
400.99	0.726
401.20	0.732
401.41	0.734
401.61	0.734
401.82	0.740
402.02	0.739
402.23	0.740
402.44	0.740
402.64	0.741
402.85	0.735
403.05	0.734
403.26	0.734
403.47	0.729
403.67	0.728
403.88	0.728
404.08	0.722
404.29	0.721
404.50	0.721
404.70	0.721
404.91	0.720
405.11	0.717
405.32	0.717
405.52	0.716
405.73	0.716
405.94	0.715
406.14	0.717
406.35	0.719
406.55	0.719
406.76	0.716
406.97	0.717
407.17	0.720
407.38	0.720
407.58	0.719
407.79	0.722
407.99	0.725
408.20	0.725
408.41	0.721
408.61	0.719
408.82	0.720
409.02	0.720
409.23	0.718
409.43	0.716
409.64	0.717
409.84	0.716
410.05	0.713
410.26	0.711
410.46	0.710
410.67	0.711
410.87	0.712
411.08	0.714
411.28	0.716
411.49	0.717
411.69	0.715
411.90	0.716
412.11	0.718
412.31	0.719
412.52	0.717
412.72	0.718
412.93	0.718
413.13	0.718
413.34	0.714
413.54	0.716
413.75	0.717
413.95	0.716
414.16	0.713
414.37	0.715
414.57	0.715
414.78	0.717
414.98	0.716
415.19	0.717
415.39	0.713
415.60	0.716
415.80	0.714
416.01	0.713
416.21	0.715
416.42	0.715
416.62	0.711
416.83	0.712
417.03	0.711
417.24	0.711
417.44	0.708
417.65	0.707
417.86	0.707
418.06	0.705
418.27	0.704
418.47	0.705
418.68	0.706
418.88	0.706
419.09	0.704
419.29	0.705
419.50	0.705
419.70	0.706
419.91	0.705
420.11	0.703
420.32	0.705
420.52	0.706
420.73	0.704
420.93	0.705
421.14	0.707
421.34	0.706
421.55	0.703
421.75	0.704
421.96	0.704
422.16	0.704
422.37	0.703
422.57	0.700
422.78	0.701
422.98	0.698
423.19	0.696
423.39	0.694
423.60	0.697
423.80	0.698
424.01	0.697
424.21	0.699
424.42	0.700
424.62	0.700
424.83	0.699
425.03	0.699
425.23	0.701
425.44	0.701
425.64	0.702
425.85	0.701
426.05	0.701
426.26	0.701
426.46	0.698
426.67	0.697
426.87	0.701
427.08	0.702
427.28	0.700
427.49	0.701
427.69	0.701
427.90	0.700
428.10	0.698
428.31	0.697
428.51	0.698
428.71	0.698
428.92	0.699
429.12	0.696
429.33	0.697
429.53	0.701
429.74	0.706
429.94	0.706
430.15	0.705
430.35	0.705
430.56	0.702
430.76	0.701
430.96	0.702
431.17	0.699
431.37	0.696
431.58	0.694
431.78	0.690
431.99	0.683
432.19	0.684
432.40	0.686
432.60	0.687
432.80	0.690
433.01	0.688
433.21	0.689
433.42	0.690
433.62	0.691
433.83	0.691
434.03	0.694
434.23	0.696
434.44	0.695
434.64	0.693
434.85	0.698
435.05	0.699
435.26	0.698
435.46	0.697
435.66	0.697
435.87	0.696
436.07	0.696
436.28	0.692
436.48	0.690
436.69	0.689
436.89	0.688
437.09	0.682
437.30	0.681
437.50	0.682
437.71	0.693
437.91	0.692
438.11	0.694
438.32	0.697
438.52	0.697
438.73	0.696
438.93	0.694
439.13	0.694
439.34	0.699
439.54	0.696
439.75	0.695
439.95	0.686
440.15	0.690
440.36	0.689
440.56	0.686
440.77	0.687
440.97	0.688
441.17	0.687
441.38	0.688
441.58	0.685
441.79	0.685
441.99	0.684
442.19	0.682
442.40	0.679
442.60	0.679
442.81	0.677
443.01	0.677
443.21	0.677
443.42	0.676
443.62	0.674
443.82	0.674
444.03	0.675
444.23	0.675
444.44	0.676
444.64	0.674
444.84	0.675
445.05	0.675
445.25	0.673
445.45	0.673
445.66	0.675
445.86	0.674
446.06	0.675
446.27	0.674
446.47	0.677
446.68	0.675
446.88	0.674
447.08	0.674
447.29	0.676
447.49	0.675
447.69	0.676
447.90	0.674
448.10	0.678
448.30	0.676
448.51	0.677
448.71	0.674
448.91	0.677
449.12	0.676
449.32	0.677
449.52	0.676
449.73	0.680
449.93	0.679
450.14	0.679
450.34	0.679
450.54	0.681
450.75	0.678
450.95	0.678
451.15	0.677
451.36	0.679
451.56	0.677
451.76	0.676
451.97	0.673
452.17	0.672
452.37	0.671
452.58	0.668
452.78	0.667
452.98	0.670
453.19	0.669
453.39	0.670
453.59	0.669
453.79	0.669
454.00	0.669
454.20	0.668
454.40	0.669
454.61	0.671
454.81	0.671
455.01	0.670
455.22	0.670
455.42	0.672
455.62	0.670
455.83	0.669
456.03	0.673
456.23	0.673
456.44	0.674
456.64	0.673
456.84	0.672
457.04	0.673
457.25	0.672
457.45	0.669
457.65	0.668
457.86	0.668
458.06	0.667
458.26	0.663
458.47	0.663
458.67	0.664
458.87	0.663
459.07	0.661
459.28	0.664
459.48	0.666
459.68	0.666
459.89	0.665
460.09	0.664
460.29	0.664
460.49	0.666
460.70	0.665
460.90	0.664
461.10	0.665
461.31	0.665
461.51	0.661
461.71	0.663
461.91	0.664
462.12	0.664
462.32	0.664
462.52	0.665
462.72	0.667
462.93	0.667
463.13	0.666
463.33	0.667
463.53	0.669
463.74	0.669
463.94	0.664
464.14	0.664
464.35	0.665
464.55	0.666
464.75	0.664
464.95	0.662
465.16	0.664
465.36	0.663
465.56	0.662
465.76	0.660
465.97	0.661
466.17	0.662
466.37	0.660
466.57	0.661
466.78	0.661
466.98	0.661
467.18	0.659
467.38	0.658
467.59	0.659
467.79	0.660
467.99	0.660
468.19	0.661
468.39	0.664
468.60	0.664
468.80	0.662
469.00	0.663
469.20	0.664
469.41	0.664
469.61	0.664
469.81	0.664
470.01	0.664
470.22	0.664
470.42	0.662
470.62	0.660
470.82	0.661
471.02	0.660
471.23	0.658
471.43	0.658
471.63	0.660
471.83	0.660
472.04	0.658
472.24	0.657
472.44	0.663
472.64	0.662
472.84	0.661
473.05	0.661
473.25	0.663
473.45	0.662
473.65	0.661
473.85	0.661
474.06	0.662
474.26	0.662
474.46	0.663
474.66	0.660
474.86	0.661
475.07	0.661
475.27	0.659
475.47	0.657
475.67	0.658
475.87	0.660
476.08	0.657
476.28	0.659
476.48	0.660
476.68	0.658
476.88	0.656
477.09	0.657
477.29	0.659
477.49	0.659
477.69	0.658
477.89	0.658
478.09	0.656
478.30	0.659
478.50	0.656
478.70	0.655
478.90	0.655
479.10	0.657
479.31	0.659
479.51	0.656
479.71	0.657
479.91	0.657
480.11	0.656
480.31	0.656
480.52	0.655
480.72	0.655
480.92	0.654
481.12	0.653
481.32	0.651
481.52	0.649
481.72	0.649
481.93	0.652
482.13	0.653
482.33	0.652
482.53	0.651
482.73	0.652
482.93	0.653
483.14	0.652
483.34	0.652
483.54	0.653
483.74	0.652
483.94	0.651
484.14	0.647
484.34	0.647
484.55	0.648
484.75	0.648
484.95	0.646
485.15	0.645
485.35	0.645
485.55	0.645
485.75	0.643
485.96	0.643
486.16	0.644
486.36	0.644
486.56	0.642
486.76	0.642
486.96	0.642
487.16	0.642
487.36	0.640
487.57	0.640
487.77	0.640
487.97	0.640
488.17	0.638
488.37	0.637
488.57	0.637
488.77	0.637
488.97	0.636
489.18	0.636
489.38	0.638
489.58	0.639
489.78	0.639
489.98	0.638
490.18	0.638
490.38	0.639
490.58	0.638
490.78	0.640
490.98	0.641
491.19	0.641
491.39	0.640
491.59	0.639
491.79	0.642
491.99	0.642
492.19	0.642
492.39	0.645
492.59	0.645
492.79	0.647
492.99	0.646
493.20	0.647
493.40	0.647
493.60	0.648
493.80	0.646
494.00	0.644
494.20	0.645
494.40	0.644
494.60	0.642
494.80	0.646
495.00	0.645
495.20	0.643
495.40	0.643
495.61	0.644
495.81	0.644
496.01	0.648
496.21	0.649
496.41	0.648
496.61	0.649
496.81	0.648
497.01	0.643
497.21	0.642
497.41	0.643
497.61	0.642
497.81	0.639
498.01	0.639
498.21	0.637
498.41	0.635
498.61	0.634
498.82	0.636
499.02	0.638
499.22	0.638
499.42	0.638
499.62	0.639
499.82	0.640
500.02	0.642
500.22	0.640
500.42	0.642
500.62	0.643
500.82	0.644
501.02	0.642
501.22	0.642
501.42	0.642
501.62	0.644
501.82	0.644
502.02	0.644
502.22	0.643
502.42	0.644
502.62	0.641
502.82	0.641
503.02	0.642
503.22	0.642
503.42	0.640
503.63	0.640
503.83	0.638
504.03	0.636
504.23	0.635
504.43	0.636
504.63	0.638
504.83	0.637
505.03	0.636
505.23	0.637
505.43	0.639
505.63	0.640
505.83	0.639
506.03	0.641
506.23	0.643
506.43	0.643
506.63	0.642
506.83	0.640
507.03	0.642
507.23	0.643
507.43	0.640
507.63	0.641
507.83	0.641
508.03	0.642
508.23	0.641
508.43	0.640
508.63	0.641
508.83	0.641
509.03	0.643
509.23	0.642
509.43	0.643
509.63	0.643
509.83	0.642
510.03	0.644
510.23	0.646
510.43	0.647
510.63	0.647
510.83	0.647
511.03	0.648
511.23	0.645
511.43	0.645
511.63	0.647
511.83	0.649
512.03	0.649
512.22	0.646
512.42	0.645
512.62	0.646
512.82	0.646
513.02	0.645
513.22	0.645
513.42	0.647
513.62	0.649
513.82	0.647
514.02	0.646
514.22	0.648
514.42	0.648
514.62	0.648
514.82	0.648
515.02	0.650
515.22	0.653
515.42	0.652
515.62	0.654
515.82	0.653
516.02	0.654
516.22	0.654
516.42	0.656
516.62	0.657
516.82	0.658
517.01	0.656
517.21	0.655
517.41	0.659
517.61	0.660
517.81	0.656
518.01	0.655
518.21	0.655
518.41	0.654
518.61	0.653
518.81	0.654
519.01	0.655
519.21	0.655
519.41	0.655
519.61	0.650
519.81	0.651
520.00	0.652
520.20	0.652
520.40	0.655
520.60	0.656
520.80	0.654
521.00	0.654
521.20	0.655
521.40	0.659
521.60	0.659
521.80	0.658
522.00	0.659
522.20	0.661
522.39	0.660
522.59	0.657
522.79	0.659
522.99	0.661
523.19	0.660
523.39	0.658
523.59	0.656
523.79	0.658
523.99	0.660
524.19	0.659
524.38	0.658
524.58	0.660
524.78	0.660
524.98	0.658
525.18	0.661
525.38	0.661
525.58	0.662
525.78	0.660
525.98	0.659
526.18	0.659
526.37	0.659
526.57	0.661
526.77	0.661
526.97	0.662
527.17	0.661
527.37	0.658
527.57	0.660
527.77	0.661
527.96	0.662
528.16	0.661
528.36	0.661
528.56	0.663
528.76	0.661
528.96	0.660
529.16	0.661
529.36	0.664
529.55	0.664
529.75	0.661
529.95	0.661
530.15	0.662
530.35	0.665
530.55	0.662
530.75	0.662
530.94	0.663
531.14	0.664
531.34	0.662
531.54	0.660
531.74	0.663
531.94	0.666
532.13	0.664
532.33	0.666
532.53	0.665
532.73	0.665
532.93	0.664
533.13	0.665
533.33	0.664
533.52	0.665
533.72	0.668
533.92	0.666
534.12	0.664
534.32	0.664
534.52	0.662
534.71	0.664
534.91	0.667
535.11	0.668
535.31	0.666
535.51	0.668
535.71	0.669
535.90	0.666
536.10	0.668
536.30	0.670
536.50	0.671
536.70	0.671
536.89	0.669
537.09	0.668
537.29	0.670
537.49	0.671
537.69	0.669
537.89	0.670
538.08	0.669
538.28	0.668
538.48	0.668
538.68	0.670
538.88	0.671
539.07	0.671
539.27	0.670
539.47	0.669
539.67	0.669
539.87	0.670
540.06	0.668
540.26	0.668
540.46	0.670
540.66	0.667
540.86	0.665
541.05	0.665
541.25	0.667
541.45	0.666
541.65	0.665
541.84	0.667
542.04	0.667
542.24	0.669
542.44	0.668
542.64	0.669
542.83	0.672
543.03	0.673
543.23	0.671
543.43	0.671
543.62	0.673
543.82	0.673
544.02	0.671
544.22	0.672
544.42	0.675
544.61	0.675
544.81	0.672
545.01	0.671
545.21	0.673
545.40	0.673
545.60	0.672
545.80	0.675
546.00	0.676
546.19	0.675
546.39	0.673
546.59	0.671
546.79	0.672
546.98	0.672
547.18	0.673
547.38	0.673
547.58	0.675
547.77	0.675
547.97	0.670
548.17	0.671
548.37	0.672
548.56	0.672
548.76	0.672
548.96	0.674
549.16	0.676
549.35	0.675
549.55	0.673
549.75	0.673
549.95	0.676
550.14	0.678
550.34	0.677
550.54	0.682
550.73	0.685
550.93	0.686
551.13	0.683
551.33	0.681
551.52	0.682
551.72	0.683
551.92	0.681
552.12	0.683
552.31	0.683
552.51	0.683
552.71	0.678
552.90	0.679
553.10	0.680
553.30	0.679
553.50	0.680
553.69	0.681
553.89	0.681
554.09	0.681
554.28	0.678
554.48	0.679
554.68	0.680
554.87	0.680
555.07	0.676
555.27	0.676
555.47	0.677
555.66	0.677
555.86	0.676
556.06	0.678
556.25	0.679
556.45	0.686
556.65	0.684
556.84	0.687
557.04	0.690
557.24	0.692
557.43	0.692
557.63	0.696
557.83	0.698
558.02	0.699
558.22	0.702
558.42	0.703
558.61	0.696
558.81	0.696
559.01	0.693
559.21	0.693
559.40	0.693
559.60	0.694
559.80	0.690
559.99	0.691
560.19	0.693
560.39	0.687
560.58	0.685
560.78	0.685
560.97	0.689
561.17	0.688
561.37	0.686
561.56	0.687
561.76	0.687
561.96	0.687
562.15	0.684
562.35	0.686
562.55	0.687
562.74	0.687
562.94	0.686
563.14	0.683
563.33	0.683
563.53	0.683
563.73	0.682
563.92	0.684
564.12	0.687
564.31	0.689
564.51	0.687
564.71	0.689
564.90	0.692
565.10	0.693
565.30	0.695
565.49	0.697
565.69	0.698
565.89	0.698
566.08	0.696
566.28	0.698
566.47	0.700
566.67	0.699
566.87	0.695
567.06	0.697
567.26	0.703
567.46	0.699
567.65	0.698
567.85	0.700
568.04	0.703
568.24	0.702
568.44	0.700
568.63	0.698
568.83	0.699
569.02	0.697
569.22	0.693
569.42	0.689
569.61	0.691
569.81	0.691
570.00	0.688
570.20	0.689
570.40	0.690
570.59	0.690
570.79	0.688
570.98	0.687
571.18	0.688
571.38	0.689
571.57	0.686
571.77	0.684
571.96	0.687
572.16	0.685
572.35	0.680
572.55	0.680
572.75	0.679
572.94	0.678
573.14	0.676
573.33	0.676
573.53	0.677
573.73	0.676
573.92	0.674
574.12	0.672
574.31	0.674
574.51	0.676
574.70	0.673
574.90	0.674
575.09	0.676
575.29	0.677
575.49	0.674
575.68	0.674
575.88	0.675
576.07	0.676
576.27	0.674
576.46	0.673
576.66	0.672
576.86	0.671
577.05	0.669
577.25	0.667
577.44	0.669
577.64	0.669
577.83	0.667
578.03	0.669
578.22	0.669
578.42	0.668
578.61	0.667
578.81	0.667
579.00	0.667
579.20	0.667
579.40	0.665
579.59	0.664
579.79	0.664
579.98	0.664
580.18	0.662
580.37	0.662
580.57	0.665
580.76	0.669
580.96	0.667
581.15	0.669
581.35	0.671
581.54	0.671
581.74	0.671
581.93	0.672
582.13	0.673
582.32	0.671
582.52	0.669
582.71	0.668
582.91	0.664
583.10	0.663
583.30	0.662
583.49	0.661
583.69	0.664
583.88	0.665
584.08	0.664
584.27	0.667
584.47	0.670
584.66	0.671
584.86	0.670
585.05	0.672
585.25	0.675
585.44	0.675
585.64	0.673
585.83	0.669
586.03	0.670
586.22	0.668
586.42	0.664
586.61	0.665
586.81	0.667
587.00	0.667
587.20	0.665
587.39	0.665
587.59	0.667
587.78	0.668
587.98	0.669
588.17	0.669
588.37	0.672
588.56	0.674
588.76	0.670
588.95	0.670
589.15	0.673
589.34	0.676
589.54	0.674
589.73	0.675
589.92	0.679
590.12	0.679
590.31	0.677
590.51	0.682
590.70	0.684
590.90	0.684
591.09	0.683
591.29	0.682
591.48	0.682
591.68	0.683
591.87	0.681
592.06	0.681
592.26	0.683
592.45	0.682
592.65	0.676
592.84	0.676
593.04	0.678
593.23	0.680
593.43	0.678
593.62	0.677
593.81	0.677
594.01	0.676
594.20	0.674
594.40	0.673
594.59	0.674
594.79	0.675
594.98	0.674
595.17	0.673
595.37	0.673
595.56	0.676
595.76	0.675
595.95	0.677
596.14	0.680
596.34	0.681
596.53	0.679
596.73	0.681
596.92	0.683
597.12	0.686
597.31	0.686
597.50	0.685
597.70	0.687
597.89	0.686
598.09	0.683
598.28	0.685
598.47	0.687
598.67	0.686
598.86	0.682
599.06	0.683
599.25	0.683
599.44	0.681
599.64	0.678
599.83	0.675
600.03	0.678
600.22	0.678
600.41	0.678
600.61	0.676
600.80	0.677
601.00	0.678
601.19	0.674
601.38	0.673
601.58	0.675
601.77	0.676
601.96	0.678
602.16	0.678
602.35	0.687
602.55	0.685
602.74	0.686
602.93	0.688
603.13	0.693
603.32	0.695
603.51	0.694
603.71	0.697
603.90	0.700
604.09	0.701
604.29	0.698
604.48	0.693
604.68	0.694
604.87	0.692
605.06	0.689
605.26	0.686
605.45	0.686
605.64	0.685
605.84	0.680
606.03	0.679
606.22	0.678
606.42	0.677
606.61	0.673
606.80	0.673
607.00	0.675
607.19	0.675
607.38	0.673
607.58	0.675
607.77	0.677
607.96	0.677
608.16	0.675
608.35	0.679
608.54	0.682
608.74	0.685
608.93	0.689
609.12	0.692
609.32	0.695
609.51	0.698
609.70	0.698
609.90	0.700
610.09	0.704
610.28	0.710
610.48	0.704
610.67	0.706
610.86	0.707
611.06	0.702
611.25	0.699
611.44	0.700
611.64	0.700
611.83	0.702
612.02	0.699
612.21	0.698
612.41	0.697
612.60	0.696
612.79	0.692
612.99	0.692
613.18	0.694
613.37	0.692
613.57	0.689
613.76	0.691
613.95	0.688
614.14	0.687
614.34	0.685
614.53	0.685
614.72	0.688
614.92	0.688
615.11	0.685
615.30	0.681
615.49	0.683
615.69	0.685
615.88	0.682
616.07	0.683
616.26	0.685
616.46	0.686
616.65	0.683
616.84	0.682
617.04	0.683
617.23	0.687
617.42	0.688
617.61	0.692
617.81	0.691
618.00	0.693
618.19	0.693
618.38	0.697
618.58	0.700
618.77	0.702
618.96	0.701
619.15	0.703
619.35	0.704
619.54	0.705
619.73	0.702
619.92	0.704
620.12	0.708
620.31	0.708
620.50	0.702
620.69	0.702
620.89	0.705
621.08	0.705
621.27	0.704
621.46	0.703
621.66	0.707
621.85	0.706
622.04	0.703
622.23	0.703
622.43	0.704
622.62	0.704
622.81	0.704
623.00	0.704
623.19	0.707
623.39	0.706
623.58	0.704
623.77	0.703
623.96	0.705
624.16	0.704
624.35	0.699
624.54	0.703
624.73	0.706
624.92	0.703
625.12	0.700
625.31	0.700
625.50	0.703
625.69	0.704
625.88	0.700
626.08	0.699
626.27	0.701
626.46	0.701
626.65	0.698
626.84	0.698
627.04	0.703
627.23	0.704
627.42	0.700
627.61	0.701
627.80	0.704
628.00	0.704
628.19	0.703
628.38	0.707
628.57	0.709
628.76	0.709
628.96	0.706
629.15	0.707
629.34	0.710
629.53	0.711
629.72	0.706
629.91	0.705
630.11	0.709
630.30	0.709
630.49	0.712
630.68	0.713
630.87	0.715
631.06	0.717
631.26	0.712
631.45	0.713
631.64	0.721
631.83	0.723
632.02	0.721
632.21	0.721
632.41	0.727
632.60	0.722
632.79	0.720
632.98	0.721
633.17	0.721
633.36	0.722
633.55	0.719
633.75	0.716
633.94	0.717
634.13	0.717
634.32	0.715
634.51	0.710
634.70	0.711
634.89	0.711
635.09	0.708
635.28	0.709
635.47	0.711
635.66	0.714
635.85	0.709
636.04	0.710
636.23	0.714
636.43	0.716
636.62	0.715
636.81	0.714
637.00	0.715
637.19	0.718
637.38	0.715
637.57	0.715
637.76	0.716
637.95	0.717
638.15	0.713
638.34	0.710
638.53	0.712
638.72	0.714
638.91	0.712
639.10	0.711
639.29	0.711
639.48	0.712
639.67	0.712
639.87	0.710
640.06	0.715
640.25	0.715
640.44	0.716
640.63	0.718
640.82	0.720
641.01	0.720
641.20	0.718
641.39	0.720
641.58	0.722
641.78	0.720
641.97	0.717
642.16	0.730
642.35	0.731
642.54	0.730
642.73	0.725
642.92	0.724
643.11	0.727
643.30	0.727
643.49	0.722
643.68	0.725
643.87	0.726
644.06	0.727
644.25	0.709
644.45	0.712
644.64	0.713
644.83	0.714
645.02	0.711
645.21	0.709
645.40	0.710
645.59	0.710
645.78	0.704
645.97	0.706
646.16	0.706
646.35	0.705
646.54	0.703
646.73	0.704
646.92	0.705
647.11	0.704
647.30	0.701
647.49	0.703
647.68	0.703
647.88	0.701
648.07	0.695
648.26	0.698
648.45	0.699
648.64	0.696
648.83	0.692
649.02	0.695
649.21	0.705
649.40	0.705
649.59	0.700
649.78	0.701
649.97	0.715
650.16	0.715
650.35	0.709
650.54	0.712
650.73	0.720
650.92	0.718
651.11	0.711
651.30	0.707
651.49	0.711
651.68	0.712
651.87	0.708
652.06	0.698
652.25	0.701
652.44	0.704
652.63	0.703
652.82	0.704
653.01	0.705
653.20	0.704
653.39	0.693
653.58	0.691
653.77	0.691
653.96	0.686
654.15	0.678
654.34	0.676
654.53	0.671
654.72	0.665
654.91	0.655
655.10	0.650
655.29	0.648
655.48	0.646
655.67	0.641
655.86	0.637
656.05	0.636
656.24	0.635
656.43	0.630
656.62	0.629
656.81	0.628
657.00	0.624
657.19	0.620
657.38	0.619
657.57	0.618
657.76	0.619
657.95	0.617
658.14	0.620
658.33	0.622
658.51	0.627
658.70	0.627
658.89	0.629
659.08	0.640
659.27	0.648
659.46	0.649
659.65	0.656
659.84	0.660
660.03	0.664
660.22	0.666
660.41	0.670
660.60	0.669
660.79	0.671
660.98	0.677
661.17	0.676
661.36	0.675
661.55	0.675
661.74	0.673
661.92	0.676
662.11	0.678
662.30	0.676
662.49	0.670
662.68	0.670
662.87	0.671
663.06	0.665
663.25	0.666
663.44	0.667
663.63	0.668
663.82	0.667
664.01	0.662
664.20	0.660
664.38	0.661
664.57	0.662
664.76	0.661
664.95	0.662
665.14	0.666
665.33	0.662
665.52	0.669
665.71	0.672
665.90	0.671
666.09	0.673
666.28	0.670
666.46	0.669
666.65	0.670
666.84	0.668
667.03	0.663
667.22	0.660
667.41	0.663
667.60	0.653
667.79	0.646
667.98	0.648
668.16	0.649
668.35	0.649
668.54	0.646
668.73	0.646
668.92	0.647
669.11	0.646
669.30	0.641
669.49	0.638
669.67	0.640
669.86	0.642
670.05	0.640
670.24	0.637
670.43	0.635
670.62	0.634
670.81	0.630
671.00	0.631
671.18	0.630
671.37	0.629
671.56	0.627
671.75	0.626
671.94	0.623
672.13	0.621
672.32	0.617
672.50	0.616
672.69	0.616
672.88	0.617
673.07	0.612
673.26	0.615
673.45	0.616
673.63	0.616
673.82	0.613
674.01	0.614
674.20	0.614
674.39	0.613
674.58	0.612
674.76	0.612
674.95	0.610
675.14	0.610
675.33	0.606
675.52	0.605
675.71	0.604
675.89	0.603
676.08	0.599
676.27	0.600
676.46	0.601
676.65	0.600
676.84	0.600
677.02	0.602
677.21	0.604
677.40	0.603
677.59	0.601
677.78	0.602
677.96	0.604
678.15	0.603
678.34	0.602
678.53	0.602
678.72	0.601
678.90	0.598
679.09	0.594
679.28	0.591
679.47	0.590
679.66	0.590
679.84	0.587
680.03	0.584
680.22	0.583
680.41	0.584
680.60	0.580
680.78	0.579
680.97	0.581
681.16	0.582
681.35	0.580
681.53	0.580
681.72	0.580
681.91	0.582
682.10	0.582
682.29	0.584
682.47	0.582
682.66	0.580
682.85	0.579
683.04	0.577
683.22	0.577
683.41	0.578
683.60	0.577
683.79	0.578
683.97	0.577
684.16	0.575
684.35	0.571
684.54	0.573
684.72	0.574
684.91	0.575
685.10	0.574
685.29	0.576
685.47	0.573
685.66	0.572
685.85	0.569
686.04	0.569
686.22	0.571
686.41	0.574
686.60	0.571
686.79	0.573
686.97	0.574
687.16	0.575
687.35	0.571
687.54	0.575
687.72	0.578
687.91	0.578
688.10	0.580
688.29	0.579
688.47	0.578
688.66	0.577
688.85	0.574
689.03	0.571
689.22	0.576
689.41	0.577
689.60	0.572
689.78	0.570
689.97	0.570
690.16	0.567
690.34	0.564
690.53	0.563
690.72	0.563
690.91	0.561
691.09	0.559
691.28	0.553
691.47	0.551
691.65	0.550
691.84	0.548
692.03	0.547
692.21	0.545
692.40	0.545
692.59	0.542
692.77	0.541
692.96	0.542
693.15	0.543
693.34	0.540
693.52	0.540
693.71	0.540
693.90	0.541
694.08	0.541
694.27	0.542
694.46	0.551
694.64	0.553
694.83	0.552
695.02	0.552
695.20	0.551
695.39	0.551
695.58	0.552
695.76	0.552
695.95	0.551
696.14	0.550
696.32	0.548
696.51	0.538
696.70	0.539
696.88	0.540
697.07	0.539
697.26	0.540
697.44	0.541
697.63	0.540
697.81	0.538
698.00	0.537
698.19	0.536
698.37	0.537
698.56	0.536
698.75	0.536
698.93	0.535
699.12	0.535
699.31	0.533
699.49	0.533
699.68	0.534
699.87	0.537
700.05	0.537
700.24	0.536
700.42	0.538
700.61	0.538
700.80	0.535
700.98	0.536
701.17	0.537
701.36	0.536
701.54	0.535
701.73	0.536
701.91	0.534
702.10	0.533
702.29	0.531
702.47	0.530
702.66	0.532
702.84	0.533
703.03	0.532
703.22	0.532
703.40	0.532
703.59	0.534
703.77	0.533
703.96	0.533
704.15	0.534
704.33	0.533
704.52	0.533
704.70	0.532
704.89	0.532
705.08	0.530
705.26	0.527
705.45	0.527
705.63	0.526
705.82	0.524
706.00	0.522
706.19	0.522
706.38	0.523
706.56	0.522
706.75	0.520
706.93	0.519
707.12	0.520
707.30	0.520
707.49	0.518
707.68	0.517
707.86	0.516
708.05	0.515
708.23	0.512
708.42	0.512
708.60	0.515
708.79	0.515
708.98	0.514
709.16	0.513
709.35	0.514
709.53	0.518
709.72	0.517
709.90	0.518
710.09	0.520
710.27	0.522
710.46	0.526
710.64	0.524
710.83	0.526
711.02	0.528
711.20	0.527
711.39	0.525
711.57	0.523
711.76	0.524
711.94	0.523
712.13	0.523
712.31	0.523
712.50	0.519
712.68	0.516
712.87	0.516
713.05	0.517
713.24	0.517
713.42	0.516
713.61	0.517
713.79	0.517
713.98	0.517
714.16	0.518
714.35	0.518
714.54	0.519
714.72	0.519
714.91	0.517
715.09	0.523
715.28	0.526
715.46	0.526
715.65	0.524
715.83	0.524
716.02	0.526
716.20	0.522
716.39	0.521
716.57	0.522
716.76	0.524
716.94	0.524
717.12	0.517
717.31	0.518
717.49	0.521
717.68	0.523
717.86	0.522
718.05	0.524
718.23	0.526
718.42	0.529
718.60	0.530
718.79	0.538
718.97	0.540
719.16	0.540
719.34	0.538
719.53	0.537
719.71	0.537
719.90	0.538
720.08	0.536
720.27	0.537
720.45	0.536
720.63	0.535
720.82	0.529
721.00	0.532
721.19	0.535
721.37	0.535
721.56	0.535
721.74	0.536
721.93	0.544
722.11	0.550
722.30	0.549
722.48	0.554
722.66	0.555
722.85	0.555
723.03	0.555
723.22	0.554
723.40	0.557
723.59	0.558
723.77	0.564
723.95	0.559
724.14	0.561
724.32	0.563
724.51	0.561
724.69	0.563
724.88	0.563
725.06	0.561
725.24	0.562
725.43	0.564
725.61	0.565
725.80	0.558
725.98	0.555
726.16	0.552
726.35	0.557
726.53	0.556
726.72	0.555
726.90	0.563
727.09	0.564
727.27	0.571
727.45	0.567
727.64	0.576
727.82	0.584
728.01	0.589
728.19	0.587
728.37	0.592
728.56	0.596
728.74	0.603
728.92	0.591
729.11	0.593
729.29	0.591
729.48	0.593
729.66	0.584
729.84	0.585
730.03	0.586
730.21	0.589
730.40	0.580
730.58	0.581
730.76	0.580
730.95	0.583
731.13	0.582
731.31	0.596
731.50	0.605
731.68	0.609
731.86	0.605
732.05	0.620
732.23	0.622
732.42	0.626
732.60	0.630
732.78	0.636
732.97	0.652
733.15	0.659
733.33	0.647
733.52	0.653
733.70	0.662
733.88	0.670
734.07	0.655
734.25	0.679
734.43	0.686
734.62	0.688
734.80	0.684
734.98	0.675
735.17	0.680
735.35	0.688
735.53	0.679
735.72	0.680
735.90	0.699
736.08	0.717
736.27	0.696
736.45	0.705
736.63	0.715
736.82	0.725
737.00	0.727
737.18	0.739
737.37	0.768
737.55	0.789
737.73	0.785
737.92	0.787
738.10	0.786
738.28	0.805
738.46	0.793
738.65	0.803
738.83	0.822
739.01	0.870
739.20	0.861
739.38	0.842
739.56	0.832
739.75	0.839
739.93	0.808
740.11	0.829
740.29	0.824
740.48	0.833
740.66	0.815
740.84	0.810
741.03	0.777
741.21	0.789
741.39	0.772
741.57	0.781
741.76	0.796
741.94	0.802
742.12	0.767
742.31	0.774
742.49	0.790
742.67	0.810
742.85	0.828
743.04	0.830
743.22	0.834
743.40	0.889
743.58	0.875
743.77	0.890
743.95	0.919
744.13	0.970
744.31	0.952
744.50	0.944
744.68	0.944
744.86	0.913
745.04	0.927
745.23	0.989
745.41	0.966
745.59	0.971
745.77	0.942
745.96	0.931
746.14	0.939
746.32	0.939
746.50	0.932
746.69	0.918
746.87	0.926
747.05	0.910
747.23	0.839
747.42	0.824
747.60	0.844
747.78	0.848
747.96	0.880
748.14	0.840
748.33	0.866
748.51	0.860
748.69	0.855
748.87	0.881
749.06	0.876
749.24	0.875
749.42	0.865
749.60	0.851
749.78	0.859
749.97	0.814
750.15	0.810
750.33	0.809
750.51	0.833
750.69	0.832
750.88	0.836
751.06	0.847
751.24	0.871
751.42	0.866
751.60	0.859
751.79	0.919
751.97	0.958
752.15	0.959
752.33	0.933
752.51	0.989
752.69	1.012
752.88	0.984
753.06	1.030
753.24	1.005
753.42	1.032
753.60	1.185
753.78	1.060
753.97	1.078
754.15	1.092
754.33	1.116
754.51	1.005
754.69	0.988
754.87	1.011
755.06	0.945
755.24	0.949
755.42	0.957
755.60	0.864
755.78	0.871
755.96	0.820
756.15	0.820
756.33	0.827
756.51	0.845
756.69	0.834
756.87	0.804
757.05	0.820
757.23	0.807
757.42	0.779
757.60	0.775
757.78	0.763
757.96	0.764
758.14	0.748
758.32	0.732
758.50	0.739
758.69	0.738
758.87	0.733
759.05	0.735
759.23	0.742
759.41	0.740
759.59	0.738
759.77	0.760
759.95	0.784
760.13	0.831
760.32	0.830
760.50	0.827
760.68	0.844
760.86	0.841
761.04	0.820
761.22	0.823
761.40	0.866
761.58	0.864
761.76	0.840
761.95	0.820
762.13	0.780
762.31	0.781
762.49	0.755
762.67	0.774
762.85	0.785
763.03	0.781
763.21	0.765
763.39	0.749
763.57	0.748
763.75	0.743
763.94	0.733
764.12	0.734
764.30	0.755
764.48	0.761
764.66	0.729
764.84	0.727
765.02	0.762
765.20	0.771
765.38	0.752
765.56	0.762
765.74	0.798
765.92	0.797
766.10	0.801
766.28	0.794
766.46	0.817
766.65	0.817
766.83	0.806
767.01	0.789
767.19	0.794
767.37	0.795
767.55	0.779
767.73	0.760
767.91	0.764
768.09	0.756
768.27	0.748
768.45	0.737
768.63	0.740
768.81	0.743
768.99	0.716
769.17	0.737
769.35	0.749
769.53	0.752
769.71	0.733
769.89	0.738
770.07	0.740
770.25	0.724
770.43	0.706
770.61	0.727
770.79	0.732
770.97	0.745
771.15	0.719
771.33	0.723
771.51	0.725
771.69	0.738
771.87	0.745
772.05	0.749
772.24	0.755
772.42	0.762
772.60	0.744
772.78	0.796
772.96	0.822
773.14	0.814
773.32	0.794
773.49	0.798
773.67	0.793
773.85	0.776
774.03	0.768
774.21	0.798
774.39	0.808
774.57	0.829
774.75	0.765
774.93	0.758
775.11	0.778
775.29	0.786
775.47	0.786
775.65	0.796
775.83	0.809
776.01	0.832
776.19	0.793
776.37	0.794
776.55	0.794
776.73	0.791
776.91	0.789
777.09	0.774
777.27	0.768
777.45	0.760
777.63	0.741
777.81	0.736
777.99	0.721
778.17	0.717
778.35	0.700
778.53	0.687
778.71	0.692
778.89	0.681
779.07	0.671
779.24	0.676
779.42	0.674
779.60	0.688
779.78	0.688
779.96	0.693
780.14	0.701
780.32	0.719
780.50	0.704
780.68	0.703
780.86	0.695
781.04	0.710
781.22	0.717
781.40	0.726
781.58	0.718
781.75	0.710
781.93	0.694
782.11	0.692
782.29	0.678
782.47	0.678
782.65	0.669
782.83	0.694
783.01	0.690
783.19	0.683
783.37	0.670
783.55	0.673
783.72	0.691
783.90	0.700
784.08	0.693
784.26	0.703
784.44	0.722
784.62	0.724
784.80	0.695
784.98	0.700
785.16	0.705
785.33	0.720
785.51	0.708
785.69	0.693
785.87	0.693
786.05	0.707
786.23	0.703
786.41	0.699
786.59	0.706
786.77	0.706
786.94	0.693
787.12	0.695
787.30	0.695
787.48	0.693
787.66	0.685
787.84	0.684
788.02	0.673
788.19	0.671
788.37	0.661
788.55	0.660
788.73	0.660
788.91	0.656
789.09	0.642
789.27	0.633
789.44	0.642
789.62	0.647
789.80	0.656
789.98	0.680
790.16	0.669
790.34	0.665
790.51	0.654
790.69	0.672
790.87	0.676
791.05	0.674
791.23	0.669
791.41	0.670
791.58	0.675
791.76	0.656
791.94	0.629
792.12	0.637
792.30	0.638
792.48	0.637
792.65	0.632
792.83	0.639
793.01	0.644
793.19	0.641
793.37	0.628
793.54	0.627
793.72	0.638
793.90	0.636
794.08	0.626
794.26	0.627
794.43	0.635
794.61	0.617
794.79	0.605
794.97	0.606
795.15	0.612
795.32	0.616
795.50	0.607
795.68	0.601
795.86	0.605
796.04	0.607
796.21	0.602
796.39	0.599
796.57	0.612
796.75	0.621
796.92	0.621
797.10	0.623
797.28	0.623
797.46	0.624
797.64	0.628
797.81	0.635
797.99	0.638
798.17	0.642
798.35	0.638
798.52	0.640
798.70	0.635
798.88	0.644
799.06	0.644
799.23	0.646
799.41	0.656
799.59	0.647
799.77	0.636
799.94	0.643
800.12	0.650
800.30	0.667
800.48	0.667
800.65	0.667
800.83	0.656
801.01	0.648
801.19	0.650
801.36	0.644
801.54	0.647
801.72	0.660
801.90	0.648
802.07	0.644
802.25	0.630
802.43	0.615
802.60	0.612
802.78	0.620
802.96	0.625
803.14	0.620
803.31	0.620
803.49	0.621
803.67	0.615
803.84	0.620
804.02	0.614
804.20	0.617
804.38	0.620
804.55	0.619
804.73	0.606
804.91	0.605
805.08	0.616
805.26	0.610
805.44	0.673
805.61	0.674
805.79	0.673
805.97	0.675
806.15	0.669
806.32	0.665
806.50	0.671
806.68	0.672
806.85	0.664
807.03	0.654
807.21	0.670
807.38	0.604
807.56	0.593
807.74	0.601
807.91	0.604
808.09	0.606
808.27	0.623
808.44	0.645
808.62	0.653
808.80	0.655
808.97	0.652
809.15	0.648
809.33	0.662
809.50	0.670
809.68	0.658
809.86	0.666
810.03	0.695
810.21	0.676
810.39	0.662
810.56	0.667
810.74	0.688
810.91	0.754
811.09	0.744
811.27	0.766
811.44	0.771
811.62	0.773
811.80	0.756
811.97	0.726
812.15	0.727
812.33	0.723
812.50	0.711
812.68	0.700
812.85	0.646
813.03	0.647
813.21	0.616
813.38	0.611
813.56	0.613
813.74	0.623
813.91	0.629
814.09	0.656
814.26	0.649
814.44	0.651
814.62	0.641
814.79	0.647
814.97	0.650
815.14	0.656
815.32	0.660
815.50	0.674
815.67	0.676
815.85	0.669
816.02	0.659
816.20	0.664
816.38	0.675
816.55	0.681
816.73	0.679
816.90	0.690
817.08	0.716
817.26	0.722
817.43	0.705
817.61	0.728
817.78	0.744
817.96	0.725
818.13	0.718
818.31	0.721
818.49	0.731
818.66	0.721
818.84	0.709
819.01	0.690
819.19	0.691
819.36	0.691
819.54	0.664
819.71	0.702
819.89	0.715
820.07	0.725
820.24	0.721
820.42	0.722
820.59	0.740
820.77	0.760
820.94	0.755
821.12	0.776
821.29	0.788
821.47	0.788
821.64	0.730
821.82	0.743
822.00	0.742
822.17	0.739
822.35	0.732
822.52	0.735
822.70	0.726
822.87	0.733
823.05	0.712
823.22	0.723
823.40	0.746
823.57	0.767
823.75	0.752
823.92	0.770
824.10	0.787
824.27	0.825
824.45	0.819
824.62	0.870
824.80	0.882
824.97	0.895
825.15	0.889
825.32	0.906
825.50	0.908
825.67	0.910
825.85	0.895
826.02	0.908
826.20	0.922
826.37	1.030
826.55	0.965
826.72	1.130
826.90	1.191
827.07	1.241
827.25	1.186
827.42	1.327
827.60	1.476
827.77	1.628
827.95	1.608
828.12	1.688
828.30	1.355
828.47	1.449
828.65	1.155
828.82	1.202
829.00	1.237
829.17	1.311
829.34	1.303
829.52	1.324
829.69	-0.000
829.87	-0.000
830.04	-0.000
830.22	-0.000
830.39	-0.000
830.57	-0.000
830.74	-0.000
830.92	-0.000
831.09	-0.000
831.26	-0.000
831.44	-0.000
831.61	-0.000
831.79	-0.000
831.96	-0.000
832.14	-0.000
832.31	-0.000
832.49	-0.000
832.66	-0.000
832.83	-0.000
833.01	-0.000
833.18	-0.000
833.36	-0.000
833.53	-0.000
833.70	-0.000
833.88	-0.000
834.05	-0.000
834.23	-0.000
834.40	-0.000
834.58	-0.000
834.75	-0.000
834.92	-0.000
835.10	-0.000
835.27	-0.000
835.45	-0.000
835.62	-0.000
835.79	-0.000
835.97	-0.000
836.14	-0.000
836.32	-0.000
836.49	-0.000
836.66	-0.000
836.84	-0.000
837.01	-0.000
837.18	-0.000
837.36	-0.000
837.53	-0.000
837.71	-0.000
837.88	-0.000
838.05	-0.000
838.23	-0.000
838.40	-0.000
838.58	-0.000
838.75	-0.000
838.92	-0.000
839.10	-0.000
839.27	-0.000
839.44	-0.000
839.62	-0.000
839.79	-0.000
839.96	-0.000
840.14	-0.000
840.31	-0.000
840.48	-0.000
840.66	-0.000
840.83	-0.000
841.01	-0.000
841.18	-0.000
841.35	-0.000
841.53	-0.000
841.70	-0.000
841.87	-0.000
842.05	-0.000
842.22	-0.000
842.39	-0.000
842.57	-0.000
842.74	-0.000
842.91	-0.000
843.09	-0.000
843.26	-0.000
843.43	-0.000
843.60	-0.000
843.78	-0.000
843.95	-0.000
844.12	-0.000
844.30	-0.000
844.47	-0.000
844.64	-0.000
844.82	-0.000
844.99	-0.000
845.16	-0.000
845.34	-0.000
845.51	-0.000
845.68	-0.000
845.85	-0.000
846.03	-0.000
846.20	-0.000
846.37	-0.000
846.55	-0.000
846.72	-0.000
846.89	-0.000
847.06	-0.000
847.24	-0.000
847.41	-0.000
847.58	-0.000
847.76	-0.000
847.93	-0.000
848.10	-0.000
848.27	-0.000
848.45	-0.000
848.62	-0.000
848.79	-0.000
848.97	-0.000
849.14	-0.000
849.31	-0.000
849.48	-0.000
849.66	-0.000
849.83	-0.000
850.00	-0.000
850.17	-0.000
850.35	-0.000
850.52	-0.000
850.69	-0.000
850.86	-0.000
851.04	-0.000
851.21	-0.000
851.38	-0.000
851.55	-0.000
851.72	-0.000
851.90	-0.000
852.07	-0.000
852.24	-0.000
852.41	-0.000
852.59	-0.000
852.76	-0.000
852.93	-0.000
853.10	-0.000
853.28	-0.000
853.45	-0.000
853.62	-0.000
853.79	-0.000
853.96	-0.000
854.14	-0.000
854.31	-0.000
854.48	-0.000
854.65	-0.000
854.82	-0.000
855.00	-0.000
855.17	-0.000
855.34	-0.000
855.51	-0.000
855.68	-0.000
855.86	-0.000
856.03	-0.000
856.20	-0.000
856.37	-0.000
856.54	-0.000
856.72	-0.000
856.89	-0.000
857.06	-0.000
857.23	-0.000
857.40	-0.000
857.57	-0.000
857.75	-0.000
857.92	-0.000
858.09	-0.000
858.26	-0.000
858.43	-0.000
858.60	-0.000
858.78	-0.000
858.95	-0.000
859.12	-0.000
859.29	-0.000
859.46	-0.000
859.63	-0.000
859.81	-0.000
859.98	-0.000
860.15	-0.000
860.32	-0.000
860.49	-0.000
860.66	-0.000
860.83	-0.000
861.01	-0.000
861.18	-0.000
861.35	-0.000
861.52	-0.000
861.69	-0.000
861.86	-0.000
862.03	-0.000
862.21	-0.000
862.38	-0.000
862.55	-0.000
862.72	-0.000
862.89	-0.000
863.06	-0.000
863.23	-0.000
863.40	-0.000
863.58	-0.000
863.75	-0.000
863.92	-0.000
864.09	-0.000
864.26	-0.000
864.43	-0.000
864.60	-0.000
864.77	-0.000
864.94	-0.000
865.11	-0.000
865.29	-0.000
865.46	-0.000
865.63	-0.000
865.80	-0.000
865.97	-0.000
866.14	-0.000
866.31	-0.000
866.48	-0.000
866.65	-0.000
866.82	-0.000
866.99	-0.000
867.16	-0.000
867.34	-0.000
867.51	-0.000
867.68	-0.000
867.85	-0.000
868.02	-0.000
868.19	-0.000
868.36	-0.000
868.53	-0.000
868.70	-0.000
868.87	-0.000
869.04	-0.000
869.21	-0.000
869.38	-0.000
869.55	-0.000
869.72	-0.000
869.89	-0.000
870.06	-0.000
870.24	-0.000
870.41	-0.000
870.58	-0.000
870.75	-0.000
870.92	-0.000
871.09	-0.000
871.26	-0.000
871.43	-0.000
871.60	-0.000
871.77	-0.000
871.94	-0.000
872.11	-0.000
872.28	-0.000
872.45	-0.000
872.62	-0.000
872.79	-0.000
872.96	-0.000
873.13	-0.000
873.30	-0.000
873.47	-0.000
873.64	-0.000
873.81	-0.000
873.98	-0.000
874.15	-0.000
874.32	-0.000
874.49	-0.000
874.66	-0.000
874.83	-0.000
875.00	-0.000
875.17	-0.000
875.34	-0.000
875.51	-0.000
875.68	-0.000
875.85	-0.000
876.02	-0.000
876.19	-0.000
876.36	-0.000
876.53	-0.000
876.70	-0.000
876.87	-0.000
877.04	-0.000
877.21	-0.000
877.38	-0.000
877.55	-0.000
877.72	-0.000
877.89	-0.000
878.06	-0.000
878.23	-0.000
878.39	-0.000
878.56	-0.000
878.73	-0.000
878.90	-0.000
879.07	-0.000
879.24	-0.000
879.41	-0.000
879.58	-0.000
879.75	-0.000
879.92	-0.000
880.09	-0.000
880.26	-0.000
880.43	-0.000
880.60	-0.000
880.77	-0.000
880.94	-0.000
881.11	-0.000
881.27	-0.000
881.44	-0.000
881.61	-0.000
881.78	-0.000
881.95	-0.000
882.12	-0.000
882.29	-0.000
882.46	-0.000
882.63	-0.000
882.80	-0.000
882.97	-0.000
883.14	-0.000
883.30	-0.000
883.47	-0.000
883.64	-0.000
883.81	-0.000
883.98	-0.000
884.15	-0.000
884.32	-0.000
884.49	-0.000
884.66	-0.000
884.82	-0.000
884.99	-0.000
885.16	-0.000
885.33	-0.000
885.50	-0.000
885.67	-0.000
885.84	-0.000
886.01	-0.000
886.17	-0.000
886.34	-0.000
886.51	-0.000
886.68	-0.000
886.85	-0.000
887.02	-0.000
887.19	-0.000
887.36	-0.000
887.52	-0.000
887.69	-0.000
887.86	-0.000
888.03	-0.000
888.20	-0.000
888.37	-0.000
888.54	-0.000
888.70	-0.000
888.87	-0.000
889.04	-0.000
889.21	-0.000
889.38	-0.000
889.55	-0.000
889.71	-0.000
889.88	-0.000
890.05	-0.000
890.22	-0.000
890.39	-0.000
>>>>>End Processed Spectral Data<<<<<
