SpectraSuite Data File
++++++++++++++++++++++++++++++++++++
Date: Fri Jun 19 12:55:15 CEST 2015
User: introlabs
Dark Spectrum Present: Yes
Reference Spectrum Present: Yes
Number of Sampled Component Spectra: 1
Spectrometers: USB4H08886
Integration Time (usec): 745692 (USB4H08886)
Spectra Averaged: 5 (USB4H08886)
Boxcar Smoothing: 5 (USB4H08886)
Correct for Electrical Dark: Yes (USB4H08886)
Strobe/Lamp Enabled: No (USB4H08886)
Correct for Detector Non-linearity: Yes (USB4H08886)
Correct for Stray Light: Yes (USB4H08886)
Number of Pixels in Processed Spectrum: 3648
>>>>>Begin Processed Spectral Data<<<<<
178.14	-0.000
178.36	-0.000
178.57	-0.000
178.79	-0.000
179.01	-0.000
179.22	-0.000
179.44	-0.000
179.65	-0.000
179.87	-0.000
180.08	-0.000
180.30	-0.000
180.52	-0.000
180.73	-0.000
180.95	-0.000
181.16	-0.000
181.38	-0.000
181.59	-0.000
181.81	-0.000
182.03	-0.000
182.24	-0.000
182.46	-0.000
182.67	-0.000
182.89	-0.000
183.10	-0.000
183.32	-0.000
183.54	-0.000
183.75	-0.000
183.97	-0.000
184.18	-0.000
184.40	-0.000
184.61	-0.000
184.83	-0.000
185.04	-0.000
185.26	-0.000
185.48	-0.000
185.69	-0.000
185.91	-0.000
186.12	-0.000
186.34	-0.000
186.55	-0.000
186.77	-0.000
186.98	-0.000
187.20	-0.000
187.42	-0.000
187.63	-0.000
187.85	-0.000
188.06	-0.000
188.28	-0.000
188.49	-0.000
188.71	-0.000
188.92	-0.000
189.14	-0.000
189.36	-0.000
189.57	-0.000
189.79	-0.000
190.00	-0.000
190.22	-0.000
190.43	-0.000
190.65	-0.000
190.86	-0.000
191.08	-0.000
191.29	-0.000
191.51	-0.000
191.72	-0.000
191.94	-0.000
192.16	-0.000
192.37	-0.000
192.59	-0.000
192.80	-0.000
193.02	-0.000
193.23	-0.000
193.45	-0.000
193.66	-0.000
193.88	-0.000
194.09	-0.000
194.31	-0.000
194.52	-0.000
194.74	-0.000
194.95	-0.000
195.17	-0.000
195.38	-0.000
195.60	-0.000
195.81	-0.000
196.03	-0.000
196.25	-0.000
196.46	-0.000
196.68	-0.000
196.89	-0.000
197.11	-0.000
197.32	-0.000
197.54	-0.000
197.75	-0.000
197.97	-0.000
198.18	-0.000
198.40	-0.000
198.61	-0.000
198.83	-0.000
199.04	-0.000
199.26	-0.000
199.47	-0.000
199.69	-0.000
199.90	-0.000
200.12	-0.000
200.33	-0.000
200.55	-0.000
200.76	-0.000
200.98	-0.000
201.19	-0.000
201.41	-0.000
201.62	-0.000
201.84	-0.000
202.05	-0.000
202.27	-0.000
202.48	-0.000
202.70	-0.000
202.91	-0.000
203.13	-0.000
203.34	-0.000
203.56	-0.000
203.77	-0.000
203.99	-0.000
204.20	-0.000
204.42	-0.000
204.63	-0.000
204.85	-0.000
205.06	-0.000
205.28	-0.000
205.49	-0.000
205.71	-0.000
205.92	-0.000
206.14	-0.000
206.35	-0.000
206.56	-0.000
206.78	-0.000
206.99	-0.000
207.21	-0.000
207.42	-0.000
207.64	-0.000
207.85	-0.000
208.07	-0.000
208.28	-0.000
208.50	-0.000
208.71	-0.000
208.93	-0.000
209.14	-0.000
209.36	-0.000
209.57	-0.000
209.79	-0.000
210.00	-0.000
210.22	-0.000
210.43	-0.000
210.64	-0.000
210.86	-0.000
211.07	-0.000
211.29	-0.000
211.50	-0.000
211.72	-0.000
211.93	-0.000
212.15	-0.000
212.36	-0.000
212.58	-0.000
212.79	-0.000
213.01	-0.000
213.22	-0.000
213.43	-0.000
213.65	-0.000
213.86	-0.000
214.08	-0.000
214.29	-0.000
214.51	-0.000
214.72	-0.000
214.94	-0.000
215.15	-0.000
215.36	-0.000
215.58	-0.000
215.79	-0.000
216.01	-0.000
216.22	-0.000
216.44	-0.000
216.65	-0.000
216.87	-0.000
217.08	-0.000
217.29	-0.000
217.51	-0.000
217.72	-0.000
217.94	-0.000
218.15	-0.000
218.37	-0.000
218.58	-0.000
218.80	-0.000
219.01	-0.000
219.22	-0.000
219.44	-0.000
219.65	-0.000
219.87	-0.000
220.08	-0.000
220.30	-0.000
220.51	-0.000
220.72	-0.000
220.94	-0.000
221.15	-0.000
221.37	-0.000
221.58	-0.000
221.79	-0.000
222.01	-0.000
222.22	-0.000
222.44	-0.000
222.65	-0.000
222.87	-0.000
223.08	-0.000
223.29	-0.000
223.51	-0.000
223.72	-0.000
223.94	-0.000
224.15	-0.000
224.36	-0.000
224.58	-0.000
224.79	-0.000
225.01	-0.000
225.22	-0.000
225.44	-0.000
225.65	-0.000
225.86	-0.000
226.08	-0.000
226.29	-0.000
226.51	-0.000
226.72	-0.000
226.93	-0.000
227.15	-0.000
227.36	-0.000
227.58	-0.000
227.79	-0.000
228.00	-0.000
228.22	-0.000
228.43	-0.000
228.65	-0.000
228.86	-0.000
229.07	-0.000
229.29	-0.000
229.50	-0.000
229.72	-0.000
229.93	-0.000
230.14	-0.000
230.36	-0.000
230.57	-0.000
230.78	-0.000
231.00	-0.000
231.21	-0.000
231.43	-0.000
231.64	-0.000
231.85	-0.000
232.07	-0.000
232.28	-0.000
232.50	-0.000
232.71	-0.000
232.92	-0.000
233.14	-0.000
233.35	-0.000
233.56	-0.000
233.78	-0.000
233.99	-0.000
234.21	-0.000
234.42	-0.000
234.63	-0.000
234.85	-0.000
235.06	-0.000
235.27	-0.000
235.49	-0.000
235.70	-0.000
235.91	-0.000
236.13	-0.000
236.34	-0.000
236.56	-0.000
236.77	-0.000
236.98	-0.000
237.20	-0.000
237.41	-0.000
237.62	-0.000
237.84	-0.000
238.05	-0.000
238.26	-0.000
238.48	-0.000
238.69	-0.000
238.91	-0.000
239.12	-0.000
239.33	-0.000
239.55	-0.000
239.76	-0.000
239.97	-0.000
240.19	-0.000
240.40	-0.000
240.61	-0.000
240.83	-0.000
241.04	-0.000
241.25	-0.000
241.47	-0.000
241.68	-0.000
241.89	-0.000
242.11	-0.000
242.32	-0.000
242.53	-0.000
242.75	-0.000
242.96	-0.000
243.17	-0.000
243.39	-0.000
243.60	-0.000
243.81	-0.000
244.03	-0.000
244.24	-0.000
244.45	-0.000
244.67	-0.000
244.88	-0.000
245.09	-0.000
245.31	-0.000
245.52	-0.000
245.73	-0.000
245.95	-0.000
246.16	-0.000
246.37	-0.000
246.59	-0.000
246.80	-0.000
247.01	-0.000
247.23	-0.000
247.44	-0.000
247.65	-0.000
247.87	-0.000
248.08	-0.000
248.29	-0.000
248.51	-0.000
248.72	-0.000
248.93	-0.000
249.15	-0.000
249.36	-0.000
249.57	-0.000
249.78	-0.000
250.00	-0.000
250.21	-0.000
250.42	-0.000
250.64	-0.000
250.85	-0.000
251.06	-0.000
251.28	-0.000
251.49	-0.000
251.70	-0.000
251.92	-0.000
252.13	-0.000
252.34	-0.000
252.55	-0.000
252.77	-0.000
252.98	-0.000
253.19	-0.000
253.41	-0.000
253.62	-0.000
253.83	-0.000
254.05	-0.000
254.26	-0.000
254.47	-0.000
254.68	-0.000
254.90	-0.000
255.11	-0.000
255.32	-0.000
255.54	-0.000
255.75	-0.000
255.96	-0.000
256.17	-0.000
256.39	-0.000
256.60	-0.000
256.81	-0.000
257.03	-0.000
257.24	-0.000
257.45	-0.000
257.66	-0.000
257.88	-0.000
258.09	-0.000
258.30	-0.000
258.51	-0.000
258.73	-0.000
258.94	-0.000
259.15	-0.000
259.37	-0.000
259.58	-0.000
259.79	-0.000
260.00	-0.000
260.22	-0.000
260.43	-0.000
260.64	-0.000
260.85	-0.000
261.07	-0.000
261.28	-0.000
261.49	-0.000
261.71	-0.000
261.92	-0.000
262.13	-0.000
262.34	-0.000
262.56	-0.000
262.77	-0.000
262.98	-0.000
263.19	-0.000
263.41	-0.000
263.62	-0.000
263.83	-0.000
264.04	-0.000
264.26	-0.000
264.47	-0.000
264.68	-0.000
264.89	-0.000
265.11	-0.000
265.32	-0.000
265.53	-0.000
265.74	-0.000
265.96	-0.000
266.17	-0.000
266.38	-0.000
266.59	-0.000
266.81	-0.000
267.02	-0.000
267.23	-0.000
267.44	-0.000
267.65	-0.000
267.87	-0.000
268.08	-0.000
268.29	-0.000
268.50	-0.000
268.72	-0.000
268.93	-0.000
269.14	-0.000
269.35	-0.000
269.57	-0.000
269.78	-0.000
269.99	-0.000
270.20	-0.000
270.41	-0.000
270.63	-0.000
270.84	-0.000
271.05	-0.000
271.26	-0.000
271.48	-0.000
271.69	-0.000
271.90	-0.000
272.11	-0.000
272.32	-0.000
272.54	-0.000
272.75	-0.000
272.96	-0.000
273.17	-0.000
273.39	-0.000
273.60	-0.000
273.81	-0.000
274.02	-0.000
274.23	-0.000
274.45	-0.000
274.66	-0.000
274.87	-0.000
275.08	-0.000
275.29	-0.000
275.51	-0.000
275.72	-0.000
275.93	-0.000
276.14	-0.000
276.35	-0.000
276.57	-0.000
276.78	-0.000
276.99	-0.000
277.20	-0.000
277.41	-0.000
277.63	-0.000
277.84	-0.000
278.05	-0.000
278.26	-0.000
278.47	-0.000
278.69	-0.000
278.90	-0.000
279.11	-0.000
279.32	-0.000
279.53	-0.000
279.74	-0.000
279.96	-0.000
280.17	-0.000
280.38	-0.000
280.59	-0.000
280.80	-0.000
281.02	-0.000
281.23	-0.000
281.44	-0.000
281.65	-0.000
281.86	-0.000
282.07	-0.000
282.29	-0.000
282.50	-0.000
282.71	-0.000
282.92	-0.000
283.13	-0.000
283.35	-0.000
283.56	-0.000
283.77	-0.000
283.98	-0.000
284.19	-0.000
284.40	-0.000
284.62	-0.000
284.83	-0.000
285.04	-0.000
285.25	-0.000
285.46	-0.000
285.67	-0.000
285.88	-0.000
286.10	-0.000
286.31	-0.000
286.52	-0.000
286.73	-0.000
286.94	-0.000
287.15	-0.000
287.37	-0.000
287.58	-0.000
287.79	-0.000
288.00	-0.000
288.21	-0.000
288.42	-0.000
288.63	-0.000
288.85	-0.000
289.06	-0.000
289.27	-0.000
289.48	-0.000
289.69	-0.000
289.90	-0.000
290.11	-0.000
290.33	-0.000
290.54	-0.000
290.75	-0.000
290.96	-0.000
291.17	-0.000
291.38	-0.000
291.59	-0.000
291.81	-0.000
292.02	-0.000
292.23	-0.000
292.44	-0.000
292.65	-0.000
292.86	-0.000
293.07	-0.000
293.28	-0.000
293.50	-0.000
293.71	-0.000
293.92	-0.000
294.13	-0.000
294.34	-0.000
294.55	-0.000
294.76	-0.000
294.97	-0.000
295.19	-0.000
295.40	-0.000
295.61	-0.000
295.82	-0.000
296.03	-0.000
296.24	-0.000
296.45	-0.000
296.66	2.934
296.87	2.992
297.09	-0.000
297.30	-0.000
297.51	2.186
297.72	2.061
297.93	2.417
298.14	2.237
298.35	2.077
298.56	2.018
298.77	2.449
298.99	2.346
299.20	2.207
299.41	2.127
299.62	2.052
299.83	2.022
300.04	1.866
300.25	1.831
300.46	1.933
300.67	1.874
300.88	1.756
301.10	1.752
301.31	1.887
301.52	1.763
301.73	1.662
301.94	1.655
302.15	1.691
302.36	1.612
302.57	1.516
302.78	1.531
302.99	1.599
303.20	1.628
303.41	1.502
303.63	1.476
303.84	1.499
304.05	1.492
304.26	1.415
304.47	1.419
304.68	1.432
304.89	1.425
305.10	1.362
305.31	1.343
305.52	1.392
305.73	1.379
305.94	1.328
306.15	1.315
306.37	1.343
306.58	1.350
306.79	1.310
307.00	1.333
307.21	1.385
307.42	1.375
307.63	1.331
307.84	1.293
308.05	1.340
308.26	1.338
308.47	1.308
308.68	1.302
308.89	1.304
309.10	1.299
309.31	1.250
309.52	1.236
309.73	1.256
309.95	1.247
310.16	1.216
310.37	1.203
310.58	1.227
310.79	1.223
311.00	1.215
311.21	1.215
311.42	1.221
311.63	1.215
311.84	1.193
312.05	1.191
312.26	1.220
312.47	1.231
312.68	1.202
312.89	1.183
313.10	1.195
313.31	1.167
313.52	1.166
313.73	1.167
313.94	1.174
314.15	1.153
314.36	1.128
314.57	1.119
314.78	1.106
314.99	1.102
315.21	1.085
315.42	1.086
315.63	1.101
315.84	1.078
316.05	1.060
316.26	1.068
316.47	1.088
316.68	1.083
316.89	1.060
317.10	1.081
317.31	1.086
317.52	1.090
317.73	1.066
317.94	1.067
318.15	1.113
318.36	1.114
318.57	1.092
318.78	1.079
318.99	1.118
319.20	1.114
319.41	1.077
319.62	1.079
319.83	1.093
320.04	1.088
320.25	1.070
320.46	1.036
320.67	1.040
320.88	1.035
321.09	1.019
321.30	1.003
321.51	1.019
321.72	1.018
321.93	1.000
322.14	0.991
322.35	1.019
322.56	1.020
322.77	1.007
322.98	1.017
323.19	1.029
323.40	1.035
323.61	1.011
323.82	1.006
324.03	1.013
324.24	1.009
324.45	0.995
324.66	0.977
324.87	0.975
325.08	0.973
325.29	0.952
325.50	0.944
325.71	0.952
325.92	0.960
326.13	0.945
326.34	0.944
326.55	0.953
326.76	0.951
326.97	0.937
327.18	0.932
327.39	0.958
327.60	0.960
327.80	0.955
328.01	0.952
328.22	0.954
328.43	0.957
328.64	0.945
328.85	0.949
329.06	0.952
329.27	0.952
329.48	0.947
329.69	0.927
329.90	0.936
330.11	0.932
330.32	0.924
330.53	0.916
330.74	0.917
330.95	0.914
331.16	0.899
331.37	0.907
331.58	0.908
331.79	0.906
332.00	0.897
332.21	0.891
332.42	0.895
332.63	0.887
332.83	0.881
333.04	0.884
333.25	0.898
333.46	0.896
333.67	0.881
333.88	0.884
334.09	0.894
334.30	0.890
334.51	0.881
334.72	0.877
334.93	0.881
335.14	0.880
335.35	0.871
335.56	0.867
335.77	0.876
335.98	0.874
336.18	0.866
336.39	0.860
336.60	0.866
336.81	0.864
337.02	0.862
337.23	0.868
337.44	0.872
337.65	0.874
337.86	0.863
338.07	0.859
338.28	0.865
338.49	0.864
338.70	0.855
338.91	0.861
339.11	0.869
339.32	0.864
339.53	0.851
339.74	0.847
339.95	0.845
340.16	0.842
340.37	0.834
340.58	0.833
340.79	0.837
341.00	0.837
341.21	0.827
341.41	0.827
341.62	0.829
341.83	0.832
342.04	0.826
342.25	0.837
342.46	0.842
342.67	0.841
342.88	0.832
343.09	0.831
343.30	0.839
343.50	0.842
343.71	0.831
343.92	0.830
344.13	0.834
344.34	0.834
344.55	0.816
344.76	0.815
344.97	0.820
345.18	0.819
345.38	0.815
345.59	0.809
345.80	0.809
346.01	0.807
346.22	0.802
346.43	0.796
346.64	0.806
346.85	0.806
347.06	0.798
347.26	0.798
347.47	0.804
347.68	0.799
347.89	0.796
348.10	0.791
348.31	0.798
348.52	0.798
348.73	0.794
348.93	0.790
349.14	0.794
349.35	0.794
349.56	0.787
349.77	0.782
349.98	0.788
350.19	0.785
350.39	0.779
350.60	0.776
350.81	0.791
351.02	0.790
351.23	0.785
351.44	0.787
351.65	0.791
351.86	0.789
352.06	0.787
352.27	0.787
352.48	0.790
352.69	0.790
352.90	0.784
353.11	0.771
353.31	0.778
353.52	0.774
353.73	0.766
353.94	0.768
354.15	0.774
354.36	0.774
354.57	0.765
354.77	0.768
354.98	0.767
355.19	0.767
355.40	0.765
355.61	0.771
355.82	0.776
356.02	0.776
356.23	0.769
356.44	0.770
356.65	0.774
356.86	0.775
357.07	0.768
357.27	0.771
357.48	0.776
357.69	0.772
357.90	0.756
358.11	0.752
358.32	0.757
358.52	0.759
358.73	0.748
358.94	0.751
359.15	0.755
359.36	0.755
359.56	0.750
359.77	0.746
359.98	0.754
360.19	0.754
360.40	0.750
360.61	0.750
360.81	0.750
361.02	0.750
361.23	0.741
361.44	0.740
361.65	0.740
361.85	0.740
362.06	0.738
362.27	0.739
362.48	0.740
362.69	0.741
362.89	0.736
363.10	0.737
363.31	0.742
363.52	0.746
363.73	0.740
363.93	0.742
364.14	0.745
364.35	0.747
364.56	0.736
364.77	0.738
364.97	0.741
365.18	0.742
365.39	0.736
365.60	0.733
365.81	0.735
366.01	0.735
366.22	0.731
366.43	0.730
366.64	0.733
366.84	0.739
367.05	0.735
367.26	0.735
367.47	0.737
367.68	0.736
367.88	0.733
368.09	0.730
368.30	0.733
368.51	0.733
368.71	0.731
368.92	0.734
369.13	0.732
369.34	0.731
369.55	0.730
369.75	0.731
369.96	0.739
370.17	0.738
370.38	0.735
370.58	0.734
370.79	0.739
371.00	0.739
371.21	0.730
371.41	0.735
371.62	0.740
371.83	0.735
372.04	0.732
372.24	0.725
372.45	0.726
372.66	0.726
372.87	0.722
373.07	0.719
373.28	0.721
373.49	0.724
373.70	0.714
373.90	0.714
374.11	0.723
374.32	0.722
374.53	0.721
374.73	0.722
374.94	0.725
375.15	0.725
375.36	0.721
375.56	0.729
375.77	0.730
375.98	0.730
376.19	0.727
376.39	0.720
376.60	0.725
376.81	0.724
377.02	0.721
377.22	0.720
377.43	0.720
377.64	0.720
377.84	0.711
378.05	0.715
378.26	0.722
378.47	0.722
378.67	0.719
378.88	0.715
379.09	0.717
379.30	0.718
379.50	0.715
379.71	0.717
379.92	0.720
380.12	0.719
380.33	0.711
380.54	0.707
380.75	0.713
380.95	0.714
381.16	0.711
381.37	0.712
381.57	0.713
381.78	0.714
381.99	0.713
382.20	0.713
382.40	0.717
382.61	0.717
382.82	0.713
383.02	0.706
383.23	0.710
383.44	0.710
383.64	0.707
383.85	0.709
384.06	0.711
384.27	0.708
384.47	0.705
384.68	0.705
384.89	0.711
385.09	0.710
385.30	0.709
385.51	0.708
385.71	0.711
385.92	0.711
386.13	0.710
386.33	0.712
386.54	0.713
386.75	0.713
386.95	0.708
387.16	0.703
387.37	0.706
387.58	0.706
387.78	0.703
387.99	0.701
388.20	0.704
388.40	0.700
388.61	0.696
388.82	0.698
389.02	0.701
389.23	0.701
389.44	0.699
389.64	0.699
389.85	0.710
390.06	0.710
390.26	0.710
390.47	0.709
390.68	0.711
390.88	0.709
391.09	0.705
391.30	0.705
391.50	0.705
391.71	0.704
391.92	0.701
392.12	0.693
392.33	0.694
392.53	0.694
392.74	0.693
392.95	0.693
393.15	0.696
393.36	0.697
393.57	0.694
393.77	0.698
393.98	0.700
394.19	0.700
394.39	0.699
394.60	0.700
394.81	0.702
395.01	0.700
395.22	0.698
395.43	0.699
395.63	0.703
395.84	0.705
396.04	0.700
396.25	0.702
396.46	0.704
396.66	0.702
396.87	0.699
397.08	0.696
397.28	0.698
397.49	0.699
397.69	0.695
397.90	0.690
398.11	0.691
398.31	0.692
398.52	0.687
398.73	0.688
398.93	0.687
399.14	0.687
399.34	0.685
399.55	0.686
399.76	0.687
399.96	0.688
400.17	0.686
400.37	0.684
400.58	0.691
400.79	0.692
400.99	0.690
401.20	0.695
401.41	0.698
401.61	0.698
401.82	0.702
402.02	0.701
402.23	0.703
402.44	0.701
402.64	0.701
402.85	0.695
403.05	0.694
403.26	0.693
403.47	0.687
403.67	0.686
403.88	0.687
404.08	0.682
404.29	0.680
404.50	0.679
404.70	0.680
404.91	0.678
405.11	0.675
405.32	0.676
405.52	0.676
405.73	0.676
405.94	0.673
406.14	0.676
406.35	0.678
406.55	0.678
406.76	0.675
406.97	0.676
407.17	0.679
407.38	0.679
407.58	0.677
407.79	0.680
407.99	0.683
408.20	0.684
408.41	0.679
408.61	0.676
408.82	0.678
409.02	0.678
409.23	0.675
409.43	0.674
409.64	0.676
409.84	0.675
410.05	0.671
410.26	0.669
410.46	0.669
410.67	0.668
410.87	0.670
411.08	0.672
411.28	0.673
411.49	0.675
411.69	0.672
411.90	0.674
412.11	0.676
412.31	0.677
412.52	0.676
412.72	0.677
412.93	0.678
413.13	0.676
413.34	0.672
413.54	0.673
413.75	0.675
413.95	0.673
414.16	0.670
414.37	0.672
414.57	0.672
414.78	0.675
414.98	0.673
415.19	0.674
415.39	0.672
415.60	0.675
415.80	0.674
416.01	0.672
416.21	0.675
416.42	0.675
416.62	0.670
416.83	0.671
417.03	0.671
417.24	0.671
417.44	0.668
417.65	0.668
417.86	0.668
418.06	0.666
418.27	0.665
418.47	0.666
418.68	0.667
418.88	0.667
419.09	0.665
419.29	0.666
419.50	0.667
419.70	0.666
419.91	0.665
420.11	0.663
420.32	0.666
420.52	0.665
420.73	0.664
420.93	0.664
421.14	0.667
421.34	0.665
421.55	0.662
421.75	0.661
421.96	0.663
422.16	0.663
422.37	0.662
422.57	0.659
422.78	0.661
422.98	0.657
423.19	0.655
423.39	0.653
423.60	0.657
423.80	0.659
424.01	0.657
424.21	0.659
424.42	0.660
424.62	0.660
424.83	0.659
425.03	0.660
425.23	0.663
425.44	0.663
425.64	0.663
425.85	0.662
426.05	0.663
426.26	0.664
426.46	0.661
426.67	0.660
426.87	0.665
427.08	0.665
427.28	0.663
427.49	0.663
427.69	0.665
427.90	0.664
428.10	0.660
428.31	0.660
428.51	0.662
428.71	0.661
428.92	0.662
429.12	0.660
429.33	0.661
429.53	0.664
429.74	0.668
429.94	0.669
430.15	0.668
430.35	0.669
430.56	0.666
430.76	0.665
430.96	0.666
431.17	0.664
431.37	0.661
431.58	0.660
431.78	0.657
431.99	0.650
432.19	0.652
432.40	0.654
432.60	0.655
432.80	0.657
433.01	0.655
433.21	0.656
433.42	0.657
433.62	0.658
433.83	0.658
434.03	0.660
434.23	0.664
434.44	0.662
434.64	0.660
434.85	0.665
435.05	0.666
435.26	0.666
435.46	0.665
435.66	0.665
435.87	0.665
436.07	0.665
436.28	0.661
436.48	0.658
436.69	0.658
436.89	0.658
437.09	0.653
437.30	0.652
437.50	0.653
437.71	0.665
437.91	0.664
438.11	0.665
438.32	0.669
438.52	0.669
438.73	0.668
438.93	0.666
439.13	0.666
439.34	0.669
439.54	0.667
439.75	0.666
439.95	0.657
440.15	0.661
440.36	0.659
440.56	0.657
440.77	0.658
440.97	0.659
441.17	0.658
441.38	0.659
441.58	0.657
441.79	0.656
441.99	0.655
442.19	0.654
442.40	0.652
442.60	0.652
442.81	0.650
443.01	0.650
443.21	0.650
443.42	0.650
443.62	0.648
443.82	0.648
444.03	0.650
444.23	0.650
444.44	0.650
444.64	0.649
444.84	0.651
445.05	0.651
445.25	0.649
445.45	0.649
445.66	0.652
445.86	0.651
446.06	0.653
446.27	0.652
446.47	0.655
446.68	0.654
446.88	0.652
447.08	0.651
447.29	0.654
447.49	0.654
447.69	0.654
447.90	0.652
448.10	0.657
448.30	0.654
448.51	0.655
448.71	0.653
448.91	0.655
449.12	0.655
449.32	0.656
449.52	0.655
449.73	0.660
449.93	0.658
450.14	0.659
450.34	0.658
450.54	0.660
450.75	0.657
450.95	0.657
451.15	0.657
451.36	0.660
451.56	0.656
451.76	0.654
451.97	0.651
452.17	0.652
452.37	0.651
452.58	0.647
452.78	0.647
452.98	0.650
453.19	0.649
453.39	0.649
453.59	0.648
453.79	0.649
454.00	0.650
454.20	0.649
454.40	0.649
454.61	0.652
454.81	0.652
455.01	0.650
455.22	0.651
455.42	0.654
455.62	0.652
455.83	0.652
456.03	0.654
456.23	0.656
456.44	0.657
456.64	0.655
456.84	0.655
457.04	0.656
457.25	0.656
457.45	0.652
457.65	0.651
457.86	0.652
458.06	0.650
458.26	0.645
458.47	0.645
458.67	0.646
458.87	0.647
459.07	0.644
459.28	0.646
459.48	0.649
459.68	0.649
459.89	0.648
460.09	0.648
460.29	0.650
460.49	0.651
460.70	0.650
460.90	0.650
461.10	0.651
461.31	0.651
461.51	0.648
461.71	0.649
461.91	0.651
462.12	0.650
462.32	0.648
462.52	0.649
462.72	0.652
462.93	0.652
463.13	0.650
463.33	0.651
463.53	0.653
463.74	0.653
463.94	0.648
464.14	0.648
464.35	0.651
464.55	0.652
464.75	0.650
464.95	0.648
465.16	0.650
465.36	0.649
465.56	0.648
465.76	0.647
465.97	0.647
466.17	0.648
466.37	0.646
466.57	0.647
466.78	0.648
466.98	0.647
467.18	0.645
467.38	0.643
467.59	0.645
467.79	0.646
467.99	0.645
468.19	0.647
468.39	0.650
468.60	0.651
468.80	0.648
469.00	0.650
469.20	0.652
469.41	0.652
469.61	0.651
469.81	0.652
470.01	0.651
470.22	0.651
470.42	0.649
470.62	0.646
470.82	0.648
471.02	0.647
471.23	0.644
471.43	0.645
471.63	0.647
471.83	0.646
472.04	0.644
472.24	0.643
472.44	0.649
472.64	0.649
472.84	0.646
473.05	0.646
473.25	0.649
473.45	0.648
473.65	0.645
473.85	0.647
474.06	0.649
474.26	0.649
474.46	0.650
474.66	0.646
474.86	0.647
475.07	0.648
475.27	0.646
475.47	0.643
475.67	0.645
475.87	0.647
476.08	0.643
476.28	0.644
476.48	0.645
476.68	0.644
476.88	0.642
477.09	0.643
477.29	0.645
477.49	0.645
477.69	0.644
477.89	0.644
478.09	0.643
478.30	0.646
478.50	0.643
478.70	0.643
478.90	0.643
479.10	0.646
479.31	0.647
479.51	0.645
479.71	0.646
479.91	0.646
480.11	0.645
480.31	0.645
480.52	0.644
480.72	0.644
480.92	0.643
481.12	0.642
481.32	0.639
481.52	0.637
481.72	0.637
481.93	0.640
482.13	0.641
482.33	0.641
482.53	0.638
482.73	0.639
482.93	0.640
483.14	0.639
483.34	0.639
483.54	0.640
483.74	0.639
483.94	0.638
484.14	0.634
484.34	0.634
484.55	0.634
484.75	0.634
484.95	0.633
485.15	0.632
485.35	0.633
485.55	0.632
485.75	0.631
485.96	0.631
486.16	0.632
486.36	0.632
486.56	0.630
486.76	0.630
486.96	0.631
487.16	0.631
487.36	0.629
487.57	0.629
487.77	0.630
487.97	0.630
488.17	0.629
488.37	0.628
488.57	0.629
488.77	0.629
488.97	0.627
489.18	0.627
489.38	0.629
489.58	0.629
489.78	0.629
489.98	0.628
490.18	0.628
490.38	0.629
490.58	0.627
490.78	0.628
490.98	0.630
491.19	0.630
491.39	0.629
491.59	0.628
491.79	0.631
491.99	0.631
492.19	0.630
492.39	0.633
492.59	0.633
492.79	0.636
492.99	0.636
493.20	0.636
493.40	0.636
493.60	0.637
493.80	0.635
494.00	0.633
494.20	0.634
494.40	0.634
494.60	0.631
494.80	0.636
495.00	0.635
495.20	0.633
495.40	0.632
495.61	0.634
495.81	0.634
496.01	0.638
496.21	0.638
496.41	0.637
496.61	0.638
496.81	0.637
497.01	0.632
497.21	0.632
497.41	0.632
497.61	0.632
497.81	0.629
498.01	0.630
498.21	0.628
498.41	0.626
498.61	0.626
498.82	0.628
499.02	0.630
499.22	0.631
499.42	0.630
499.62	0.631
499.82	0.632
500.02	0.634
500.22	0.632
500.42	0.634
500.62	0.635
500.82	0.635
501.02	0.633
501.22	0.632
501.42	0.632
501.62	0.635
501.82	0.635
502.02	0.635
502.22	0.634
502.42	0.637
502.62	0.634
502.82	0.634
503.02	0.635
503.22	0.635
503.42	0.633
503.63	0.633
503.83	0.631
504.03	0.630
504.23	0.628
504.43	0.629
504.63	0.630
504.83	0.630
505.03	0.628
505.23	0.630
505.43	0.632
505.63	0.633
505.83	0.632
506.03	0.634
506.23	0.637
506.43	0.638
506.63	0.636
506.83	0.634
507.03	0.637
507.23	0.637
507.43	0.634
507.63	0.635
507.83	0.635
508.03	0.635
508.23	0.634
508.43	0.632
508.63	0.634
508.83	0.634
509.03	0.635
509.23	0.634
509.43	0.635
509.63	0.635
509.83	0.633
510.03	0.636
510.23	0.639
510.43	0.639
510.63	0.639
510.83	0.639
511.03	0.641
511.23	0.638
511.43	0.638
511.63	0.639
511.83	0.641
512.03	0.641
512.22	0.638
512.42	0.637
512.62	0.638
512.82	0.638
513.02	0.637
513.22	0.637
513.42	0.639
513.62	0.642
513.82	0.639
514.02	0.639
514.22	0.641
514.42	0.641
514.62	0.640
514.82	0.641
515.02	0.644
515.22	0.647
515.42	0.646
515.62	0.648
515.82	0.648
516.02	0.649
516.22	0.648
516.42	0.650
516.62	0.652
516.82	0.653
517.01	0.651
517.21	0.650
517.41	0.654
517.61	0.654
517.81	0.651
518.01	0.650
518.21	0.650
518.41	0.648
518.61	0.647
518.81	0.647
519.01	0.648
519.21	0.649
519.41	0.648
519.61	0.642
519.81	0.645
520.00	0.645
520.20	0.645
520.40	0.647
520.60	0.649
520.80	0.648
521.00	0.648
521.20	0.649
521.40	0.654
521.60	0.655
521.80	0.654
522.00	0.654
522.20	0.657
522.39	0.656
522.59	0.653
522.79	0.654
522.99	0.657
523.19	0.655
523.39	0.652
523.59	0.650
523.79	0.653
523.99	0.656
524.19	0.654
524.38	0.652
524.58	0.655
524.78	0.655
524.98	0.653
525.18	0.655
525.38	0.657
525.58	0.658
525.78	0.656
525.98	0.654
526.18	0.654
526.37	0.654
526.57	0.655
526.77	0.655
526.97	0.655
527.17	0.655
527.37	0.652
527.57	0.654
527.77	0.655
527.96	0.655
528.16	0.654
528.36	0.655
528.56	0.657
528.76	0.655
528.96	0.654
529.16	0.655
529.36	0.659
529.55	0.658
529.75	0.655
529.95	0.655
530.15	0.657
530.35	0.660
530.55	0.657
530.75	0.658
530.94	0.660
531.14	0.660
531.34	0.658
531.54	0.656
531.74	0.660
531.94	0.662
532.13	0.660
532.33	0.661
532.53	0.660
532.73	0.660
532.93	0.657
533.13	0.658
533.33	0.659
533.52	0.659
533.72	0.662
533.92	0.660
534.12	0.659
534.32	0.659
534.52	0.658
534.71	0.660
534.91	0.663
535.11	0.665
535.31	0.662
535.51	0.665
535.71	0.667
535.90	0.664
536.10	0.665
536.30	0.667
536.50	0.669
536.70	0.668
536.89	0.666
537.09	0.665
537.29	0.666
537.49	0.667
537.69	0.664
537.89	0.664
538.08	0.664
538.28	0.662
538.48	0.662
538.68	0.664
538.88	0.666
539.07	0.666
539.27	0.664
539.47	0.663
539.67	0.664
539.87	0.665
540.06	0.663
540.26	0.664
540.46	0.667
540.66	0.664
540.86	0.662
541.05	0.662
541.25	0.664
541.45	0.664
541.65	0.662
541.84	0.665
542.04	0.666
542.24	0.667
542.44	0.664
542.64	0.665
542.83	0.668
543.03	0.668
543.23	0.665
543.43	0.666
543.62	0.668
543.82	0.669
544.02	0.668
544.22	0.667
544.42	0.671
544.61	0.672
544.81	0.668
545.01	0.667
545.21	0.670
545.40	0.670
545.60	0.667
545.80	0.670
546.00	0.671
546.19	0.670
546.39	0.668
546.59	0.666
546.79	0.668
546.98	0.668
547.18	0.668
547.38	0.668
547.58	0.671
547.77	0.671
547.97	0.667
548.17	0.669
548.37	0.670
548.56	0.670
548.76	0.669
548.96	0.671
549.16	0.675
549.35	0.674
549.55	0.672
549.75	0.672
549.95	0.676
550.14	0.676
550.34	0.674
550.54	0.680
550.73	0.684
550.93	0.684
551.13	0.681
551.33	0.679
551.52	0.680
551.72	0.679
551.92	0.676
552.12	0.676
552.31	0.677
552.51	0.677
552.71	0.671
552.90	0.671
553.10	0.672
553.30	0.672
553.50	0.672
553.69	0.673
553.89	0.675
554.09	0.675
554.28	0.672
554.48	0.674
554.68	0.677
554.87	0.677
555.07	0.674
555.27	0.674
555.47	0.676
555.66	0.677
555.86	0.675
556.06	0.677
556.25	0.679
556.45	0.687
556.65	0.685
556.84	0.688
557.04	0.692
557.24	0.693
557.43	0.692
557.63	0.695
557.83	0.697
558.02	0.698
558.22	0.702
558.42	0.701
558.61	0.694
558.81	0.694
559.01	0.689
559.21	0.689
559.40	0.690
559.60	0.689
559.80	0.685
559.99	0.686
560.19	0.688
560.39	0.682
560.58	0.679
560.78	0.680
560.97	0.684
561.17	0.683
561.37	0.680
561.56	0.681
561.76	0.683
561.96	0.683
562.15	0.680
562.35	0.682
562.55	0.685
562.74	0.685
562.94	0.684
563.14	0.681
563.33	0.683
563.53	0.683
563.73	0.680
563.92	0.682
564.12	0.686
564.31	0.688
564.51	0.685
564.71	0.687
564.90	0.690
565.10	0.690
565.30	0.693
565.49	0.694
565.69	0.697
565.89	0.696
566.08	0.693
566.28	0.694
566.47	0.697
566.67	0.696
566.87	0.692
567.06	0.694
567.26	0.700
567.46	0.696
567.65	0.694
567.85	0.695
568.04	0.698
568.24	0.697
568.44	0.694
568.63	0.692
568.83	0.694
569.02	0.692
569.22	0.687
569.42	0.683
569.61	0.686
569.81	0.685
570.00	0.682
570.20	0.684
570.40	0.685
570.59	0.685
570.79	0.682
570.98	0.680
571.18	0.682
571.38	0.681
571.57	0.678
571.77	0.676
571.96	0.680
572.16	0.677
572.35	0.671
572.55	0.672
572.75	0.671
572.94	0.671
573.14	0.670
573.33	0.670
573.53	0.671
573.73	0.670
573.92	0.668
574.12	0.666
574.31	0.669
574.51	0.670
574.70	0.667
574.90	0.669
575.09	0.671
575.29	0.671
575.49	0.668
575.68	0.669
575.88	0.670
576.07	0.671
576.27	0.669
576.46	0.667
576.66	0.667
576.86	0.666
577.05	0.663
577.25	0.662
577.44	0.664
577.64	0.664
577.83	0.661
578.03	0.662
578.22	0.662
578.42	0.661
578.61	0.659
578.81	0.660
579.00	0.661
579.20	0.661
579.40	0.659
579.59	0.658
579.79	0.658
579.98	0.658
580.18	0.657
580.37	0.657
580.57	0.660
580.76	0.665
580.96	0.662
581.15	0.663
581.35	0.665
581.54	0.665
581.74	0.664
581.93	0.666
582.13	0.668
582.32	0.665
582.52	0.663
582.71	0.662
582.91	0.659
583.10	0.659
583.30	0.658
583.49	0.657
583.69	0.662
583.88	0.663
584.08	0.662
584.27	0.664
584.47	0.668
584.66	0.668
584.86	0.667
585.05	0.669
585.25	0.672
585.44	0.672
585.64	0.670
585.83	0.667
586.03	0.668
586.22	0.666
586.42	0.662
586.61	0.664
586.81	0.667
587.00	0.667
587.20	0.664
587.39	0.665
587.59	0.667
587.78	0.668
587.98	0.668
588.17	0.668
588.37	0.671
588.56	0.672
588.76	0.668
588.95	0.668
589.15	0.672
589.34	0.674
589.54	0.672
589.73	0.672
589.92	0.676
590.12	0.676
590.31	0.673
590.51	0.678
590.70	0.680
590.90	0.680
591.09	0.678
591.29	0.677
591.48	0.677
591.68	0.678
591.87	0.676
592.06	0.675
592.26	0.678
592.45	0.678
592.65	0.671
592.84	0.671
593.04	0.674
593.23	0.677
593.43	0.674
593.62	0.674
593.81	0.674
594.01	0.674
594.20	0.672
594.40	0.671
594.59	0.674
594.79	0.675
594.98	0.673
595.17	0.673
595.37	0.673
595.56	0.675
595.76	0.673
595.95	0.675
596.14	0.677
596.34	0.678
596.53	0.676
596.73	0.677
596.92	0.679
597.12	0.681
597.31	0.680
597.50	0.679
597.70	0.682
597.89	0.681
598.09	0.678
598.28	0.679
598.47	0.682
598.67	0.680
598.86	0.676
599.06	0.678
599.25	0.678
599.44	0.677
599.64	0.675
599.83	0.673
600.03	0.677
600.22	0.677
600.41	0.676
600.61	0.674
600.80	0.678
601.00	0.679
601.19	0.674
601.38	0.673
601.58	0.675
601.77	0.677
601.96	0.678
602.16	0.678
602.35	0.688
602.55	0.685
602.74	0.685
602.93	0.686
603.13	0.691
603.32	0.692
603.51	0.691
603.71	0.694
603.90	0.695
604.09	0.696
604.29	0.693
604.48	0.686
604.68	0.689
604.87	0.687
605.06	0.684
605.26	0.681
605.45	0.682
605.64	0.681
605.84	0.677
606.03	0.675
606.22	0.675
606.42	0.675
606.61	0.671
606.80	0.671
607.00	0.673
607.19	0.674
607.38	0.672
607.58	0.673
607.77	0.676
607.96	0.676
608.16	0.675
608.35	0.679
608.54	0.683
608.74	0.686
608.93	0.691
609.12	0.694
609.32	0.696
609.51	0.700
609.70	0.698
609.90	0.701
610.09	0.705
610.28	0.711
610.48	0.703
610.67	0.704
610.86	0.706
611.06	0.700
611.25	0.698
611.44	0.698
611.64	0.698
611.83	0.700
612.02	0.696
612.21	0.695
612.41	0.694
612.60	0.693
612.79	0.690
612.99	0.690
613.18	0.692
613.37	0.689
613.57	0.687
613.76	0.689
613.95	0.687
614.14	0.687
614.34	0.684
614.53	0.685
614.72	0.688
614.92	0.688
615.11	0.685
615.30	0.681
615.49	0.684
615.69	0.686
615.88	0.682
616.07	0.684
616.26	0.687
616.46	0.688
616.65	0.685
616.84	0.684
617.04	0.686
617.23	0.689
617.42	0.690
617.61	0.694
617.81	0.695
618.00	0.697
618.19	0.694
618.38	0.698
618.58	0.702
618.77	0.703
618.96	0.702
619.15	0.703
619.35	0.706
619.54	0.706
619.73	0.701
619.92	0.703
620.12	0.707
620.31	0.707
620.50	0.701
620.69	0.702
620.89	0.706
621.08	0.706
621.27	0.705
621.46	0.704
621.66	0.709
621.85	0.709
622.04	0.704
622.23	0.705
622.43	0.706
622.62	0.706
622.81	0.704
623.00	0.704
623.19	0.708
623.39	0.707
623.58	0.704
623.77	0.703
623.96	0.707
624.16	0.707
624.35	0.702
624.54	0.704
624.73	0.709
624.92	0.707
625.12	0.704
625.31	0.704
625.50	0.708
625.69	0.709
625.88	0.704
626.08	0.703
626.27	0.705
626.46	0.706
626.65	0.702
626.84	0.703
627.04	0.709
627.23	0.708
627.42	0.703
627.61	0.705
627.80	0.709
628.00	0.709
628.19	0.708
628.38	0.711
628.57	0.715
628.76	0.714
628.96	0.709
629.15	0.710
629.34	0.714
629.53	0.714
629.72	0.708
629.91	0.708
630.11	0.715
630.30	0.715
630.49	0.718
630.68	0.718
630.87	0.722
631.06	0.726
631.26	0.720
631.45	0.722
631.64	0.731
631.83	0.732
632.02	0.729
632.21	0.728
632.41	0.735
632.60	0.729
632.79	0.727
632.98	0.728
633.17	0.730
633.36	0.732
633.55	0.727
633.75	0.723
633.94	0.726
634.13	0.726
634.32	0.722
634.51	0.717
634.70	0.721
634.89	0.719
635.09	0.715
635.28	0.715
635.47	0.717
635.66	0.721
635.85	0.715
636.04	0.717
636.23	0.723
636.43	0.725
636.62	0.723
636.81	0.721
637.00	0.725
637.19	0.729
637.38	0.724
637.57	0.723
637.76	0.726
637.95	0.727
638.15	0.723
638.34	0.719
638.53	0.723
638.72	0.724
638.91	0.721
639.10	0.719
639.29	0.719
639.48	0.720
639.67	0.720
639.87	0.719
640.06	0.725
640.25	0.723
640.44	0.725
640.63	0.725
640.82	0.729
641.01	0.728
641.20	0.727
641.39	0.730
641.58	0.733
641.78	0.732
641.97	0.727
642.16	0.742
642.35	0.744
642.54	0.742
642.73	0.735
642.92	0.733
643.11	0.738
643.30	0.737
643.49	0.730
643.68	0.734
643.87	0.736
644.06	0.737
644.25	0.715
644.45	0.718
644.64	0.720
644.83	0.721
645.02	0.717
645.21	0.717
645.40	0.719
645.59	0.720
645.78	0.712
645.97	0.713
646.16	0.716
646.35	0.715
646.54	0.712
646.73	0.712
646.92	0.714
647.11	0.713
647.30	0.708
647.49	0.709
647.68	0.709
647.88	0.707
648.07	0.699
648.26	0.703
648.45	0.705
648.64	0.702
648.83	0.699
649.02	0.702
649.21	0.712
649.40	0.711
649.59	0.706
649.78	0.707
649.97	0.723
650.16	0.722
650.35	0.715
650.54	0.717
650.73	0.727
650.92	0.723
651.11	0.715
651.30	0.714
651.49	0.719
651.68	0.719
651.87	0.715
652.06	0.703
652.25	0.707
652.44	0.709
652.63	0.703
652.82	0.702
653.01	0.702
653.20	0.701
653.39	0.687
653.58	0.684
653.77	0.684
653.96	0.679
654.15	0.671
654.34	0.669
654.53	0.665
654.72	0.661
654.91	0.652
655.10	0.648
655.29	0.647
655.48	0.645
655.67	0.640
655.86	0.637
656.05	0.637
656.24	0.637
656.43	0.632
656.62	0.631
656.81	0.632
657.00	0.631
657.19	0.629
657.38	0.630
657.57	0.631
657.76	0.634
657.95	0.633
658.14	0.636
658.33	0.640
658.51	0.646
658.70	0.647
658.89	0.648
659.08	0.656
659.27	0.663
659.46	0.661
659.65	0.667
659.84	0.671
660.03	0.675
660.22	0.675
660.41	0.679
660.60	0.678
660.79	0.679
660.98	0.684
661.17	0.682
661.36	0.681
661.55	0.682
661.74	0.680
661.92	0.682
662.11	0.685
662.30	0.682
662.49	0.675
662.68	0.674
662.87	0.678
663.06	0.672
663.25	0.674
663.44	0.674
663.63	0.677
663.82	0.675
664.01	0.669
664.20	0.667
664.38	0.670
664.57	0.670
664.76	0.669
664.95	0.669
665.14	0.675
665.33	0.669
665.52	0.676
665.71	0.679
665.90	0.680
666.09	0.682
666.28	0.680
666.46	0.678
666.65	0.680
666.84	0.678
667.03	0.672
667.22	0.669
667.41	0.674
667.60	0.664
667.79	0.656
667.98	0.658
668.16	0.659
668.35	0.659
668.54	0.654
668.73	0.655
668.92	0.656
669.11	0.655
669.30	0.649
669.49	0.644
669.67	0.646
669.86	0.648
670.05	0.645
670.24	0.642
670.43	0.640
670.62	0.639
670.81	0.634
671.00	0.634
671.18	0.635
671.37	0.634
671.56	0.632
671.75	0.632
671.94	0.630
672.13	0.628
672.32	0.623
672.50	0.622
672.69	0.624
672.88	0.624
673.07	0.618
673.26	0.620
673.45	0.622
673.63	0.621
673.82	0.616
674.01	0.617
674.20	0.617
674.39	0.616
674.58	0.615
674.76	0.614
674.95	0.613
675.14	0.613
675.33	0.608
675.52	0.607
675.71	0.607
675.89	0.607
676.08	0.603
676.27	0.603
676.46	0.604
676.65	0.604
676.84	0.603
677.02	0.605
677.21	0.608
677.40	0.608
677.59	0.605
677.78	0.605
677.96	0.608
678.15	0.607
678.34	0.604
678.53	0.605
678.72	0.605
678.90	0.602
679.09	0.597
679.28	0.593
679.47	0.594
679.66	0.594
679.84	0.592
680.03	0.589
680.22	0.589
680.41	0.591
680.60	0.586
680.78	0.585
680.97	0.588
681.16	0.588
681.35	0.587
681.53	0.585
681.72	0.587
681.91	0.588
682.10	0.585
682.29	0.588
682.47	0.586
682.66	0.586
682.85	0.585
683.04	0.583
683.22	0.583
683.41	0.585
683.60	0.583
683.79	0.585
683.97	0.584
684.16	0.583
684.35	0.579
684.54	0.581
684.72	0.581
684.91	0.582
685.10	0.580
685.29	0.581
685.47	0.578
685.66	0.578
685.85	0.574
686.04	0.574
686.22	0.577
686.41	0.580
686.60	0.576
686.79	0.579
686.97	0.580
687.16	0.581
687.35	0.578
687.54	0.582
687.72	0.586
687.91	0.585
688.10	0.586
688.29	0.585
688.47	0.584
688.66	0.583
688.85	0.579
689.03	0.576
689.22	0.581
689.41	0.581
689.60	0.576
689.78	0.574
689.97	0.575
690.16	0.572
690.34	0.568
690.53	0.567
690.72	0.568
690.91	0.566
691.09	0.564
691.28	0.558
691.47	0.557
691.65	0.557
691.84	0.553
692.03	0.552
692.21	0.550
692.40	0.550
692.59	0.548
692.77	0.547
692.96	0.549
693.15	0.550
693.34	0.547
693.52	0.547
693.71	0.548
693.90	0.550
694.08	0.550
694.27	0.551
694.46	0.561
694.64	0.562
694.83	0.561
695.02	0.559
695.20	0.559
695.39	0.559
695.58	0.558
695.76	0.559
695.95	0.558
696.14	0.558
696.32	0.555
696.51	0.546
696.70	0.546
696.88	0.547
697.07	0.546
697.26	0.547
697.44	0.549
697.63	0.547
697.81	0.545
698.00	0.544
698.19	0.544
698.37	0.544
698.56	0.543
698.75	0.543
698.93	0.542
699.12	0.542
699.31	0.540
699.49	0.540
699.68	0.542
699.87	0.544
700.05	0.544
700.24	0.543
700.42	0.545
700.61	0.544
700.80	0.541
700.98	0.541
701.17	0.543
701.36	0.542
701.54	0.540
701.73	0.542
701.91	0.540
702.10	0.539
702.29	0.537
702.47	0.536
702.66	0.538
702.84	0.540
703.03	0.538
703.22	0.539
703.40	0.540
703.59	0.541
703.77	0.541
703.96	0.541
704.15	0.542
704.33	0.543
704.52	0.542
704.70	0.540
704.89	0.540
705.08	0.539
705.26	0.535
705.45	0.535
705.63	0.535
705.82	0.531
706.00	0.530
706.19	0.528
706.38	0.528
706.56	0.527
706.75	0.524
706.93	0.524
707.12	0.525
707.30	0.526
707.49	0.523
707.68	0.521
707.86	0.521
708.05	0.521
708.23	0.518
708.42	0.519
708.60	0.522
708.79	0.522
708.98	0.520
709.16	0.519
709.35	0.522
709.53	0.526
709.72	0.525
709.90	0.527
710.09	0.529
710.27	0.532
710.46	0.536
710.64	0.535
710.83	0.537
711.02	0.539
711.20	0.538
711.39	0.536
711.57	0.533
711.76	0.534
711.94	0.531
712.13	0.532
712.31	0.531
712.50	0.526
712.68	0.522
712.87	0.523
713.05	0.524
713.24	0.524
713.42	0.523
713.61	0.524
713.79	0.525
713.98	0.526
714.16	0.526
714.35	0.526
714.54	0.528
714.72	0.528
714.91	0.525
715.09	0.531
715.28	0.535
715.46	0.535
715.65	0.531
715.83	0.531
716.02	0.533
716.20	0.530
716.39	0.528
716.57	0.529
716.76	0.532
716.94	0.532
717.12	0.524
717.31	0.526
717.49	0.529
717.68	0.532
717.86	0.532
718.05	0.534
718.23	0.537
718.42	0.539
718.60	0.540
718.79	0.548
718.97	0.551
719.16	0.551
719.34	0.548
719.53	0.547
719.71	0.547
719.90	0.549
720.08	0.545
720.27	0.546
720.45	0.547
720.63	0.546
720.82	0.539
721.00	0.542
721.19	0.547
721.37	0.546
721.56	0.546
721.74	0.549
721.93	0.557
722.11	0.564
722.30	0.562
722.48	0.566
722.66	0.568
722.85	0.568
723.03	0.567
723.22	0.565
723.40	0.569
723.59	0.568
723.77	0.572
723.95	0.566
724.14	0.569
724.32	0.571
724.51	0.569
724.69	0.569
724.88	0.570
725.06	0.568
725.24	0.568
725.43	0.569
725.61	0.573
725.80	0.566
725.98	0.563
726.16	0.559
726.35	0.565
726.53	0.565
726.72	0.563
726.90	0.574
727.09	0.575
727.27	0.581
727.45	0.578
727.64	0.587
727.82	0.597
728.01	0.602
728.19	0.597
728.37	0.604
728.56	0.608
728.74	0.616
728.92	0.601
729.11	0.604
729.29	0.603
729.48	0.606
729.66	0.594
729.84	0.595
730.03	0.599
730.21	0.603
730.40	0.592
730.58	0.592
730.76	0.592
730.95	0.596
731.13	0.595
731.31	0.609
731.50	0.621
731.68	0.625
731.86	0.620
732.05	0.635
732.23	0.638
732.42	0.642
732.60	0.646
732.78	0.651
732.97	0.669
733.15	0.676
733.33	0.663
733.52	0.669
733.70	0.683
733.88	0.692
734.07	0.675
734.25	0.704
734.43	0.714
734.62	0.716
734.80	0.710
734.98	0.701
735.17	0.710
735.35	0.715
735.53	0.703
735.72	0.706
735.90	0.730
736.08	0.751
736.27	0.723
736.45	0.732
736.63	0.748
736.82	0.761
737.00	0.759
737.18	0.771
737.37	0.808
737.55	0.832
737.73	0.820
737.92	0.822
738.10	0.823
738.28	0.846
738.46	0.833
738.65	0.846
738.83	0.874
739.01	0.938
739.20	0.923
739.38	0.903
739.56	0.898
739.75	0.905
739.93	0.864
740.11	0.891
740.29	0.895
740.48	0.901
740.66	0.874
740.84	0.867
741.03	0.830
741.21	0.843
741.39	0.819
741.57	0.833
741.76	0.851
741.94	0.861
742.12	0.819
742.31	0.829
742.49	0.856
742.67	0.881
742.85	0.892
743.04	0.897
743.22	0.911
743.40	0.974
743.58	0.947
743.77	0.976
743.95	1.023
744.13	1.089
744.31	1.059
744.50	1.049
744.68	1.061
744.86	1.026
745.04	1.040
745.23	1.121
745.41	1.108
745.59	1.116
745.77	1.061
745.96	1.045
746.14	1.062
746.32	1.058
746.50	1.048
746.69	1.027
746.87	1.053
747.05	1.030
747.23	0.942
747.42	0.926
747.60	0.970
747.78	0.973
747.96	1.002
748.14	0.945
748.33	0.983
748.51	0.974
748.69	0.962
748.87	0.999
749.06	1.003
749.24	0.996
749.42	0.974
749.60	0.949
749.78	0.971
749.97	0.916
750.15	0.909
750.33	0.909
750.51	0.945
750.69	0.947
750.88	0.942
751.06	0.954
751.24	0.997
751.42	0.984
751.60	0.970
751.79	1.054
751.97	1.126
752.15	1.121
752.33	1.078
752.51	1.157
752.69	1.184
752.88	1.140
753.06	1.191
753.24	1.155
753.42	1.203
753.60	1.458
753.78	1.223
753.97	1.240
754.15	1.278
754.33	1.316
754.51	1.131
754.69	1.118
754.87	1.165
755.06	1.070
755.24	1.067
755.42	1.081
755.60	0.963
755.78	0.975
755.96	0.905
756.15	0.902
756.33	0.908
756.51	0.929
756.69	0.907
756.87	0.865
757.05	0.894
757.23	0.872
757.42	0.832
757.60	0.831
757.78	0.819
757.96	0.820
758.14	0.799
758.32	0.782
758.50	0.801
758.69	0.803
758.87	0.794
759.05	0.795
759.23	0.807
759.41	0.810
759.59	0.801
759.77	0.830
759.95	0.863
760.13	0.923
760.32	0.919
760.50	0.910
760.68	0.938
760.86	0.939
761.04	0.906
761.22	0.911
761.40	0.969
761.58	0.968
761.76	0.925
761.95	0.903
762.13	0.857
762.31	0.859
762.49	0.822
762.67	0.844
762.85	0.862
763.03	0.853
763.21	0.833
763.39	0.815
763.57	0.821
763.75	0.816
763.94	0.797
764.12	0.796
764.30	0.826
764.48	0.833
764.66	0.786
764.84	0.784
765.02	0.831
765.20	0.836
765.38	0.809
765.56	0.812
765.74	0.861
765.92	0.863
766.10	0.871
766.28	0.859
766.46	0.894
766.65	0.899
766.83	0.882
767.01	0.862
767.19	0.873
767.37	0.872
767.55	0.856
767.73	0.832
767.91	0.839
768.09	0.827
768.27	0.816
768.45	0.807
768.63	0.812
768.81	0.814
768.99	0.785
769.17	0.811
769.35	0.833
769.53	0.830
769.71	0.808
769.89	0.821
770.07	0.829
770.25	0.806
770.43	0.781
770.61	0.809
770.79	0.817
770.97	0.827
771.15	0.793
771.33	0.797
771.51	0.803
771.69	0.814
771.87	0.817
772.05	0.821
772.24	0.836
772.42	0.842
772.60	0.815
772.78	0.883
772.96	0.921
773.14	0.912
773.32	0.882
773.49	0.890
773.67	0.890
773.85	0.865
774.03	0.852
774.21	0.885
774.39	0.901
774.57	0.928
774.75	0.842
774.93	0.837
775.11	0.867
775.29	0.872
775.47	0.869
775.65	0.878
775.83	0.902
776.01	0.923
776.19	0.868
776.37	0.873
776.55	0.873
776.73	0.865
776.91	0.855
777.09	0.835
777.27	0.839
777.45	0.827
777.63	0.803
777.81	0.801
777.99	0.792
778.17	0.792
778.35	0.765
778.53	0.757
778.71	0.770
778.89	0.755
779.07	0.743
779.24	0.750
779.42	0.753
779.60	0.774
779.78	0.765
779.96	0.774
780.14	0.784
780.32	0.807
780.50	0.782
780.68	0.780
780.86	0.775
781.04	0.792
781.22	0.792
781.40	0.805
781.58	0.796
781.75	0.789
781.93	0.766
782.11	0.766
782.29	0.752
782.47	0.754
782.65	0.736
782.83	0.766
783.01	0.761
783.19	0.751
783.37	0.733
783.55	0.736
783.72	0.756
783.90	0.765
784.08	0.755
784.26	0.769
784.44	0.789
784.62	0.794
784.80	0.752
784.98	0.760
785.16	0.770
785.33	0.785
785.51	0.768
785.69	0.753
785.87	0.753
786.05	0.767
786.23	0.760
786.41	0.761
786.59	0.767
786.77	0.770
786.94	0.752
787.12	0.756
787.30	0.757
787.48	0.754
787.66	0.741
787.84	0.743
788.02	0.733
788.19	0.730
788.37	0.712
788.55	0.715
788.73	0.716
788.91	0.710
789.09	0.691
789.27	0.683
789.44	0.696
789.62	0.702
789.80	0.709
789.98	0.735
790.16	0.722
790.34	0.722
790.51	0.709
790.69	0.731
790.87	0.741
791.05	0.739
791.23	0.731
791.41	0.732
791.58	0.742
791.76	0.719
791.94	0.685
792.12	0.696
792.30	0.697
792.48	0.695
792.65	0.686
792.83	0.695
793.01	0.705
793.19	0.702
793.37	0.685
793.54	0.682
793.72	0.697
793.90	0.693
794.08	0.678
794.26	0.682
794.43	0.692
794.61	0.674
794.79	0.657
794.97	0.656
795.15	0.664
795.32	0.668
795.50	0.653
795.68	0.648
795.86	0.656
796.04	0.659
796.21	0.650
796.39	0.648
796.57	0.664
796.75	0.674
796.92	0.672
797.10	0.678
797.28	0.682
797.46	0.686
797.64	0.685
797.81	0.696
797.99	0.701
798.17	0.705
798.35	0.698
798.52	0.701
798.70	0.699
798.88	0.709
799.06	0.705
799.23	0.709
799.41	0.719
799.59	0.711
799.77	0.693
799.94	0.703
800.12	0.714
800.30	0.731
800.48	0.728
800.65	0.727
800.83	0.716
801.01	0.708
801.19	0.708
801.36	0.705
801.54	0.711
801.72	0.723
801.90	0.706
802.07	0.703
802.25	0.689
802.43	0.674
802.60	0.670
802.78	0.678
802.96	0.684
803.14	0.673
803.31	0.668
803.49	0.667
803.67	0.663
803.84	0.668
804.02	0.655
804.20	0.658
804.38	0.664
804.55	0.662
804.73	0.644
804.91	0.645
805.08	0.661
805.26	0.656
805.44	0.718
805.61	0.723
805.79	0.725
805.97	0.726
806.15	0.716
806.32	0.711
806.50	0.720
806.68	0.719
806.85	0.708
807.03	0.697
807.21	0.718
807.38	0.652
807.56	0.638
807.74	0.649
807.91	0.657
808.09	0.659
808.27	0.677
808.44	0.705
808.62	0.719
808.80	0.723
808.97	0.717
809.15	0.710
809.33	0.732
809.50	0.741
809.68	0.724
809.86	0.734
810.03	0.772
810.21	0.750
810.39	0.729
810.56	0.735
810.74	0.763
810.91	0.843
811.09	0.828
811.27	0.854
811.44	0.864
811.62	0.865
811.80	0.841
811.97	0.805
812.15	0.804
812.33	0.797
812.50	0.776
812.68	0.763
812.85	0.705
813.03	0.708
813.21	0.669
813.38	0.662
813.56	0.667
813.74	0.680
813.91	0.685
814.09	0.721
814.26	0.716
814.44	0.723
814.62	0.711
814.79	0.716
814.97	0.722
815.14	0.726
815.32	0.729
815.50	0.748
815.67	0.752
815.85	0.743
816.02	0.729
816.20	0.738
816.38	0.755
816.55	0.760
816.73	0.756
816.90	0.771
817.08	0.813
817.26	0.819
817.43	0.795
817.61	0.823
817.78	0.850
817.96	0.822
818.13	0.808
818.31	0.810
818.49	0.829
818.66	0.817
818.84	0.796
819.01	0.770
819.19	0.777
819.36	0.780
819.54	0.744
819.71	0.790
819.89	0.812
820.07	0.823
820.24	0.813
820.42	0.810
820.59	0.834
820.77	0.860
820.94	0.847
821.12	0.872
821.29	0.893
821.47	0.896
821.64	0.818
821.82	0.830
822.00	0.831
822.17	0.824
822.35	0.818
822.52	0.823
822.70	0.812
822.87	0.820
823.05	0.793
823.22	0.808
823.40	0.845
823.57	0.870
823.75	0.847
823.92	0.881
824.10	0.915
824.27	0.963
824.45	0.944
824.62	1.023
824.80	1.058
824.97	1.078
825.15	1.051
825.32	1.059
825.50	1.073
825.67	1.085
825.85	1.044
826.02	1.064
826.20	1.103
826.37	1.298
826.55	1.176
826.72	1.534
826.90	1.764
827.07	2.069
827.25	1.835
827.42	-0.000
827.60	-0.000
827.77	-0.000
827.95	-0.000
828.12	-0.000
828.30	-0.000
828.47	-0.000
828.65	1.797
828.82	2.185
829.00	-0.000
829.17	-0.000
829.34	-0.000
829.52	-0.000
829.69	-0.000
829.87	-0.000
830.04	-0.000
830.22	-0.000
830.39	-0.000
830.57	-0.000
830.74	-0.000
830.92	-0.000
831.09	-0.000
831.26	-0.000
831.44	-0.000
831.61	-0.000
831.79	-0.000
831.96	-0.000
832.14	-0.000
832.31	-0.000
832.49	-0.000
832.66	-0.000
832.83	-0.000
833.01	-0.000
833.18	-0.000
833.36	-0.000
833.53	-0.000
833.70	-0.000
833.88	-0.000
834.05	-0.000
834.23	-0.000
834.40	-0.000
834.58	-0.000
834.75	-0.000
834.92	-0.000
835.10	-0.000
835.27	-0.000
835.45	-0.000
835.62	-0.000
835.79	-0.000
835.97	-0.000
836.14	-0.000
836.32	-0.000
836.49	-0.000
836.66	-0.000
836.84	-0.000
837.01	-0.000
837.18	-0.000
837.36	-0.000
837.53	-0.000
837.71	-0.000
837.88	-0.000
838.05	-0.000
838.23	-0.000
838.40	-0.000
838.58	-0.000
838.75	-0.000
838.92	-0.000
839.10	-0.000
839.27	-0.000
839.44	-0.000
839.62	-0.000
839.79	-0.000
839.96	-0.000
840.14	-0.000
840.31	-0.000
840.48	-0.000
840.66	-0.000
840.83	-0.000
841.01	-0.000
841.18	-0.000
841.35	-0.000
841.53	-0.000
841.70	-0.000
841.87	-0.000
842.05	-0.000
842.22	-0.000
842.39	-0.000
842.57	-0.000
842.74	-0.000
842.91	-0.000
843.09	-0.000
843.26	-0.000
843.43	-0.000
843.60	-0.000
843.78	-0.000
843.95	-0.000
844.12	-0.000
844.30	-0.000
844.47	-0.000
844.64	-0.000
844.82	-0.000
844.99	-0.000
845.16	-0.000
845.34	-0.000
845.51	-0.000
845.68	-0.000
845.85	-0.000
846.03	-0.000
846.20	-0.000
846.37	-0.000
846.55	-0.000
846.72	-0.000
846.89	-0.000
847.06	-0.000
847.24	-0.000
847.41	-0.000
847.58	-0.000
847.76	-0.000
847.93	-0.000
848.10	-0.000
848.27	-0.000
848.45	-0.000
848.62	-0.000
848.79	-0.000
848.97	-0.000
849.14	-0.000
849.31	-0.000
849.48	-0.000
849.66	-0.000
849.83	-0.000
850.00	-0.000
850.17	-0.000
850.35	-0.000
850.52	-0.000
850.69	-0.000
850.86	-0.000
851.04	-0.000
851.21	-0.000
851.38	-0.000
851.55	-0.000
851.72	-0.000
851.90	-0.000
852.07	-0.000
852.24	-0.000
852.41	-0.000
852.59	-0.000
852.76	-0.000
852.93	-0.000
853.10	-0.000
853.28	-0.000
853.45	-0.000
853.62	-0.000
853.79	-0.000
853.96	-0.000
854.14	-0.000
854.31	-0.000
854.48	-0.000
854.65	-0.000
854.82	-0.000
855.00	-0.000
855.17	-0.000
855.34	-0.000
855.51	-0.000
855.68	-0.000
855.86	-0.000
856.03	-0.000
856.20	-0.000
856.37	-0.000
856.54	-0.000
856.72	-0.000
856.89	-0.000
857.06	-0.000
857.23	-0.000
857.40	-0.000
857.57	-0.000
857.75	-0.000
857.92	-0.000
858.09	-0.000
858.26	-0.000
858.43	-0.000
858.60	-0.000
858.78	-0.000
858.95	-0.000
859.12	-0.000
859.29	-0.000
859.46	-0.000
859.63	-0.000
859.81	-0.000
859.98	-0.000
860.15	-0.000
860.32	-0.000
860.49	-0.000
860.66	-0.000
860.83	-0.000
861.01	-0.000
861.18	-0.000
861.35	-0.000
861.52	-0.000
861.69	-0.000
861.86	-0.000
862.03	-0.000
862.21	-0.000
862.38	-0.000
862.55	-0.000
862.72	-0.000
862.89	-0.000
863.06	-0.000
863.23	-0.000
863.40	-0.000
863.58	-0.000
863.75	-0.000
863.92	-0.000
864.09	-0.000
864.26	-0.000
864.43	-0.000
864.60	-0.000
864.77	-0.000
864.94	-0.000
865.11	-0.000
865.29	-0.000
865.46	-0.000
865.63	-0.000
865.80	-0.000
865.97	-0.000
866.14	-0.000
866.31	-0.000
866.48	-0.000
866.65	-0.000
866.82	-0.000
866.99	-0.000
867.16	-0.000
867.34	-0.000
867.51	-0.000
867.68	-0.000
867.85	-0.000
868.02	-0.000
868.19	-0.000
868.36	-0.000
868.53	-0.000
868.70	-0.000
868.87	-0.000
869.04	-0.000
869.21	-0.000
869.38	-0.000
869.55	-0.000
869.72	-0.000
869.89	-0.000
870.06	-0.000
870.24	-0.000
870.41	-0.000
870.58	-0.000
870.75	-0.000
870.92	-0.000
871.09	-0.000
871.26	-0.000
871.43	-0.000
871.60	-0.000
871.77	-0.000
871.94	-0.000
872.11	-0.000
872.28	-0.000
872.45	-0.000
872.62	-0.000
872.79	-0.000
872.96	-0.000
873.13	-0.000
873.30	-0.000
873.47	-0.000
873.64	-0.000
873.81	-0.000
873.98	-0.000
874.15	-0.000
874.32	-0.000
874.49	-0.000
874.66	-0.000
874.83	-0.000
875.00	-0.000
875.17	-0.000
875.34	-0.000
875.51	-0.000
875.68	-0.000
875.85	-0.000
876.02	-0.000
876.19	-0.000
876.36	-0.000
876.53	-0.000
876.70	-0.000
876.87	-0.000
877.04	-0.000
877.21	-0.000
877.38	-0.000
877.55	-0.000
877.72	-0.000
877.89	-0.000
878.06	-0.000
878.23	-0.000
878.39	-0.000
878.56	-0.000
878.73	-0.000
878.90	-0.000
879.07	-0.000
879.24	-0.000
879.41	-0.000
879.58	-0.000
879.75	-0.000
879.92	-0.000
880.09	-0.000
880.26	-0.000
880.43	-0.000
880.60	-0.000
880.77	-0.000
880.94	-0.000
881.11	-0.000
881.27	-0.000
881.44	-0.000
881.61	-0.000
881.78	-0.000
881.95	-0.000
882.12	-0.000
882.29	-0.000
882.46	-0.000
882.63	-0.000
882.80	-0.000
882.97	-0.000
883.14	-0.000
883.30	-0.000
883.47	-0.000
883.64	-0.000
883.81	-0.000
883.98	-0.000
884.15	-0.000
884.32	-0.000
884.49	-0.000
884.66	-0.000
884.82	-0.000
884.99	-0.000
885.16	-0.000
885.33	-0.000
885.50	-0.000
885.67	-0.000
885.84	-0.000
886.01	-0.000
886.17	-0.000
886.34	-0.000
886.51	-0.000
886.68	-0.000
886.85	-0.000
887.02	-0.000
887.19	-0.000
887.36	-0.000
887.52	-0.000
887.69	-0.000
887.86	-0.000
888.03	-0.000
888.20	-0.000
888.37	-0.000
888.54	-0.000
888.70	-0.000
888.87	-0.000
889.04	-0.000
889.21	-0.000
889.38	-0.000
889.55	-0.000
889.71	-0.000
889.88	-0.000
890.05	-0.000
890.22	-0.000
890.39	-0.000
>>>>>End Processed Spectral Data<<<<<
