SpectraSuite Data File
++++++++++++++++++++++++++++++++++++
Date: Fri Jun 19 14:43:25 CEST 2015
User: introlabs
Dark Spectrum Present: Yes
Reference Spectrum Present: Yes
Number of Sampled Component Spectra: 1
Spectrometers: USB4H08886
Integration Time (usec): 745692 (USB4H08886)
Spectra Averaged: 5 (USB4H08886)
Boxcar Smoothing: 5 (USB4H08886)
Correct for Electrical Dark: Yes (USB4H08886)
Strobe/Lamp Enabled: No (USB4H08886)
Correct for Detector Non-linearity: Yes (USB4H08886)
Correct for Stray Light: Yes (USB4H08886)
Number of Pixels in Processed Spectrum: 3648
>>>>>Begin Processed Spectral Data<<<<<
178.14	-0.000
178.36	-0.000
178.57	-0.000
178.79	-0.000
179.01	-0.000
179.22	-0.000
179.44	-0.000
179.65	-0.000
179.87	-0.000
180.08	-0.000
180.30	-0.000
180.52	-0.000
180.73	-0.000
180.95	-0.000
181.16	-0.000
181.38	-0.000
181.59	-0.000
181.81	-0.000
182.03	-0.000
182.24	-0.000
182.46	-0.000
182.67	-0.000
182.89	-0.000
183.10	-0.000
183.32	-0.000
183.54	-0.000
183.75	-0.000
183.97	-0.000
184.18	-0.000
184.40	-0.000
184.61	-0.000
184.83	-0.000
185.04	-0.000
185.26	-0.000
185.48	-0.000
185.69	-0.000
185.91	-0.000
186.12	-0.000
186.34	-0.000
186.55	-0.000
186.77	-0.000
186.98	-0.000
187.20	-0.000
187.42	-0.000
187.63	-0.000
187.85	-0.000
188.06	-0.000
188.28	-0.000
188.49	-0.000
188.71	-0.000
188.92	-0.000
189.14	-0.000
189.36	-0.000
189.57	-0.000
189.79	-0.000
190.00	-0.000
190.22	-0.000
190.43	-0.000
190.65	-0.000
190.86	-0.000
191.08	-0.000
191.29	-0.000
191.51	-0.000
191.72	-0.000
191.94	-0.000
192.16	-0.000
192.37	-0.000
192.59	-0.000
192.80	-0.000
193.02	-0.000
193.23	-0.000
193.45	-0.000
193.66	-0.000
193.88	-0.000
194.09	-0.000
194.31	-0.000
194.52	-0.000
194.74	-0.000
194.95	-0.000
195.17	-0.000
195.38	-0.000
195.60	-0.000
195.81	-0.000
196.03	-0.000
196.25	-0.000
196.46	-0.000
196.68	-0.000
196.89	-0.000
197.11	-0.000
197.32	-0.000
197.54	-0.000
197.75	-0.000
197.97	-0.000
198.18	-0.000
198.40	-0.000
198.61	-0.000
198.83	-0.000
199.04	-0.000
199.26	-0.000
199.47	-0.000
199.69	-0.000
199.90	-0.000
200.12	-0.000
200.33	-0.000
200.55	-0.000
200.76	-0.000
200.98	-0.000
201.19	-0.000
201.41	-0.000
201.62	-0.000
201.84	-0.000
202.05	-0.000
202.27	-0.000
202.48	-0.000
202.70	-0.000
202.91	-0.000
203.13	-0.000
203.34	-0.000
203.56	-0.000
203.77	-0.000
203.99	-0.000
204.20	-0.000
204.42	-0.000
204.63	-0.000
204.85	-0.000
205.06	-0.000
205.28	-0.000
205.49	-0.000
205.71	-0.000
205.92	-0.000
206.14	-0.000
206.35	-0.000
206.56	-0.000
206.78	-0.000
206.99	-0.000
207.21	-0.000
207.42	-0.000
207.64	-0.000
207.85	-0.000
208.07	-0.000
208.28	-0.000
208.50	-0.000
208.71	-0.000
208.93	-0.000
209.14	-0.000
209.36	-0.000
209.57	-0.000
209.79	-0.000
210.00	-0.000
210.22	-0.000
210.43	-0.000
210.64	-0.000
210.86	-0.000
211.07	-0.000
211.29	-0.000
211.50	-0.000
211.72	-0.000
211.93	-0.000
212.15	-0.000
212.36	-0.000
212.58	-0.000
212.79	-0.000
213.01	-0.000
213.22	-0.000
213.43	-0.000
213.65	-0.000
213.86	-0.000
214.08	-0.000
214.29	-0.000
214.51	-0.000
214.72	-0.000
214.94	-0.000
215.15	-0.000
215.36	-0.000
215.58	-0.000
215.79	-0.000
216.01	-0.000
216.22	-0.000
216.44	-0.000
216.65	-0.000
216.87	-0.000
217.08	-0.000
217.29	-0.000
217.51	-0.000
217.72	-0.000
217.94	-0.000
218.15	-0.000
218.37	-0.000
218.58	-0.000
218.80	-0.000
219.01	-0.000
219.22	-0.000
219.44	-0.000
219.65	-0.000
219.87	-0.000
220.08	-0.000
220.30	-0.000
220.51	-0.000
220.72	-0.000
220.94	-0.000
221.15	-0.000
221.37	-0.000
221.58	-0.000
221.79	-0.000
222.01	-0.000
222.22	-0.000
222.44	-0.000
222.65	-0.000
222.87	-0.000
223.08	-0.000
223.29	-0.000
223.51	-0.000
223.72	-0.000
223.94	-0.000
224.15	-0.000
224.36	-0.000
224.58	-0.000
224.79	-0.000
225.01	-0.000
225.22	-0.000
225.44	-0.000
225.65	-0.000
225.86	-0.000
226.08	-0.000
226.29	-0.000
226.51	-0.000
226.72	-0.000
226.93	-0.000
227.15	-0.000
227.36	-0.000
227.58	-0.000
227.79	-0.000
228.00	-0.000
228.22	-0.000
228.43	-0.000
228.65	-0.000
228.86	-0.000
229.07	-0.000
229.29	-0.000
229.50	-0.000
229.72	-0.000
229.93	-0.000
230.14	-0.000
230.36	-0.000
230.57	-0.000
230.78	-0.000
231.00	-0.000
231.21	-0.000
231.43	-0.000
231.64	-0.000
231.85	-0.000
232.07	-0.000
232.28	-0.000
232.50	-0.000
232.71	-0.000
232.92	-0.000
233.14	-0.000
233.35	-0.000
233.56	-0.000
233.78	-0.000
233.99	-0.000
234.21	-0.000
234.42	-0.000
234.63	-0.000
234.85	-0.000
235.06	-0.000
235.27	-0.000
235.49	-0.000
235.70	-0.000
235.91	-0.000
236.13	-0.000
236.34	-0.000
236.56	-0.000
236.77	-0.000
236.98	-0.000
237.20	-0.000
237.41	-0.000
237.62	-0.000
237.84	-0.000
238.05	-0.000
238.26	-0.000
238.48	-0.000
238.69	-0.000
238.91	-0.000
239.12	-0.000
239.33	-0.000
239.55	-0.000
239.76	-0.000
239.97	-0.000
240.19	-0.000
240.40	-0.000
240.61	-0.000
240.83	-0.000
241.04	-0.000
241.25	-0.000
241.47	-0.000
241.68	-0.000
241.89	-0.000
242.11	-0.000
242.32	-0.000
242.53	-0.000
242.75	-0.000
242.96	-0.000
243.17	-0.000
243.39	-0.000
243.60	-0.000
243.81	-0.000
244.03	-0.000
244.24	-0.000
244.45	-0.000
244.67	-0.000
244.88	-0.000
245.09	-0.000
245.31	-0.000
245.52	-0.000
245.73	-0.000
245.95	-0.000
246.16	-0.000
246.37	-0.000
246.59	-0.000
246.80	-0.000
247.01	-0.000
247.23	-0.000
247.44	-0.000
247.65	-0.000
247.87	-0.000
248.08	-0.000
248.29	-0.000
248.51	-0.000
248.72	-0.000
248.93	-0.000
249.15	-0.000
249.36	-0.000
249.57	-0.000
249.78	-0.000
250.00	-0.000
250.21	-0.000
250.42	-0.000
250.64	-0.000
250.85	-0.000
251.06	-0.000
251.28	-0.000
251.49	-0.000
251.70	-0.000
251.92	-0.000
252.13	-0.000
252.34	-0.000
252.55	-0.000
252.77	-0.000
252.98	-0.000
253.19	-0.000
253.41	-0.000
253.62	-0.000
253.83	-0.000
254.05	-0.000
254.26	-0.000
254.47	-0.000
254.68	-0.000
254.90	-0.000
255.11	-0.000
255.32	-0.000
255.54	-0.000
255.75	-0.000
255.96	-0.000
256.17	-0.000
256.39	-0.000
256.60	-0.000
256.81	-0.000
257.03	-0.000
257.24	-0.000
257.45	-0.000
257.66	-0.000
257.88	-0.000
258.09	-0.000
258.30	-0.000
258.51	-0.000
258.73	-0.000
258.94	-0.000
259.15	-0.000
259.37	-0.000
259.58	-0.000
259.79	-0.000
260.00	-0.000
260.22	-0.000
260.43	-0.000
260.64	-0.000
260.85	-0.000
261.07	-0.000
261.28	-0.000
261.49	-0.000
261.71	-0.000
261.92	-0.000
262.13	-0.000
262.34	-0.000
262.56	-0.000
262.77	-0.000
262.98	-0.000
263.19	-0.000
263.41	-0.000
263.62	-0.000
263.83	-0.000
264.04	-0.000
264.26	-0.000
264.47	-0.000
264.68	-0.000
264.89	-0.000
265.11	-0.000
265.32	-0.000
265.53	-0.000
265.74	-0.000
265.96	-0.000
266.17	-0.000
266.38	-0.000
266.59	-0.000
266.81	-0.000
267.02	-0.000
267.23	-0.000
267.44	-0.000
267.65	-0.000
267.87	-0.000
268.08	-0.000
268.29	-0.000
268.50	-0.000
268.72	-0.000
268.93	-0.000
269.14	-0.000
269.35	-0.000
269.57	-0.000
269.78	-0.000
269.99	-0.000
270.20	-0.000
270.41	-0.000
270.63	-0.000
270.84	-0.000
271.05	-0.000
271.26	-0.000
271.48	-0.000
271.69	-0.000
271.90	-0.000
272.11	-0.000
272.32	-0.000
272.54	-0.000
272.75	-0.000
272.96	-0.000
273.17	-0.000
273.39	-0.000
273.60	-0.000
273.81	-0.000
274.02	-0.000
274.23	-0.000
274.45	-0.000
274.66	-0.000
274.87	-0.000
275.08	-0.000
275.29	-0.000
275.51	-0.000
275.72	-0.000
275.93	-0.000
276.14	-0.000
276.35	-0.000
276.57	-0.000
276.78	-0.000
276.99	-0.000
277.20	-0.000
277.41	-0.000
277.63	-0.000
277.84	-0.000
278.05	-0.000
278.26	-0.000
278.47	-0.000
278.69	-0.000
278.90	-0.000
279.11	-0.000
279.32	-0.000
279.53	-0.000
279.74	-0.000
279.96	-0.000
280.17	-0.000
280.38	-0.000
280.59	-0.000
280.80	-0.000
281.02	-0.000
281.23	-0.000
281.44	-0.000
281.65	-0.000
281.86	-0.000
282.07	-0.000
282.29	-0.000
282.50	-0.000
282.71	-0.000
282.92	-0.000
283.13	-0.000
283.35	-0.000
283.56	-0.000
283.77	-0.000
283.98	-0.000
284.19	-0.000
284.40	-0.000
284.62	-0.000
284.83	-0.000
285.04	-0.000
285.25	-0.000
285.46	-0.000
285.67	-0.000
285.88	-0.000
286.10	-0.000
286.31	-0.000
286.52	-0.000
286.73	-0.000
286.94	-0.000
287.15	-0.000
287.37	-0.000
287.58	-0.000
287.79	-0.000
288.00	-0.000
288.21	-0.000
288.42	-0.000
288.63	-0.000
288.85	-0.000
289.06	-0.000
289.27	-0.000
289.48	-0.000
289.69	-0.000
289.90	-0.000
290.11	-0.000
290.33	-0.000
290.54	-0.000
290.75	-0.000
290.96	-0.000
291.17	-0.000
291.38	-0.000
291.59	-0.000
291.81	-0.000
292.02	-0.000
292.23	-0.000
292.44	-0.000
292.65	-0.000
292.86	-0.000
293.07	-0.000
293.28	-0.000
293.50	-0.000
293.71	-0.000
293.92	-0.000
294.13	-0.000
294.34	-0.000
294.55	-0.000
294.76	-0.000
294.97	-0.000
295.19	-0.000
295.40	-0.000
295.61	-0.000
295.82	-0.000
296.03	-0.000
296.24	-0.000
296.45	2.538
296.66	1.906
296.87	1.932
297.09	2.065
297.30	2.487
297.51	1.828
297.72	1.773
297.93	1.882
298.14	1.825
298.35	1.766
298.56	1.738
298.77	1.901
298.99	1.863
299.20	1.817
299.41	1.781
299.62	1.727
299.83	1.712
300.04	1.634
300.25	1.637
300.46	1.690
300.67	1.657
300.88	1.592
301.10	1.594
301.31	1.677
301.52	1.609
301.73	1.544
301.94	1.543
302.15	1.571
302.36	1.523
302.57	1.448
302.78	1.452
302.99	1.498
303.20	1.526
303.41	1.428
303.63	1.406
303.84	1.413
304.05	1.410
304.26	1.351
304.47	1.355
304.68	1.356
304.89	1.345
305.10	1.303
305.31	1.285
305.52	1.326
305.73	1.318
305.94	1.278
306.15	1.273
306.37	1.293
306.58	1.298
306.79	1.266
307.00	1.290
307.21	1.333
307.42	1.329
307.63	1.297
307.84	1.265
308.05	1.304
308.26	1.307
308.47	1.279
308.68	1.278
308.89	1.276
309.10	1.271
309.31	1.230
309.52	1.220
309.73	1.234
309.95	1.227
310.16	1.197
310.37	1.186
310.58	1.205
310.79	1.207
311.00	1.201
311.21	1.205
311.42	1.210
311.63	1.204
311.84	1.185
312.05	1.183
312.26	1.207
312.47	1.220
312.68	1.193
312.89	1.175
313.10	1.181
313.31	1.155
313.52	1.156
313.73	1.155
313.94	1.159
314.15	1.143
314.36	1.119
314.57	1.111
314.78	1.098
314.99	1.094
315.21	1.081
315.42	1.084
315.63	1.096
315.84	1.074
316.05	1.062
316.26	1.067
316.47	1.085
316.68	1.082
316.89	1.064
317.10	1.084
317.31	1.089
317.52	1.090
317.73	1.069
317.94	1.069
318.15	1.111
318.36	1.110
318.57	1.093
318.78	1.081
318.99	1.116
319.20	1.113
319.41	1.077
319.62	1.077
319.83	1.091
320.04	1.087
320.25	1.072
320.46	1.039
320.67	1.042
320.88	1.036
321.09	1.023
321.30	1.009
321.51	1.025
321.72	1.024
321.93	1.009
322.14	1.002
322.35	1.030
322.56	1.031
322.77	1.019
322.98	1.031
323.19	1.042
323.40	1.048
323.61	1.026
323.82	1.022
324.03	1.028
324.24	1.025
324.45	1.013
324.66	0.993
324.87	0.990
325.08	0.990
325.29	0.970
325.50	0.962
325.71	0.968
325.92	0.975
326.13	0.960
326.34	0.960
326.55	0.968
326.76	0.966
326.97	0.955
327.18	0.949
327.39	0.972
327.60	0.974
327.80	0.975
328.01	0.974
328.22	0.974
328.43	0.977
328.64	0.965
328.85	0.969
329.06	0.972
329.27	0.971
329.48	0.966
329.69	0.948
329.90	0.957
330.11	0.949
330.32	0.941
330.53	0.934
330.74	0.934
330.95	0.933
331.16	0.918
331.37	0.925
331.58	0.925
331.79	0.926
332.00	0.917
332.21	0.911
332.42	0.915
332.63	0.907
332.83	0.903
333.04	0.906
333.25	0.918
333.46	0.916
333.67	0.902
333.88	0.905
334.09	0.916
334.30	0.912
334.51	0.904
334.72	0.901
334.93	0.904
335.14	0.903
335.35	0.893
335.56	0.890
335.77	0.897
335.98	0.897
336.18	0.890
336.39	0.882
336.60	0.887
336.81	0.884
337.02	0.881
337.23	0.885
337.44	0.889
337.65	0.891
337.86	0.880
338.07	0.877
338.28	0.882
338.49	0.881
338.70	0.873
338.91	0.880
339.11	0.887
339.32	0.885
339.53	0.874
339.74	0.872
339.95	0.868
340.16	0.866
340.37	0.857
340.58	0.854
340.79	0.858
341.00	0.859
341.21	0.848
341.41	0.847
341.62	0.848
341.83	0.848
342.04	0.842
342.25	0.854
342.46	0.859
342.67	0.857
342.88	0.851
343.09	0.849
343.30	0.856
343.50	0.860
343.71	0.851
343.92	0.849
344.13	0.854
344.34	0.853
344.55	0.836
344.76	0.834
344.97	0.838
345.18	0.836
345.38	0.833
345.59	0.826
345.80	0.826
346.01	0.822
346.22	0.817
346.43	0.811
346.64	0.820
346.85	0.820
347.06	0.813
347.26	0.815
347.47	0.819
347.68	0.815
347.89	0.811
348.10	0.806
348.31	0.814
348.52	0.814
348.73	0.812
348.93	0.809
349.14	0.811
349.35	0.812
349.56	0.805
349.77	0.800
349.98	0.805
350.19	0.802
350.39	0.798
350.60	0.794
350.81	0.809
351.02	0.807
351.23	0.802
351.44	0.805
351.65	0.808
351.86	0.806
352.06	0.804
352.27	0.805
352.48	0.807
352.69	0.806
352.90	0.801
353.11	0.787
353.31	0.795
353.52	0.791
353.73	0.782
353.94	0.784
354.15	0.789
354.36	0.789
354.57	0.780
354.77	0.782
354.98	0.782
355.19	0.782
355.40	0.781
355.61	0.787
355.82	0.791
356.02	0.790
356.23	0.783
356.44	0.785
356.65	0.787
356.86	0.788
357.07	0.781
357.27	0.785
357.48	0.786
357.69	0.782
357.90	0.766
358.11	0.763
358.32	0.768
358.52	0.770
358.73	0.760
358.94	0.763
359.15	0.768
359.36	0.769
359.56	0.764
359.77	0.761
359.98	0.769
360.19	0.769
360.40	0.766
360.61	0.766
360.81	0.764
361.02	0.765
361.23	0.757
361.44	0.756
361.65	0.756
361.85	0.755
362.06	0.753
362.27	0.754
362.48	0.754
362.69	0.756
362.89	0.750
363.10	0.752
363.31	0.756
363.52	0.759
363.73	0.753
363.93	0.754
364.14	0.756
364.35	0.757
364.56	0.747
364.77	0.750
364.97	0.752
365.18	0.753
365.39	0.747
365.60	0.744
365.81	0.745
366.01	0.745
366.22	0.743
366.43	0.742
366.64	0.744
366.84	0.749
367.05	0.746
367.26	0.745
367.47	0.746
367.68	0.747
367.88	0.744
368.09	0.741
368.30	0.744
368.51	0.743
368.71	0.743
368.92	0.747
369.13	0.745
369.34	0.745
369.55	0.744
369.75	0.743
369.96	0.749
370.17	0.749
370.38	0.745
370.58	0.744
370.79	0.750
371.00	0.748
371.21	0.738
371.41	0.744
371.62	0.748
371.83	0.744
372.04	0.742
372.24	0.735
372.45	0.737
372.66	0.737
372.87	0.735
373.07	0.732
373.28	0.733
373.49	0.736
373.70	0.727
373.90	0.726
374.11	0.736
374.32	0.735
374.53	0.734
374.73	0.735
374.94	0.738
375.15	0.737
375.36	0.735
375.56	0.744
375.77	0.745
375.98	0.744
376.19	0.742
376.39	0.734
376.60	0.739
376.81	0.739
377.02	0.737
377.22	0.736
377.43	0.736
377.64	0.735
377.84	0.726
378.05	0.730
378.26	0.736
378.47	0.735
378.67	0.732
378.88	0.729
379.09	0.730
379.30	0.730
379.50	0.727
379.71	0.730
379.92	0.733
380.12	0.732
380.33	0.723
380.54	0.719
380.75	0.726
380.95	0.726
381.16	0.724
381.37	0.724
381.57	0.726
381.78	0.727
381.99	0.727
382.20	0.726
382.40	0.729
382.61	0.730
382.82	0.726
383.02	0.720
383.23	0.723
383.44	0.723
383.64	0.721
383.85	0.723
384.06	0.726
384.27	0.723
384.47	0.721
384.68	0.721
384.89	0.728
385.09	0.727
385.30	0.727
385.51	0.726
385.71	0.730
385.92	0.731
386.13	0.729
386.33	0.732
386.54	0.732
386.75	0.732
386.95	0.728
387.16	0.722
387.37	0.725
387.58	0.725
387.78	0.723
387.99	0.721
388.20	0.723
388.40	0.720
388.61	0.716
388.82	0.719
389.02	0.721
389.23	0.721
389.44	0.720
389.64	0.720
389.85	0.731
390.06	0.730
390.26	0.730
390.47	0.728
390.68	0.731
390.88	0.729
391.09	0.725
391.30	0.725
391.50	0.724
391.71	0.724
391.92	0.721
392.12	0.713
392.33	0.714
392.53	0.714
392.74	0.715
392.95	0.714
393.15	0.716
393.36	0.718
393.57	0.716
393.77	0.720
393.98	0.722
394.19	0.722
394.39	0.722
394.60	0.723
394.81	0.725
395.01	0.723
395.22	0.721
395.43	0.722
395.63	0.727
395.84	0.728
396.04	0.724
396.25	0.726
396.46	0.727
396.66	0.725
396.87	0.723
397.08	0.720
397.28	0.723
397.49	0.724
397.69	0.721
397.90	0.717
398.11	0.718
398.31	0.719
398.52	0.715
398.73	0.716
398.93	0.715
399.14	0.715
399.34	0.713
399.55	0.714
399.76	0.715
399.96	0.716
400.17	0.714
400.37	0.712
400.58	0.719
400.79	0.721
400.99	0.719
401.20	0.724
401.41	0.726
401.61	0.728
401.82	0.733
402.02	0.732
402.23	0.733
402.44	0.732
402.64	0.732
402.85	0.727
403.05	0.726
403.26	0.726
403.47	0.720
403.67	0.719
403.88	0.721
404.08	0.715
404.29	0.713
404.50	0.712
404.70	0.712
404.91	0.711
405.11	0.708
405.32	0.708
405.52	0.709
405.73	0.708
405.94	0.706
406.14	0.707
406.35	0.709
406.55	0.708
406.76	0.706
406.97	0.707
407.17	0.711
407.38	0.711
407.58	0.709
407.79	0.712
407.99	0.715
408.20	0.716
408.41	0.712
408.61	0.710
408.82	0.712
409.02	0.711
409.23	0.709
409.43	0.707
409.64	0.708
409.84	0.707
410.05	0.704
410.26	0.703
410.46	0.702
410.67	0.702
410.87	0.703
411.08	0.704
411.28	0.706
411.49	0.708
411.69	0.705
411.90	0.707
412.11	0.709
412.31	0.709
412.52	0.707
412.72	0.708
412.93	0.709
413.13	0.707
413.34	0.704
413.54	0.705
413.75	0.707
413.95	0.706
414.16	0.703
414.37	0.706
414.57	0.706
414.78	0.709
414.98	0.707
415.19	0.708
415.39	0.706
415.60	0.708
415.80	0.707
416.01	0.705
416.21	0.707
416.42	0.707
416.62	0.702
416.83	0.703
417.03	0.702
417.24	0.702
417.44	0.700
417.65	0.699
417.86	0.700
418.06	0.699
418.27	0.696
418.47	0.698
418.68	0.699
418.88	0.698
419.09	0.696
419.29	0.697
419.50	0.698
419.70	0.698
419.91	0.696
420.11	0.694
420.32	0.696
420.52	0.695
420.73	0.695
420.93	0.696
421.14	0.698
421.34	0.697
421.55	0.693
421.75	0.692
421.96	0.694
422.16	0.694
422.37	0.694
422.57	0.691
422.78	0.693
422.98	0.689
423.19	0.686
423.39	0.684
423.60	0.688
423.80	0.690
424.01	0.688
424.21	0.690
424.42	0.691
424.62	0.690
424.83	0.689
425.03	0.690
425.23	0.692
425.44	0.692
425.64	0.693
425.85	0.692
426.05	0.693
426.26	0.693
426.46	0.689
426.67	0.689
426.87	0.695
427.08	0.695
427.28	0.692
427.49	0.693
427.69	0.694
427.90	0.693
428.10	0.690
428.31	0.690
428.51	0.692
428.71	0.691
428.92	0.691
429.12	0.688
429.33	0.689
429.53	0.693
429.74	0.697
429.94	0.697
430.15	0.696
430.35	0.696
430.56	0.692
430.76	0.692
430.96	0.693
431.17	0.690
431.37	0.687
431.58	0.686
431.78	0.683
431.99	0.675
432.19	0.678
432.40	0.680
432.60	0.681
432.80	0.683
433.01	0.681
433.21	0.682
433.42	0.683
433.62	0.684
433.83	0.683
434.03	0.685
434.23	0.688
434.44	0.688
434.64	0.685
434.85	0.690
435.05	0.691
435.26	0.691
435.46	0.689
435.66	0.689
435.87	0.689
436.07	0.689
436.28	0.685
436.48	0.682
436.69	0.681
436.89	0.681
437.09	0.675
437.30	0.674
437.50	0.675
437.71	0.687
437.91	0.685
438.11	0.686
438.32	0.691
438.52	0.691
438.73	0.690
438.93	0.689
439.13	0.688
439.34	0.691
439.54	0.689
439.75	0.688
439.95	0.678
440.15	0.682
440.36	0.681
440.56	0.678
440.77	0.679
440.97	0.679
441.17	0.678
441.38	0.680
441.58	0.677
441.79	0.678
441.99	0.676
442.19	0.675
442.40	0.672
442.60	0.672
442.81	0.669
443.01	0.670
443.21	0.670
443.42	0.669
443.62	0.668
443.82	0.668
444.03	0.669
444.23	0.669
444.44	0.669
444.64	0.668
444.84	0.669
445.05	0.669
445.25	0.666
445.45	0.667
445.66	0.669
445.86	0.668
446.06	0.669
446.27	0.668
446.47	0.672
446.68	0.670
446.88	0.669
447.08	0.669
447.29	0.670
447.49	0.670
447.69	0.670
447.90	0.669
448.10	0.673
448.30	0.670
448.51	0.671
448.71	0.668
448.91	0.671
449.12	0.669
449.32	0.671
449.52	0.670
449.73	0.674
449.93	0.673
450.14	0.673
450.34	0.672
450.54	0.674
450.75	0.671
450.95	0.671
451.15	0.670
451.36	0.673
451.56	0.669
451.76	0.668
451.97	0.665
452.17	0.665
452.37	0.664
452.58	0.661
452.78	0.661
452.98	0.663
453.19	0.662
453.39	0.662
453.59	0.661
453.79	0.662
454.00	0.662
454.20	0.661
454.40	0.662
454.61	0.664
454.81	0.664
455.01	0.663
455.22	0.664
455.42	0.666
455.62	0.664
455.83	0.663
456.03	0.666
456.23	0.667
456.44	0.668
456.64	0.666
456.84	0.666
457.04	0.667
457.25	0.666
457.45	0.663
457.65	0.662
457.86	0.663
458.06	0.662
458.26	0.658
458.47	0.657
458.67	0.659
458.87	0.659
459.07	0.656
459.28	0.658
459.48	0.661
459.68	0.661
459.89	0.660
460.09	0.658
460.29	0.660
460.49	0.660
460.70	0.659
460.90	0.659
461.10	0.660
461.31	0.659
461.51	0.656
461.71	0.657
461.91	0.658
462.12	0.658
462.32	0.657
462.52	0.658
462.72	0.661
462.93	0.661
463.13	0.659
463.33	0.660
463.53	0.662
463.74	0.661
463.94	0.657
464.14	0.657
464.35	0.658
464.55	0.659
464.75	0.657
464.95	0.654
465.16	0.657
465.36	0.656
465.56	0.655
465.76	0.654
465.97	0.655
466.17	0.656
466.37	0.654
466.57	0.655
466.78	0.656
466.98	0.656
467.18	0.654
467.38	0.653
467.59	0.654
467.79	0.656
467.99	0.655
468.19	0.657
468.39	0.659
468.60	0.660
468.80	0.658
469.00	0.659
469.20	0.660
469.41	0.661
469.61	0.659
469.81	0.659
470.01	0.659
470.22	0.659
470.42	0.657
470.62	0.655
470.82	0.656
471.02	0.655
471.23	0.653
471.43	0.653
471.63	0.656
471.83	0.655
472.04	0.653
472.24	0.652
472.44	0.658
472.64	0.658
472.84	0.656
473.05	0.655
473.25	0.659
473.45	0.658
473.65	0.656
473.85	0.656
474.06	0.659
474.26	0.659
474.46	0.660
474.66	0.656
474.86	0.657
475.07	0.657
475.27	0.655
475.47	0.652
475.67	0.653
475.87	0.656
476.08	0.652
476.28	0.653
476.48	0.655
476.68	0.653
476.88	0.650
477.09	0.652
477.29	0.654
477.49	0.653
477.69	0.653
477.89	0.653
478.09	0.652
478.30	0.653
478.50	0.650
478.70	0.650
478.90	0.651
479.10	0.653
479.31	0.654
479.51	0.652
479.71	0.653
479.91	0.653
480.11	0.651
480.31	0.652
480.52	0.651
480.72	0.650
480.92	0.649
481.12	0.647
481.32	0.645
481.52	0.643
481.72	0.643
481.93	0.647
482.13	0.648
482.33	0.648
482.53	0.646
482.73	0.647
482.93	0.648
483.14	0.648
483.34	0.647
483.54	0.648
483.74	0.648
483.94	0.646
484.14	0.642
484.34	0.642
484.55	0.642
484.75	0.642
484.95	0.641
485.15	0.640
485.35	0.640
485.55	0.640
485.75	0.638
485.96	0.638
486.16	0.640
486.36	0.639
486.56	0.637
486.76	0.637
486.96	0.638
487.16	0.637
487.36	0.635
487.57	0.635
487.77	0.636
487.97	0.637
488.17	0.635
488.37	0.634
488.57	0.635
488.77	0.635
488.97	0.634
489.18	0.633
489.38	0.636
489.58	0.637
489.78	0.636
489.98	0.635
490.18	0.635
490.38	0.636
490.58	0.635
490.78	0.635
490.98	0.637
491.19	0.637
491.39	0.637
491.59	0.635
491.79	0.638
491.99	0.639
492.19	0.638
492.39	0.641
492.59	0.641
492.79	0.643
492.99	0.643
493.20	0.642
493.40	0.642
493.60	0.643
493.80	0.642
494.00	0.639
494.20	0.640
494.40	0.639
494.60	0.638
494.80	0.642
495.00	0.641
495.20	0.640
495.40	0.639
495.61	0.641
495.81	0.641
496.01	0.645
496.21	0.646
496.41	0.645
496.61	0.645
496.81	0.644
497.01	0.638
497.21	0.638
497.41	0.639
497.61	0.638
497.81	0.636
498.01	0.636
498.21	0.634
498.41	0.631
498.61	0.632
498.82	0.633
499.02	0.635
499.22	0.636
499.42	0.635
499.62	0.636
499.82	0.636
500.02	0.638
500.22	0.636
500.42	0.638
500.62	0.639
500.82	0.639
501.02	0.636
501.22	0.637
501.42	0.637
501.62	0.640
501.82	0.639
502.02	0.639
502.22	0.639
502.42	0.641
502.62	0.638
502.82	0.638
503.02	0.639
503.22	0.639
503.42	0.637
503.63	0.637
503.83	0.634
504.03	0.633
504.23	0.632
504.43	0.632
504.63	0.633
504.83	0.632
505.03	0.632
505.23	0.633
505.43	0.635
505.63	0.635
505.83	0.635
506.03	0.637
506.23	0.639
506.43	0.639
506.63	0.638
506.83	0.637
507.03	0.640
507.23	0.640
507.43	0.637
507.63	0.638
507.83	0.639
508.03	0.639
508.23	0.638
508.43	0.637
508.63	0.638
508.83	0.639
509.03	0.639
509.23	0.638
509.43	0.639
509.63	0.640
509.83	0.639
510.03	0.641
510.23	0.643
510.43	0.644
510.63	0.644
510.83	0.643
511.03	0.644
511.23	0.643
511.43	0.642
511.63	0.644
511.83	0.646
512.03	0.645
512.22	0.642
512.42	0.641
512.62	0.642
512.82	0.642
513.02	0.642
513.22	0.641
513.42	0.643
513.62	0.646
513.82	0.644
514.02	0.644
514.22	0.645
514.42	0.646
514.62	0.646
514.82	0.645
515.02	0.648
515.22	0.651
515.42	0.650
515.62	0.652
515.82	0.650
516.02	0.652
516.22	0.652
516.42	0.653
516.62	0.654
516.82	0.656
517.01	0.654
517.21	0.653
517.41	0.657
517.61	0.658
517.81	0.654
518.01	0.654
518.21	0.653
518.41	0.652
518.61	0.650
518.81	0.651
519.01	0.651
519.21	0.651
519.41	0.650
519.61	0.645
519.81	0.648
520.00	0.648
520.20	0.648
520.40	0.651
520.60	0.652
520.80	0.651
521.00	0.651
521.20	0.652
521.40	0.657
521.60	0.657
521.80	0.656
522.00	0.656
522.20	0.659
522.39	0.658
522.59	0.655
522.79	0.657
522.99	0.659
523.19	0.658
523.39	0.656
523.59	0.654
523.79	0.656
523.99	0.659
524.19	0.658
524.38	0.656
524.58	0.658
524.78	0.658
524.98	0.656
525.18	0.658
525.38	0.659
525.58	0.660
525.78	0.657
525.98	0.656
526.18	0.656
526.37	0.655
526.57	0.657
526.77	0.657
526.97	0.658
527.17	0.658
527.37	0.653
527.57	0.655
527.77	0.657
527.96	0.657
528.16	0.656
528.36	0.657
528.56	0.659
528.76	0.656
528.96	0.655
529.16	0.657
529.36	0.660
529.55	0.661
529.75	0.658
529.95	0.658
530.15	0.659
530.35	0.662
530.55	0.660
530.75	0.660
530.94	0.661
531.14	0.662
531.34	0.659
531.54	0.657
531.74	0.660
531.94	0.663
532.13	0.662
532.33	0.663
532.53	0.662
532.73	0.662
532.93	0.660
533.13	0.661
533.33	0.662
533.52	0.662
533.72	0.666
533.92	0.663
534.12	0.662
534.32	0.661
534.52	0.660
534.71	0.661
534.91	0.664
535.11	0.665
535.31	0.664
535.51	0.666
535.71	0.668
535.90	0.664
536.10	0.665
536.30	0.667
536.50	0.668
536.70	0.668
536.89	0.666
537.09	0.665
537.29	0.667
537.49	0.667
537.69	0.665
537.89	0.666
538.08	0.666
538.28	0.664
538.48	0.665
538.68	0.666
538.88	0.668
539.07	0.668
539.27	0.667
539.47	0.665
539.67	0.666
539.87	0.668
540.06	0.665
540.26	0.666
540.46	0.669
540.66	0.666
540.86	0.663
541.05	0.663
541.25	0.665
541.45	0.664
541.65	0.664
541.84	0.665
542.04	0.666
542.24	0.667
542.44	0.666
542.64	0.666
542.83	0.669
543.03	0.670
543.23	0.667
543.43	0.668
543.62	0.669
543.82	0.670
544.02	0.668
544.22	0.668
544.42	0.671
544.61	0.672
544.81	0.669
545.01	0.668
545.21	0.669
545.40	0.670
545.60	0.669
545.80	0.672
546.00	0.672
546.19	0.672
546.39	0.671
546.59	0.668
546.79	0.670
546.98	0.671
547.18	0.670
547.38	0.671
547.58	0.673
547.77	0.673
547.97	0.669
548.17	0.671
548.37	0.671
548.56	0.671
548.76	0.670
548.96	0.671
549.16	0.673
549.35	0.672
549.55	0.671
549.75	0.671
549.95	0.674
550.14	0.674
550.34	0.672
550.54	0.678
550.73	0.682
550.93	0.683
551.13	0.680
551.33	0.679
551.52	0.680
551.72	0.680
551.92	0.678
552.12	0.679
552.31	0.680
552.51	0.679
552.71	0.674
552.90	0.673
553.10	0.675
553.30	0.675
553.50	0.673
553.69	0.675
553.89	0.675
554.09	0.676
554.28	0.672
554.48	0.673
554.68	0.675
554.87	0.675
555.07	0.672
555.27	0.672
555.47	0.674
555.66	0.675
555.86	0.673
556.06	0.676
556.25	0.677
556.45	0.686
556.65	0.684
556.84	0.688
557.04	0.691
557.24	0.693
557.43	0.693
557.63	0.695
557.83	0.698
558.02	0.698
558.22	0.701
558.42	0.701
558.61	0.694
558.81	0.694
559.01	0.690
559.21	0.690
559.40	0.691
559.60	0.691
559.80	0.687
559.99	0.688
560.19	0.690
560.39	0.684
560.58	0.682
560.78	0.682
560.97	0.686
561.17	0.685
561.37	0.682
561.56	0.683
561.76	0.685
561.96	0.685
562.15	0.682
562.35	0.684
562.55	0.685
562.74	0.685
562.94	0.684
563.14	0.681
563.33	0.682
563.53	0.682
563.73	0.679
563.92	0.681
564.12	0.683
564.31	0.685
564.51	0.683
564.71	0.685
564.90	0.688
565.10	0.689
565.30	0.692
565.49	0.693
565.69	0.695
565.89	0.696
566.08	0.693
566.28	0.694
566.47	0.696
566.67	0.695
566.87	0.692
567.06	0.694
567.26	0.700
567.46	0.696
567.65	0.695
567.85	0.696
568.04	0.699
568.24	0.698
568.44	0.695
568.63	0.694
568.83	0.695
569.02	0.694
569.22	0.689
569.42	0.686
569.61	0.689
569.81	0.688
570.00	0.685
570.20	0.687
570.40	0.688
570.59	0.688
570.79	0.686
570.98	0.684
571.18	0.686
571.38	0.686
571.57	0.683
571.77	0.680
571.96	0.683
572.16	0.680
572.35	0.675
572.55	0.676
572.75	0.675
572.94	0.674
573.14	0.672
573.33	0.672
573.53	0.673
573.73	0.672
573.92	0.670
574.12	0.668
574.31	0.671
574.51	0.672
574.70	0.669
574.90	0.671
575.09	0.673
575.29	0.673
575.49	0.670
575.68	0.671
575.88	0.672
576.07	0.673
576.27	0.671
576.46	0.670
576.66	0.669
576.86	0.669
577.05	0.666
577.25	0.664
577.44	0.666
577.64	0.666
577.83	0.665
578.03	0.666
578.22	0.665
578.42	0.664
578.61	0.663
578.81	0.664
579.00	0.664
579.20	0.664
579.40	0.663
579.59	0.662
579.79	0.662
579.98	0.661
580.18	0.661
580.37	0.660
580.57	0.663
580.76	0.667
580.96	0.665
581.15	0.666
581.35	0.668
581.54	0.668
581.74	0.667
581.93	0.669
582.13	0.670
582.32	0.667
582.52	0.665
582.71	0.664
582.91	0.660
583.10	0.660
583.30	0.659
583.49	0.658
583.69	0.662
583.88	0.663
584.08	0.662
584.27	0.664
584.47	0.668
584.66	0.669
584.86	0.668
585.05	0.671
585.25	0.673
585.44	0.673
585.64	0.671
585.83	0.668
586.03	0.668
586.22	0.666
586.42	0.663
586.61	0.663
586.81	0.665
587.00	0.665
587.20	0.663
587.39	0.663
587.59	0.665
587.78	0.666
587.98	0.667
588.17	0.668
588.37	0.670
588.56	0.672
588.76	0.668
588.95	0.668
589.15	0.673
589.34	0.675
589.54	0.674
589.73	0.674
589.92	0.677
590.12	0.677
590.31	0.675
590.51	0.679
590.70	0.681
590.90	0.682
591.09	0.681
591.29	0.679
591.48	0.679
591.68	0.680
591.87	0.678
592.06	0.678
592.26	0.681
592.45	0.680
592.65	0.674
592.84	0.673
593.04	0.676
593.23	0.678
593.43	0.675
593.62	0.675
593.81	0.675
594.01	0.674
594.20	0.672
594.40	0.670
594.59	0.673
594.79	0.674
594.98	0.672
595.17	0.671
595.37	0.672
595.56	0.674
595.76	0.673
595.95	0.675
596.14	0.678
596.34	0.679
596.53	0.677
596.73	0.678
596.92	0.680
597.12	0.682
597.31	0.682
597.50	0.681
597.70	0.683
597.89	0.683
598.09	0.678
598.28	0.680
598.47	0.682
598.67	0.681
598.86	0.677
599.06	0.679
599.25	0.680
599.44	0.678
599.64	0.675
599.83	0.672
600.03	0.675
600.22	0.676
600.41	0.677
600.61	0.674
600.80	0.677
601.00	0.677
601.19	0.672
601.38	0.671
601.58	0.674
601.77	0.675
601.96	0.677
602.16	0.677
602.35	0.685
602.55	0.683
602.74	0.683
602.93	0.685
603.13	0.691
603.32	0.693
603.51	0.691
603.71	0.695
603.90	0.697
604.09	0.698
604.29	0.695
604.48	0.690
604.68	0.691
604.87	0.690
605.06	0.686
605.26	0.683
605.45	0.684
605.64	0.684
605.84	0.679
606.03	0.678
606.22	0.677
606.42	0.676
606.61	0.673
606.80	0.673
607.00	0.674
607.19	0.674
607.38	0.673
607.58	0.674
607.77	0.677
607.96	0.677
608.16	0.675
608.35	0.679
608.54	0.681
608.74	0.684
608.93	0.689
609.12	0.692
609.32	0.695
609.51	0.698
609.70	0.697
609.90	0.698
610.09	0.702
610.28	0.708
610.48	0.702
610.67	0.704
610.86	0.704
611.06	0.699
611.25	0.696
611.44	0.697
611.64	0.697
611.83	0.699
612.02	0.695
612.21	0.694
612.41	0.692
612.60	0.691
612.79	0.686
612.99	0.687
613.18	0.689
613.37	0.687
613.57	0.684
613.76	0.685
613.95	0.683
614.14	0.683
614.34	0.681
614.53	0.682
614.72	0.685
614.92	0.685
615.11	0.682
615.30	0.678
615.49	0.681
615.69	0.683
615.88	0.680
616.07	0.682
616.26	0.684
616.46	0.685
616.65	0.681
616.84	0.680
617.04	0.682
617.23	0.685
617.42	0.686
617.61	0.689
617.81	0.689
618.00	0.691
618.19	0.689
618.38	0.692
618.58	0.696
618.77	0.698
618.96	0.697
619.15	0.698
619.35	0.700
619.54	0.700
619.73	0.696
619.92	0.698
620.12	0.703
620.31	0.704
620.50	0.699
620.69	0.699
620.89	0.702
621.08	0.702
621.27	0.703
621.46	0.702
621.66	0.706
621.85	0.706
622.04	0.701
622.23	0.702
622.43	0.702
622.62	0.702
622.81	0.701
623.00	0.701
623.19	0.705
623.39	0.703
623.58	0.700
623.77	0.698
623.96	0.702
624.16	0.702
624.35	0.697
624.54	0.699
624.73	0.703
624.92	0.701
625.12	0.698
625.31	0.699
625.50	0.702
625.69	0.703
625.88	0.700
626.08	0.699
626.27	0.700
626.46	0.700
626.65	0.697
626.84	0.697
627.04	0.702
627.23	0.702
627.42	0.697
627.61	0.699
627.80	0.702
628.00	0.703
628.19	0.701
628.38	0.705
628.57	0.708
628.76	0.707
628.96	0.703
629.15	0.705
629.34	0.708
629.53	0.708
629.72	0.703
629.91	0.704
630.11	0.709
630.30	0.709
630.49	0.711
630.68	0.712
630.87	0.716
631.06	0.718
631.26	0.713
631.45	0.715
631.64	0.723
631.83	0.726
632.02	0.723
632.21	0.720
632.41	0.727
632.60	0.723
632.79	0.721
632.98	0.722
633.17	0.723
633.36	0.725
633.55	0.721
633.75	0.715
633.94	0.717
634.13	0.717
634.32	0.715
634.51	0.709
634.70	0.710
634.89	0.709
635.09	0.704
635.28	0.704
635.47	0.706
635.66	0.708
635.85	0.705
636.04	0.706
636.23	0.711
636.43	0.713
636.62	0.713
636.81	0.712
637.00	0.714
637.19	0.718
637.38	0.715
637.57	0.714
637.76	0.716
637.95	0.717
638.15	0.714
638.34	0.710
638.53	0.713
638.72	0.715
638.91	0.712
639.10	0.710
639.29	0.710
639.48	0.712
639.67	0.712
639.87	0.710
640.06	0.715
640.25	0.714
640.44	0.714
640.63	0.715
640.82	0.717
641.01	0.717
641.20	0.716
641.39	0.718
641.58	0.720
641.78	0.718
641.97	0.715
642.16	0.730
642.35	0.731
642.54	0.729
642.73	0.724
642.92	0.723
643.11	0.727
643.30	0.726
643.49	0.720
643.68	0.723
643.87	0.724
644.06	0.726
644.25	0.706
644.45	0.710
644.64	0.711
644.83	0.711
645.02	0.707
645.21	0.707
645.40	0.708
645.59	0.709
645.78	0.703
645.97	0.705
646.16	0.705
646.35	0.703
646.54	0.700
646.73	0.702
646.92	0.703
647.11	0.703
647.30	0.699
647.49	0.701
647.68	0.701
647.88	0.699
648.07	0.692
648.26	0.695
648.45	0.698
648.64	0.694
648.83	0.692
649.02	0.694
649.21	0.704
649.40	0.702
649.59	0.697
649.78	0.699
649.97	0.714
650.16	0.713
650.35	0.707
650.54	0.711
650.73	0.720
650.92	0.716
651.11	0.710
651.30	0.707
651.49	0.711
651.68	0.712
651.87	0.707
652.06	0.696
652.25	0.701
652.44	0.704
652.63	0.701
652.82	0.701
653.01	0.702
653.20	0.700
653.39	0.688
653.58	0.686
653.77	0.686
653.96	0.682
654.15	0.674
654.34	0.671
654.53	0.667
654.72	0.661
654.91	0.652
655.10	0.648
655.29	0.646
655.48	0.644
655.67	0.639
655.86	0.636
656.05	0.635
656.24	0.635
656.43	0.630
656.62	0.628
656.81	0.628
657.00	0.626
657.19	0.623
657.38	0.622
657.57	0.621
657.76	0.623
657.95	0.621
658.14	0.624
658.33	0.626
658.51	0.631
658.70	0.631
658.89	0.632
659.08	0.642
659.27	0.649
659.46	0.649
659.65	0.656
659.84	0.660
660.03	0.663
660.22	0.664
660.41	0.668
660.60	0.668
660.79	0.669
660.98	0.675
661.17	0.673
661.36	0.672
661.55	0.673
661.74	0.671
661.92	0.674
662.11	0.676
662.30	0.675
662.49	0.668
662.68	0.668
662.87	0.672
663.06	0.667
663.25	0.668
663.44	0.668
663.63	0.669
663.82	0.667
664.01	0.662
664.20	0.660
664.38	0.662
664.57	0.661
664.76	0.660
664.95	0.660
665.14	0.663
665.33	0.658
665.52	0.665
665.71	0.669
665.90	0.669
666.09	0.670
666.28	0.668
666.46	0.668
666.65	0.670
666.84	0.668
667.03	0.662
667.22	0.660
667.41	0.663
667.60	0.653
667.79	0.646
667.98	0.647
668.16	0.648
668.35	0.648
668.54	0.644
668.73	0.645
668.92	0.646
669.11	0.645
669.30	0.640
669.49	0.637
669.67	0.639
669.86	0.641
670.05	0.638
670.24	0.635
670.43	0.633
670.62	0.633
670.81	0.627
671.00	0.628
671.18	0.627
671.37	0.627
671.56	0.625
671.75	0.624
671.94	0.621
672.13	0.619
672.32	0.615
672.50	0.615
672.69	0.615
672.88	0.615
673.07	0.611
673.26	0.614
673.45	0.616
673.63	0.615
673.82	0.611
674.01	0.613
674.20	0.613
674.39	0.612
674.58	0.612
674.76	0.611
674.95	0.611
675.14	0.611
675.33	0.606
675.52	0.604
675.71	0.604
675.89	0.604
676.08	0.600
676.27	0.600
676.46	0.601
676.65	0.600
676.84	0.599
677.02	0.601
677.21	0.603
677.40	0.602
677.59	0.600
677.78	0.600
677.96	0.602
678.15	0.602
678.34	0.600
678.53	0.600
678.72	0.600
678.90	0.597
679.09	0.592
679.28	0.589
679.47	0.589
679.66	0.589
679.84	0.585
680.03	0.582
680.22	0.581
680.41	0.582
680.60	0.579
680.78	0.578
680.97	0.581
681.16	0.581
681.35	0.580
681.53	0.578
681.72	0.579
681.91	0.581
682.10	0.580
682.29	0.582
682.47	0.580
682.66	0.580
682.85	0.579
683.04	0.577
683.22	0.577
683.41	0.578
683.60	0.577
683.79	0.578
683.97	0.577
684.16	0.575
684.35	0.572
684.54	0.573
684.72	0.573
684.91	0.574
685.10	0.572
685.29	0.573
685.47	0.570
685.66	0.569
685.85	0.566
686.04	0.565
686.22	0.568
686.41	0.570
686.60	0.568
686.79	0.570
686.97	0.572
687.16	0.573
687.35	0.571
687.54	0.575
687.72	0.579
687.91	0.579
688.10	0.580
688.29	0.580
688.47	0.579
688.66	0.578
688.85	0.574
689.03	0.572
689.22	0.576
689.41	0.576
689.60	0.571
689.78	0.568
689.97	0.569
690.16	0.567
690.34	0.563
690.53	0.562
690.72	0.562
690.91	0.560
691.09	0.558
691.28	0.552
691.47	0.551
691.65	0.550
691.84	0.547
692.03	0.546
692.21	0.544
692.40	0.544
692.59	0.541
692.77	0.540
692.96	0.542
693.15	0.542
693.34	0.540
693.52	0.539
693.71	0.540
693.90	0.541
694.08	0.542
694.27	0.543
694.46	0.552
694.64	0.553
694.83	0.552
695.02	0.551
695.20	0.551
695.39	0.551
695.58	0.552
695.76	0.552
695.95	0.552
696.14	0.551
696.32	0.548
696.51	0.540
696.70	0.539
696.88	0.540
697.07	0.539
697.26	0.540
697.44	0.541
697.63	0.540
697.81	0.537
698.00	0.537
698.19	0.536
698.37	0.536
698.56	0.536
698.75	0.535
698.93	0.535
699.12	0.535
699.31	0.535
699.49	0.534
699.68	0.535
699.87	0.537
700.05	0.537
700.24	0.536
700.42	0.538
700.61	0.537
700.80	0.535
700.98	0.535
701.17	0.537
701.36	0.535
701.54	0.534
701.73	0.536
701.91	0.534
702.10	0.533
702.29	0.531
702.47	0.530
702.66	0.532
702.84	0.533
703.03	0.531
703.22	0.532
703.40	0.532
703.59	0.533
703.77	0.532
703.96	0.532
704.15	0.533
704.33	0.533
704.52	0.533
704.70	0.532
704.89	0.532
705.08	0.531
705.26	0.527
705.45	0.528
705.63	0.528
705.82	0.525
706.00	0.524
706.19	0.524
706.38	0.523
706.56	0.523
706.75	0.521
706.93	0.519
707.12	0.520
707.30	0.520
707.49	0.517
707.68	0.515
707.86	0.514
708.05	0.514
708.23	0.511
708.42	0.512
708.60	0.514
708.79	0.514
708.98	0.513
709.16	0.512
709.35	0.514
709.53	0.518
709.72	0.517
709.90	0.519
710.09	0.521
710.27	0.523
710.46	0.526
710.64	0.525
710.83	0.526
711.02	0.528
711.20	0.527
711.39	0.525
711.57	0.522
711.76	0.523
711.94	0.521
712.13	0.522
712.31	0.522
712.50	0.517
712.68	0.515
712.87	0.517
713.05	0.517
713.24	0.517
713.42	0.516
713.61	0.517
713.79	0.518
713.98	0.518
714.16	0.518
714.35	0.517
714.54	0.517
714.72	0.517
714.91	0.514
715.09	0.521
715.28	0.525
715.46	0.525
715.65	0.522
715.83	0.522
716.02	0.525
716.20	0.521
716.39	0.520
716.57	0.522
716.76	0.524
716.94	0.524
717.12	0.515
717.31	0.516
717.49	0.520
717.68	0.522
717.86	0.521
718.05	0.523
718.23	0.526
718.42	0.529
718.60	0.529
718.79	0.537
718.97	0.540
719.16	0.541
719.34	0.538
719.53	0.538
719.71	0.537
719.90	0.539
720.08	0.536
720.27	0.536
720.45	0.536
720.63	0.535
720.82	0.529
721.00	0.531
721.19	0.534
721.37	0.534
721.56	0.534
721.74	0.537
721.93	0.545
722.11	0.552
722.30	0.551
722.48	0.557
722.66	0.558
722.85	0.558
723.03	0.559
723.22	0.557
723.40	0.561
723.59	0.561
723.77	0.564
723.95	0.558
724.14	0.559
724.32	0.561
724.51	0.559
724.69	0.560
724.88	0.561
725.06	0.558
725.24	0.559
725.43	0.561
725.61	0.565
725.80	0.558
725.98	0.555
726.16	0.551
726.35	0.557
726.53	0.557
726.72	0.555
726.90	0.566
727.09	0.568
727.27	0.574
727.45	0.571
727.64	0.579
727.82	0.588
728.01	0.594
728.19	0.591
728.37	0.596
728.56	0.600
728.74	0.606
728.92	0.594
729.11	0.595
729.29	0.593
729.48	0.595
729.66	0.583
729.84	0.583
730.03	0.586
730.21	0.588
730.40	0.578
730.58	0.579
730.76	0.579
730.95	0.582
731.13	0.580
731.31	0.593
731.50	0.602
731.68	0.605
731.86	0.600
732.05	0.614
732.23	0.617
732.42	0.620
732.60	0.623
732.78	0.627
732.97	0.644
733.15	0.652
733.33	0.639
733.52	0.647
733.70	0.657
733.88	0.668
734.07	0.655
734.25	0.680
734.43	0.687
734.62	0.691
734.80	0.686
734.98	0.676
735.17	0.683
735.35	0.690
735.53	0.677
735.72	0.681
735.90	0.700
736.08	0.717
736.27	0.695
736.45	0.704
736.63	0.716
736.82	0.725
737.00	0.726
737.18	0.736
737.37	0.763
737.55	0.785
737.73	0.779
737.92	0.781
738.10	0.776
738.28	0.793
738.46	0.785
738.65	0.794
738.83	0.816
739.01	0.866
739.20	0.858
739.38	0.844
739.56	0.835
739.75	0.840
739.93	0.810
740.11	0.836
740.29	0.838
740.48	0.841
740.66	0.824
740.84	0.815
741.03	0.781
741.21	0.791
741.39	0.775
741.57	0.791
741.76	0.806
741.94	0.809
742.12	0.776
742.31	0.781
742.49	0.799
742.67	0.818
742.85	0.832
743.04	0.837
743.22	0.845
743.40	0.897
743.58	0.876
743.77	0.891
743.95	0.928
744.13	0.977
744.31	0.957
744.50	0.952
744.68	0.956
744.86	0.932
745.04	0.943
745.23	1.004
745.41	0.978
745.59	0.982
745.77	0.948
745.96	0.936
746.14	0.944
746.32	0.944
746.50	0.931
746.69	0.914
746.87	0.921
747.05	0.906
747.23	0.837
747.42	0.825
747.60	0.852
747.78	0.856
747.96	0.884
748.14	0.840
748.33	0.863
748.51	0.859
748.69	0.854
748.87	0.880
749.06	0.878
749.24	0.878
749.42	0.867
749.60	0.848
749.78	0.853
749.97	0.810
750.15	0.807
750.33	0.808
750.51	0.831
750.69	0.832
750.88	0.836
751.06	0.846
751.24	0.872
751.42	0.863
751.60	0.854
751.79	0.924
751.97	0.965
752.15	0.962
752.33	0.933
752.51	0.994
752.69	1.014
752.88	0.983
753.06	1.023
753.24	0.994
753.42	1.029
753.60	1.188
753.78	1.055
753.97	1.070
754.15	1.088
754.33	1.122
754.51	1.006
754.69	0.986
754.87	1.018
755.06	0.950
755.24	0.953
755.42	0.959
755.60	0.868
755.78	0.879
755.96	0.828
756.15	0.830
756.33	0.831
756.51	0.848
756.69	0.837
756.87	0.804
757.05	0.823
757.23	0.807
757.42	0.777
757.60	0.773
757.78	0.762
757.96	0.762
758.14	0.742
758.32	0.729
758.50	0.740
758.69	0.738
758.87	0.732
759.05	0.733
759.23	0.743
759.41	0.745
759.59	0.736
759.77	0.755
759.95	0.779
760.13	0.828
760.32	0.830
760.50	0.824
760.68	0.849
760.86	0.848
761.04	0.826
761.22	0.828
761.40	0.872
761.58	0.872
761.76	0.847
761.95	0.829
762.13	0.788
762.31	0.786
762.49	0.758
762.67	0.776
762.85	0.789
763.03	0.783
763.21	0.767
763.39	0.747
763.57	0.751
763.75	0.749
763.94	0.735
764.12	0.736
764.30	0.758
764.48	0.762
764.66	0.727
764.84	0.724
765.02	0.761
765.20	0.769
765.38	0.751
765.56	0.758
765.74	0.792
765.92	0.793
766.10	0.798
766.28	0.790
766.46	0.816
766.65	0.817
766.83	0.807
767.01	0.789
767.19	0.791
767.37	0.792
767.55	0.779
767.73	0.761
767.91	0.762
768.09	0.751
768.27	0.743
768.45	0.735
768.63	0.739
768.81	0.740
768.99	0.716
769.17	0.741
769.35	0.754
769.53	0.753
769.71	0.733
769.89	0.741
770.07	0.749
770.25	0.733
770.43	0.714
770.61	0.736
770.79	0.740
770.97	0.750
771.15	0.722
771.33	0.723
771.51	0.722
771.69	0.735
771.87	0.747
772.05	0.751
772.24	0.758
772.42	0.766
772.60	0.745
772.78	0.801
772.96	0.826
773.14	0.822
773.32	0.801
773.49	0.812
773.67	0.811
773.85	0.786
774.03	0.775
774.21	0.805
774.39	0.814
774.57	0.835
774.75	0.767
774.93	0.765
775.11	0.786
775.29	0.792
775.47	0.793
775.65	0.799
775.83	0.818
776.01	0.835
776.19	0.793
776.37	0.791
776.55	0.792
776.73	0.790
776.91	0.786
777.09	0.770
777.27	0.770
777.45	0.758
777.63	0.736
777.81	0.733
777.99	0.723
778.17	0.724
778.35	0.707
778.53	0.696
778.71	0.699
778.89	0.687
779.07	0.675
779.24	0.679
779.42	0.682
779.60	0.700
779.78	0.698
779.96	0.704
780.14	0.708
780.32	0.727
780.50	0.710
780.68	0.713
780.86	0.707
781.04	0.726
781.22	0.731
781.40	0.741
781.58	0.733
781.75	0.723
781.93	0.704
782.11	0.705
782.29	0.694
782.47	0.694
782.65	0.682
782.83	0.708
783.01	0.698
783.19	0.694
783.37	0.681
783.55	0.681
783.72	0.700
783.90	0.712
784.08	0.706
784.26	0.715
784.44	0.732
784.62	0.735
784.80	0.704
784.98	0.714
785.16	0.718
785.33	0.733
785.51	0.723
785.69	0.709
785.87	0.706
786.05	0.716
786.23	0.712
786.41	0.710
786.59	0.717
786.77	0.716
786.94	0.702
787.12	0.705
787.30	0.706
787.48	0.703
787.66	0.691
787.84	0.693
788.02	0.684
788.19	0.684
788.37	0.670
788.55	0.671
788.73	0.671
788.91	0.667
789.09	0.649
789.27	0.639
789.44	0.651
789.62	0.658
789.80	0.667
789.98	0.690
790.16	0.677
790.34	0.674
790.51	0.661
790.69	0.679
790.87	0.683
791.05	0.682
791.23	0.675
791.41	0.673
791.58	0.681
791.76	0.659
791.94	0.631
792.12	0.639
792.30	0.642
792.48	0.640
792.65	0.635
792.83	0.642
793.01	0.650
793.19	0.648
793.37	0.634
793.54	0.630
793.72	0.642
793.90	0.640
794.08	0.630
794.26	0.632
794.43	0.641
794.61	0.624
794.79	0.613
794.97	0.611
795.15	0.616
795.32	0.620
795.50	0.609
795.68	0.602
795.86	0.607
796.04	0.607
796.21	0.600
796.39	0.599
796.57	0.612
796.75	0.619
796.92	0.619
797.10	0.624
797.28	0.625
797.46	0.629
797.64	0.632
797.81	0.640
797.99	0.646
798.17	0.651
798.35	0.644
798.52	0.649
798.70	0.646
798.88	0.656
799.06	0.654
799.23	0.656
799.41	0.665
799.59	0.657
799.77	0.647
799.94	0.655
800.12	0.664
800.30	0.679
800.48	0.677
800.65	0.677
800.83	0.667
801.01	0.659
801.19	0.662
801.36	0.656
801.54	0.660
801.72	0.668
801.90	0.654
802.07	0.650
802.25	0.638
802.43	0.623
802.60	0.618
802.78	0.624
802.96	0.628
803.14	0.619
803.31	0.619
803.49	0.620
803.67	0.617
803.84	0.621
804.02	0.612
804.20	0.613
804.38	0.618
804.55	0.617
804.73	0.604
804.91	0.606
805.08	0.619
805.26	0.614
805.44	0.678
805.61	0.684
805.79	0.685
805.97	0.684
806.15	0.679
806.32	0.674
806.50	0.682
806.68	0.681
806.85	0.673
807.03	0.664
807.21	0.680
807.38	0.612
807.56	0.599
807.74	0.609
807.91	0.615
808.09	0.615
808.27	0.633
808.44	0.660
808.62	0.670
808.80	0.671
808.97	0.665
809.15	0.661
809.33	0.678
809.50	0.685
809.68	0.670
809.86	0.678
810.03	0.710
810.21	0.690
810.39	0.669
810.56	0.674
810.74	0.698
810.91	0.768
811.09	0.756
811.27	0.778
811.44	0.782
811.62	0.784
811.80	0.768
811.97	0.734
812.15	0.734
812.33	0.731
812.50	0.715
812.68	0.701
812.85	0.648
813.03	0.649
813.21	0.618
813.38	0.613
813.56	0.617
813.74	0.626
813.91	0.634
814.09	0.661
814.26	0.654
814.44	0.659
814.62	0.649
814.79	0.652
814.97	0.656
815.14	0.657
815.32	0.664
815.50	0.679
815.67	0.683
815.85	0.676
816.02	0.667
816.20	0.674
816.38	0.686
816.55	0.694
816.73	0.692
816.90	0.704
817.08	0.732
817.26	0.733
817.43	0.713
817.61	0.735
817.78	0.753
817.96	0.736
818.13	0.726
818.31	0.728
818.49	0.741
818.66	0.734
818.84	0.720
819.01	0.699
819.19	0.706
819.36	0.706
819.54	0.678
819.71	0.714
819.89	0.726
820.07	0.736
820.24	0.730
820.42	0.728
820.59	0.744
820.77	0.767
820.94	0.761
821.12	0.778
821.29	0.793
821.47	0.795
821.64	0.734
821.82	0.747
822.00	0.746
822.17	0.744
822.35	0.738
822.52	0.740
822.70	0.728
822.87	0.735
823.05	0.715
823.22	0.727
823.40	0.754
823.57	0.777
823.75	0.757
823.92	0.780
824.10	0.795
824.27	0.833
824.45	0.826
824.62	0.882
824.80	0.902
824.97	0.916
825.15	0.904
825.32	0.917
825.50	0.919
825.67	0.933
825.85	0.911
826.02	0.930
826.20	0.948
826.37	1.069
826.55	0.993
826.72	1.178
826.90	1.253
827.07	1.306
827.25	1.250
827.42	1.405
827.60	1.553
827.77	1.741
827.95	1.689
828.12	1.812
828.30	1.435
828.47	1.585
828.65	1.215
828.82	1.258
829.00	1.324
829.17	1.415
829.34	1.430
829.52	1.507
829.69	-0.000
829.87	-0.000
830.04	-0.000
830.22	-0.000
830.39	-0.000
830.57	-0.000
830.74	-0.000
830.92	-0.000
831.09	-0.000
831.26	-0.000
831.44	-0.000
831.61	-0.000
831.79	-0.000
831.96	-0.000
832.14	-0.000
832.31	-0.000
832.49	-0.000
832.66	-0.000
832.83	-0.000
833.01	-0.000
833.18	-0.000
833.36	-0.000
833.53	-0.000
833.70	-0.000
833.88	-0.000
834.05	-0.000
834.23	-0.000
834.40	-0.000
834.58	-0.000
834.75	-0.000
834.92	-0.000
835.10	-0.000
835.27	-0.000
835.45	-0.000
835.62	-0.000
835.79	-0.000
835.97	-0.000
836.14	-0.000
836.32	-0.000
836.49	-0.000
836.66	-0.000
836.84	-0.000
837.01	-0.000
837.18	-0.000
837.36	-0.000
837.53	-0.000
837.71	-0.000
837.88	-0.000
838.05	-0.000
838.23	-0.000
838.40	-0.000
838.58	-0.000
838.75	-0.000
838.92	-0.000
839.10	-0.000
839.27	-0.000
839.44	-0.000
839.62	-0.000
839.79	-0.000
839.96	-0.000
840.14	-0.000
840.31	-0.000
840.48	-0.000
840.66	-0.000
840.83	-0.000
841.01	-0.000
841.18	-0.000
841.35	-0.000
841.53	-0.000
841.70	-0.000
841.87	-0.000
842.05	-0.000
842.22	-0.000
842.39	-0.000
842.57	-0.000
842.74	-0.000
842.91	-0.000
843.09	-0.000
843.26	-0.000
843.43	-0.000
843.60	-0.000
843.78	-0.000
843.95	-0.000
844.12	-0.000
844.30	-0.000
844.47	-0.000
844.64	-0.000
844.82	-0.000
844.99	-0.000
845.16	-0.000
845.34	-0.000
845.51	-0.000
845.68	-0.000
845.85	-0.000
846.03	-0.000
846.20	-0.000
846.37	-0.000
846.55	-0.000
846.72	-0.000
846.89	-0.000
847.06	-0.000
847.24	-0.000
847.41	-0.000
847.58	-0.000
847.76	-0.000
847.93	-0.000
848.10	-0.000
848.27	-0.000
848.45	-0.000
848.62	-0.000
848.79	-0.000
848.97	-0.000
849.14	-0.000
849.31	-0.000
849.48	-0.000
849.66	-0.000
849.83	-0.000
850.00	-0.000
850.17	-0.000
850.35	-0.000
850.52	-0.000
850.69	-0.000
850.86	-0.000
851.04	-0.000
851.21	-0.000
851.38	-0.000
851.55	-0.000
851.72	-0.000
851.90	-0.000
852.07	-0.000
852.24	-0.000
852.41	-0.000
852.59	-0.000
852.76	-0.000
852.93	-0.000
853.10	-0.000
853.28	-0.000
853.45	-0.000
853.62	-0.000
853.79	-0.000
853.96	-0.000
854.14	-0.000
854.31	-0.000
854.48	-0.000
854.65	-0.000
854.82	-0.000
855.00	-0.000
855.17	-0.000
855.34	-0.000
855.51	-0.000
855.68	-0.000
855.86	-0.000
856.03	-0.000
856.20	-0.000
856.37	-0.000
856.54	-0.000
856.72	-0.000
856.89	-0.000
857.06	-0.000
857.23	-0.000
857.40	-0.000
857.57	-0.000
857.75	-0.000
857.92	-0.000
858.09	-0.000
858.26	-0.000
858.43	-0.000
858.60	-0.000
858.78	-0.000
858.95	-0.000
859.12	-0.000
859.29	-0.000
859.46	-0.000
859.63	-0.000
859.81	-0.000
859.98	-0.000
860.15	-0.000
860.32	-0.000
860.49	-0.000
860.66	-0.000
860.83	-0.000
861.01	-0.000
861.18	-0.000
861.35	-0.000
861.52	-0.000
861.69	-0.000
861.86	-0.000
862.03	-0.000
862.21	-0.000
862.38	-0.000
862.55	-0.000
862.72	-0.000
862.89	-0.000
863.06	-0.000
863.23	-0.000
863.40	-0.000
863.58	-0.000
863.75	-0.000
863.92	-0.000
864.09	-0.000
864.26	-0.000
864.43	-0.000
864.60	-0.000
864.77	-0.000
864.94	-0.000
865.11	-0.000
865.29	-0.000
865.46	-0.000
865.63	-0.000
865.80	-0.000
865.97	-0.000
866.14	-0.000
866.31	-0.000
866.48	-0.000
866.65	-0.000
866.82	-0.000
866.99	-0.000
867.16	-0.000
867.34	-0.000
867.51	-0.000
867.68	-0.000
867.85	-0.000
868.02	-0.000
868.19	-0.000
868.36	-0.000
868.53	-0.000
868.70	-0.000
868.87	-0.000
869.04	-0.000
869.21	-0.000
869.38	-0.000
869.55	-0.000
869.72	-0.000
869.89	-0.000
870.06	-0.000
870.24	-0.000
870.41	-0.000
870.58	-0.000
870.75	-0.000
870.92	-0.000
871.09	-0.000
871.26	-0.000
871.43	-0.000
871.60	-0.000
871.77	-0.000
871.94	-0.000
872.11	-0.000
872.28	-0.000
872.45	-0.000
872.62	-0.000
872.79	-0.000
872.96	-0.000
873.13	-0.000
873.30	-0.000
873.47	-0.000
873.64	-0.000
873.81	-0.000
873.98	-0.000
874.15	-0.000
874.32	-0.000
874.49	-0.000
874.66	-0.000
874.83	-0.000
875.00	-0.000
875.17	-0.000
875.34	-0.000
875.51	-0.000
875.68	-0.000
875.85	-0.000
876.02	-0.000
876.19	-0.000
876.36	-0.000
876.53	-0.000
876.70	-0.000
876.87	-0.000
877.04	-0.000
877.21	-0.000
877.38	-0.000
877.55	-0.000
877.72	-0.000
877.89	-0.000
878.06	-0.000
878.23	-0.000
878.39	-0.000
878.56	-0.000
878.73	-0.000
878.90	-0.000
879.07	-0.000
879.24	-0.000
879.41	-0.000
879.58	-0.000
879.75	-0.000
879.92	-0.000
880.09	-0.000
880.26	-0.000
880.43	-0.000
880.60	-0.000
880.77	-0.000
880.94	-0.000
881.11	-0.000
881.27	-0.000
881.44	-0.000
881.61	-0.000
881.78	-0.000
881.95	-0.000
882.12	-0.000
882.29	-0.000
882.46	-0.000
882.63	-0.000
882.80	-0.000
882.97	-0.000
883.14	-0.000
883.30	-0.000
883.47	-0.000
883.64	-0.000
883.81	-0.000
883.98	-0.000
884.15	-0.000
884.32	-0.000
884.49	-0.000
884.66	-0.000
884.82	-0.000
884.99	-0.000
885.16	-0.000
885.33	-0.000
885.50	-0.000
885.67	-0.000
885.84	-0.000
886.01	-0.000
886.17	-0.000
886.34	-0.000
886.51	-0.000
886.68	-0.000
886.85	-0.000
887.02	-0.000
887.19	-0.000
887.36	-0.000
887.52	-0.000
887.69	-0.000
887.86	-0.000
888.03	-0.000
888.20	-0.000
888.37	-0.000
888.54	-0.000
888.70	-0.000
888.87	-0.000
889.04	-0.000
889.21	-0.000
889.38	-0.000
889.55	-0.000
889.71	-0.000
889.88	-0.000
890.05	-0.000
890.22	-0.000
890.39	-0.000
>>>>>End Processed Spectral Data<<<<<
