SpectraSuite Data File
++++++++++++++++++++++++++++++++++++
Date: Fri Jun 19 13:28:13 CEST 2015
User: introlabs
Dark Spectrum Present: Yes
Reference Spectrum Present: Yes
Number of Sampled Component Spectra: 1
Spectrometers: USB4H08886
Integration Time (usec): 745692 (USB4H08886)
Spectra Averaged: 5 (USB4H08886)
Boxcar Smoothing: 5 (USB4H08886)
Correct for Electrical Dark: Yes (USB4H08886)
Strobe/Lamp Enabled: No (USB4H08886)
Correct for Detector Non-linearity: Yes (USB4H08886)
Correct for Stray Light: Yes (USB4H08886)
Number of Pixels in Processed Spectrum: 3648
>>>>>Begin Processed Spectral Data<<<<<
178.14	-0.000
178.36	-0.000
178.57	-0.000
178.79	-0.000
179.01	-0.000
179.22	-0.000
179.44	-0.000
179.65	-0.000
179.87	-0.000
180.08	-0.000
180.30	-0.000
180.52	-0.000
180.73	-0.000
180.95	-0.000
181.16	-0.000
181.38	-0.000
181.59	-0.000
181.81	-0.000
182.03	-0.000
182.24	-0.000
182.46	-0.000
182.67	-0.000
182.89	-0.000
183.10	-0.000
183.32	-0.000
183.54	-0.000
183.75	-0.000
183.97	-0.000
184.18	-0.000
184.40	-0.000
184.61	-0.000
184.83	-0.000
185.04	-0.000
185.26	-0.000
185.48	-0.000
185.69	-0.000
185.91	-0.000
186.12	-0.000
186.34	-0.000
186.55	-0.000
186.77	-0.000
186.98	-0.000
187.20	-0.000
187.42	-0.000
187.63	-0.000
187.85	-0.000
188.06	-0.000
188.28	-0.000
188.49	-0.000
188.71	-0.000
188.92	-0.000
189.14	-0.000
189.36	-0.000
189.57	-0.000
189.79	-0.000
190.00	-0.000
190.22	-0.000
190.43	-0.000
190.65	-0.000
190.86	-0.000
191.08	-0.000
191.29	-0.000
191.51	-0.000
191.72	-0.000
191.94	-0.000
192.16	-0.000
192.37	-0.000
192.59	-0.000
192.80	-0.000
193.02	-0.000
193.23	-0.000
193.45	-0.000
193.66	-0.000
193.88	-0.000
194.09	-0.000
194.31	-0.000
194.52	-0.000
194.74	-0.000
194.95	-0.000
195.17	-0.000
195.38	-0.000
195.60	-0.000
195.81	-0.000
196.03	-0.000
196.25	-0.000
196.46	-0.000
196.68	-0.000
196.89	-0.000
197.11	-0.000
197.32	-0.000
197.54	-0.000
197.75	-0.000
197.97	-0.000
198.18	-0.000
198.40	-0.000
198.61	-0.000
198.83	-0.000
199.04	-0.000
199.26	-0.000
199.47	-0.000
199.69	-0.000
199.90	-0.000
200.12	-0.000
200.33	-0.000
200.55	-0.000
200.76	-0.000
200.98	-0.000
201.19	-0.000
201.41	-0.000
201.62	-0.000
201.84	-0.000
202.05	-0.000
202.27	-0.000
202.48	-0.000
202.70	-0.000
202.91	-0.000
203.13	-0.000
203.34	-0.000
203.56	-0.000
203.77	-0.000
203.99	-0.000
204.20	-0.000
204.42	-0.000
204.63	-0.000
204.85	-0.000
205.06	-0.000
205.28	-0.000
205.49	-0.000
205.71	-0.000
205.92	-0.000
206.14	-0.000
206.35	-0.000
206.56	-0.000
206.78	-0.000
206.99	-0.000
207.21	-0.000
207.42	-0.000
207.64	-0.000
207.85	-0.000
208.07	-0.000
208.28	-0.000
208.50	-0.000
208.71	-0.000
208.93	-0.000
209.14	-0.000
209.36	-0.000
209.57	-0.000
209.79	-0.000
210.00	-0.000
210.22	-0.000
210.43	-0.000
210.64	-0.000
210.86	-0.000
211.07	-0.000
211.29	-0.000
211.50	-0.000
211.72	-0.000
211.93	-0.000
212.15	-0.000
212.36	-0.000
212.58	-0.000
212.79	-0.000
213.01	-0.000
213.22	-0.000
213.43	-0.000
213.65	-0.000
213.86	-0.000
214.08	-0.000
214.29	-0.000
214.51	-0.000
214.72	-0.000
214.94	-0.000
215.15	-0.000
215.36	-0.000
215.58	-0.000
215.79	-0.000
216.01	-0.000
216.22	-0.000
216.44	-0.000
216.65	-0.000
216.87	-0.000
217.08	-0.000
217.29	-0.000
217.51	-0.000
217.72	-0.000
217.94	-0.000
218.15	-0.000
218.37	-0.000
218.58	-0.000
218.80	-0.000
219.01	-0.000
219.22	-0.000
219.44	-0.000
219.65	-0.000
219.87	-0.000
220.08	-0.000
220.30	-0.000
220.51	-0.000
220.72	-0.000
220.94	-0.000
221.15	-0.000
221.37	-0.000
221.58	-0.000
221.79	-0.000
222.01	-0.000
222.22	-0.000
222.44	-0.000
222.65	-0.000
222.87	-0.000
223.08	-0.000
223.29	-0.000
223.51	-0.000
223.72	-0.000
223.94	-0.000
224.15	-0.000
224.36	-0.000
224.58	-0.000
224.79	-0.000
225.01	-0.000
225.22	-0.000
225.44	-0.000
225.65	-0.000
225.86	-0.000
226.08	-0.000
226.29	-0.000
226.51	-0.000
226.72	-0.000
226.93	-0.000
227.15	-0.000
227.36	-0.000
227.58	-0.000
227.79	-0.000
228.00	-0.000
228.22	-0.000
228.43	-0.000
228.65	-0.000
228.86	-0.000
229.07	-0.000
229.29	-0.000
229.50	-0.000
229.72	-0.000
229.93	-0.000
230.14	-0.000
230.36	-0.000
230.57	-0.000
230.78	-0.000
231.00	-0.000
231.21	-0.000
231.43	-0.000
231.64	-0.000
231.85	-0.000
232.07	-0.000
232.28	-0.000
232.50	-0.000
232.71	-0.000
232.92	-0.000
233.14	-0.000
233.35	-0.000
233.56	-0.000
233.78	-0.000
233.99	-0.000
234.21	-0.000
234.42	-0.000
234.63	-0.000
234.85	-0.000
235.06	-0.000
235.27	-0.000
235.49	-0.000
235.70	-0.000
235.91	-0.000
236.13	-0.000
236.34	-0.000
236.56	-0.000
236.77	-0.000
236.98	-0.000
237.20	-0.000
237.41	-0.000
237.62	-0.000
237.84	-0.000
238.05	-0.000
238.26	-0.000
238.48	-0.000
238.69	-0.000
238.91	-0.000
239.12	-0.000
239.33	-0.000
239.55	-0.000
239.76	-0.000
239.97	-0.000
240.19	-0.000
240.40	-0.000
240.61	-0.000
240.83	-0.000
241.04	-0.000
241.25	-0.000
241.47	-0.000
241.68	-0.000
241.89	-0.000
242.11	-0.000
242.32	-0.000
242.53	-0.000
242.75	-0.000
242.96	-0.000
243.17	-0.000
243.39	-0.000
243.60	-0.000
243.81	-0.000
244.03	-0.000
244.24	-0.000
244.45	-0.000
244.67	-0.000
244.88	-0.000
245.09	-0.000
245.31	-0.000
245.52	-0.000
245.73	-0.000
245.95	-0.000
246.16	-0.000
246.37	-0.000
246.59	-0.000
246.80	-0.000
247.01	-0.000
247.23	-0.000
247.44	-0.000
247.65	-0.000
247.87	-0.000
248.08	-0.000
248.29	-0.000
248.51	-0.000
248.72	-0.000
248.93	-0.000
249.15	-0.000
249.36	-0.000
249.57	-0.000
249.78	-0.000
250.00	-0.000
250.21	-0.000
250.42	-0.000
250.64	-0.000
250.85	-0.000
251.06	-0.000
251.28	-0.000
251.49	-0.000
251.70	-0.000
251.92	-0.000
252.13	-0.000
252.34	-0.000
252.55	-0.000
252.77	-0.000
252.98	-0.000
253.19	-0.000
253.41	-0.000
253.62	-0.000
253.83	-0.000
254.05	-0.000
254.26	-0.000
254.47	-0.000
254.68	-0.000
254.90	-0.000
255.11	-0.000
255.32	-0.000
255.54	-0.000
255.75	-0.000
255.96	-0.000
256.17	-0.000
256.39	-0.000
256.60	-0.000
256.81	-0.000
257.03	-0.000
257.24	-0.000
257.45	-0.000
257.66	-0.000
257.88	-0.000
258.09	-0.000
258.30	-0.000
258.51	-0.000
258.73	-0.000
258.94	-0.000
259.15	-0.000
259.37	-0.000
259.58	-0.000
259.79	-0.000
260.00	-0.000
260.22	-0.000
260.43	-0.000
260.64	-0.000
260.85	-0.000
261.07	-0.000
261.28	-0.000
261.49	-0.000
261.71	-0.000
261.92	-0.000
262.13	-0.000
262.34	-0.000
262.56	-0.000
262.77	-0.000
262.98	-0.000
263.19	-0.000
263.41	-0.000
263.62	-0.000
263.83	-0.000
264.04	-0.000
264.26	-0.000
264.47	-0.000
264.68	-0.000
264.89	-0.000
265.11	-0.000
265.32	-0.000
265.53	-0.000
265.74	-0.000
265.96	-0.000
266.17	-0.000
266.38	-0.000
266.59	-0.000
266.81	-0.000
267.02	-0.000
267.23	-0.000
267.44	-0.000
267.65	-0.000
267.87	-0.000
268.08	-0.000
268.29	-0.000
268.50	-0.000
268.72	-0.000
268.93	-0.000
269.14	-0.000
269.35	-0.000
269.57	-0.000
269.78	-0.000
269.99	-0.000
270.20	-0.000
270.41	-0.000
270.63	-0.000
270.84	-0.000
271.05	-0.000
271.26	-0.000
271.48	-0.000
271.69	-0.000
271.90	-0.000
272.11	-0.000
272.32	-0.000
272.54	-0.000
272.75	-0.000
272.96	-0.000
273.17	-0.000
273.39	-0.000
273.60	-0.000
273.81	-0.000
274.02	-0.000
274.23	-0.000
274.45	-0.000
274.66	-0.000
274.87	-0.000
275.08	-0.000
275.29	-0.000
275.51	-0.000
275.72	-0.000
275.93	-0.000
276.14	-0.000
276.35	-0.000
276.57	-0.000
276.78	-0.000
276.99	-0.000
277.20	-0.000
277.41	-0.000
277.63	-0.000
277.84	-0.000
278.05	-0.000
278.26	-0.000
278.47	-0.000
278.69	-0.000
278.90	-0.000
279.11	-0.000
279.32	-0.000
279.53	-0.000
279.74	-0.000
279.96	-0.000
280.17	-0.000
280.38	-0.000
280.59	-0.000
280.80	-0.000
281.02	-0.000
281.23	-0.000
281.44	-0.000
281.65	-0.000
281.86	-0.000
282.07	-0.000
282.29	-0.000
282.50	-0.000
282.71	-0.000
282.92	-0.000
283.13	-0.000
283.35	-0.000
283.56	-0.000
283.77	-0.000
283.98	-0.000
284.19	-0.000
284.40	-0.000
284.62	-0.000
284.83	-0.000
285.04	-0.000
285.25	-0.000
285.46	-0.000
285.67	-0.000
285.88	-0.000
286.10	-0.000
286.31	-0.000
286.52	-0.000
286.73	-0.000
286.94	-0.000
287.15	-0.000
287.37	-0.000
287.58	-0.000
287.79	-0.000
288.00	-0.000
288.21	-0.000
288.42	-0.000
288.63	-0.000
288.85	-0.000
289.06	-0.000
289.27	-0.000
289.48	-0.000
289.69	-0.000
289.90	-0.000
290.11	-0.000
290.33	-0.000
290.54	-0.000
290.75	-0.000
290.96	-0.000
291.17	-0.000
291.38	-0.000
291.59	-0.000
291.81	-0.000
292.02	-0.000
292.23	-0.000
292.44	-0.000
292.65	-0.000
292.86	-0.000
293.07	-0.000
293.28	-0.000
293.50	-0.000
293.71	-0.000
293.92	-0.000
294.13	-0.000
294.34	-0.000
294.55	-0.000
294.76	-0.000
294.97	-0.000
295.19	-0.000
295.40	-0.000
295.61	-0.000
295.82	-0.000
296.03	-0.000
296.24	-0.000
296.45	-0.000
296.66	2.589
296.87	2.683
297.09	-0.000
297.30	-0.000
297.51	2.244
297.72	2.089
297.93	2.389
298.14	2.220
298.35	2.082
298.56	2.036
298.77	2.422
298.99	2.304
299.20	2.173
299.41	2.075
299.62	2.016
299.83	2.016
300.04	1.893
300.25	1.878
300.46	1.981
300.67	1.917
300.88	1.799
301.10	1.797
301.31	1.931
301.52	1.819
301.73	1.718
301.94	1.715
302.15	1.720
302.36	1.641
302.57	1.543
302.78	1.551
302.99	1.621
303.20	1.643
303.41	1.518
303.63	1.495
303.84	1.504
304.05	1.498
304.26	1.415
304.47	1.433
304.68	1.438
304.89	1.426
305.10	1.372
305.31	1.351
305.52	1.403
305.73	1.391
305.94	1.341
306.15	1.332
306.37	1.358
306.58	1.369
306.79	1.324
307.00	1.346
307.21	1.397
307.42	1.389
307.63	1.346
307.84	1.310
308.05	1.353
308.26	1.353
308.47	1.321
308.68	1.312
308.89	1.310
309.10	1.305
309.31	1.259
309.52	1.247
309.73	1.262
309.95	1.255
310.16	1.220
310.37	1.210
310.58	1.230
310.79	1.228
311.00	1.227
311.21	1.229
311.42	1.232
311.63	1.226
311.84	1.205
312.05	1.204
312.26	1.228
312.47	1.245
312.68	1.214
312.89	1.194
313.10	1.201
313.31	1.173
313.52	1.173
313.73	1.176
313.94	1.181
314.15	1.162
314.36	1.137
314.57	1.130
314.78	1.114
314.99	1.109
315.21	1.096
315.42	1.102
315.63	1.114
315.84	1.090
316.05	1.075
316.26	1.083
316.47	1.102
316.68	1.098
316.89	1.076
317.10	1.098
317.31	1.105
317.52	1.105
317.73	1.081
317.94	1.080
318.15	1.125
318.36	1.124
318.57	1.105
318.78	1.092
318.99	1.127
319.20	1.126
319.41	1.088
319.62	1.089
319.83	1.106
320.04	1.102
320.25	1.085
320.46	1.050
320.67	1.053
320.88	1.047
321.09	1.031
321.30	1.016
321.51	1.030
321.72	1.028
321.93	1.010
322.14	1.001
322.35	1.029
322.56	1.033
322.77	1.019
322.98	1.030
323.19	1.038
323.40	1.045
323.61	1.022
323.82	1.017
324.03	1.025
324.24	1.022
324.45	1.007
324.66	0.985
324.87	0.981
325.08	0.980
325.29	0.960
325.50	0.953
325.71	0.959
325.92	0.965
326.13	0.951
326.34	0.950
326.55	0.960
326.76	0.960
326.97	0.950
327.18	0.944
327.39	0.970
327.60	0.971
327.80	0.972
328.01	0.969
328.22	0.969
328.43	0.973
328.64	0.962
328.85	0.964
329.06	0.966
329.27	0.966
329.48	0.960
329.69	0.941
329.90	0.952
330.11	0.946
330.32	0.940
330.53	0.933
330.74	0.933
330.95	0.929
331.16	0.913
331.37	0.920
331.58	0.920
331.79	0.921
332.00	0.912
332.21	0.903
332.42	0.907
332.63	0.899
332.83	0.894
333.04	0.897
333.25	0.910
333.46	0.910
333.67	0.896
333.88	0.899
334.09	0.908
334.30	0.905
334.51	0.896
334.72	0.890
334.93	0.894
335.14	0.892
335.35	0.884
335.56	0.879
335.77	0.887
335.98	0.886
336.18	0.879
336.39	0.871
336.60	0.875
336.81	0.873
337.02	0.873
337.23	0.877
337.44	0.882
337.65	0.884
337.86	0.873
338.07	0.868
338.28	0.875
338.49	0.872
338.70	0.865
338.91	0.872
339.11	0.880
339.32	0.875
339.53	0.863
339.74	0.860
339.95	0.857
340.16	0.856
340.37	0.849
340.58	0.846
340.79	0.849
341.00	0.849
341.21	0.838
341.41	0.838
341.62	0.841
341.83	0.843
342.04	0.837
342.25	0.847
342.46	0.852
342.67	0.850
342.88	0.844
343.09	0.844
343.30	0.851
343.50	0.855
343.71	0.845
343.92	0.843
344.13	0.847
344.34	0.846
344.55	0.830
344.76	0.828
344.97	0.834
345.18	0.831
345.38	0.828
345.59	0.822
345.80	0.822
346.01	0.819
346.22	0.814
346.43	0.809
346.64	0.818
346.85	0.818
347.06	0.810
347.26	0.810
347.47	0.814
347.68	0.810
347.89	0.807
348.10	0.801
348.31	0.809
348.52	0.809
348.73	0.806
348.93	0.802
349.14	0.804
349.35	0.804
349.56	0.797
349.77	0.793
349.98	0.799
350.19	0.795
350.39	0.791
350.60	0.786
350.81	0.801
351.02	0.799
351.23	0.794
351.44	0.796
351.65	0.799
351.86	0.796
352.06	0.794
352.27	0.794
352.48	0.796
352.69	0.796
352.90	0.791
353.11	0.777
353.31	0.785
353.52	0.781
353.73	0.774
353.94	0.775
354.15	0.782
354.36	0.782
354.57	0.773
354.77	0.775
354.98	0.774
355.19	0.773
355.40	0.773
355.61	0.779
355.82	0.784
356.02	0.783
356.23	0.775
356.44	0.777
356.65	0.780
356.86	0.781
357.07	0.774
357.27	0.778
357.48	0.780
357.69	0.775
357.90	0.760
358.11	0.757
358.32	0.761
358.52	0.764
358.73	0.754
358.94	0.756
359.15	0.761
359.36	0.761
359.56	0.756
359.77	0.754
359.98	0.761
360.19	0.761
360.40	0.757
360.61	0.757
360.81	0.756
361.02	0.757
361.23	0.748
361.44	0.746
361.65	0.748
361.85	0.747
362.06	0.745
362.27	0.747
362.48	0.748
362.69	0.750
362.89	0.744
363.10	0.746
363.31	0.751
363.52	0.755
363.73	0.751
363.93	0.751
364.14	0.753
364.35	0.756
364.56	0.745
364.77	0.747
364.97	0.749
365.18	0.750
365.39	0.744
365.60	0.741
365.81	0.741
366.01	0.741
366.22	0.737
366.43	0.736
366.64	0.738
366.84	0.745
367.05	0.742
367.26	0.741
367.47	0.742
367.68	0.742
367.88	0.739
368.09	0.737
368.30	0.739
368.51	0.738
368.71	0.737
368.92	0.740
369.13	0.738
369.34	0.737
369.55	0.737
369.75	0.737
369.96	0.744
370.17	0.743
370.38	0.741
370.58	0.740
370.79	0.747
371.00	0.745
371.21	0.736
371.41	0.742
371.62	0.747
371.83	0.742
372.04	0.740
372.24	0.732
372.45	0.733
372.66	0.733
372.87	0.729
373.07	0.726
373.28	0.726
373.49	0.730
373.70	0.720
373.90	0.719
374.11	0.729
374.32	0.728
374.53	0.726
374.73	0.728
374.94	0.731
375.15	0.731
375.36	0.729
375.56	0.738
375.77	0.738
375.98	0.738
376.19	0.735
376.39	0.728
376.60	0.732
376.81	0.733
377.02	0.730
377.22	0.729
377.43	0.728
377.64	0.727
377.84	0.718
378.05	0.723
378.26	0.729
378.47	0.728
378.67	0.725
378.88	0.722
379.09	0.723
379.30	0.724
379.50	0.720
379.71	0.722
379.92	0.725
380.12	0.724
380.33	0.714
380.54	0.711
380.75	0.718
380.95	0.718
381.16	0.716
381.37	0.716
381.57	0.718
381.78	0.718
381.99	0.718
382.20	0.717
382.40	0.721
382.61	0.722
382.82	0.718
383.02	0.710
383.23	0.714
383.44	0.714
383.64	0.712
383.85	0.714
384.06	0.718
384.27	0.715
384.47	0.714
384.68	0.714
384.89	0.720
385.09	0.720
385.30	0.719
385.51	0.717
385.71	0.720
385.92	0.721
386.13	0.719
386.33	0.721
386.54	0.722
386.75	0.721
386.95	0.717
387.16	0.712
387.37	0.715
387.58	0.715
387.78	0.713
387.99	0.710
388.20	0.712
388.40	0.709
388.61	0.705
388.82	0.708
389.02	0.710
389.23	0.710
389.44	0.707
389.64	0.707
389.85	0.718
390.06	0.718
390.26	0.718
390.47	0.717
390.68	0.719
390.88	0.717
391.09	0.713
391.30	0.713
391.50	0.713
391.71	0.713
391.92	0.710
392.12	0.702
392.33	0.703
392.53	0.703
392.74	0.703
392.95	0.702
393.15	0.705
393.36	0.707
393.57	0.705
393.77	0.708
393.98	0.710
394.19	0.710
394.39	0.708
394.60	0.709
394.81	0.711
395.01	0.708
395.22	0.706
395.43	0.707
395.63	0.711
395.84	0.712
396.04	0.708
396.25	0.709
396.46	0.712
396.66	0.710
396.87	0.708
397.08	0.705
397.28	0.708
397.49	0.708
397.69	0.705
397.90	0.700
398.11	0.701
398.31	0.701
398.52	0.698
398.73	0.698
398.93	0.697
399.14	0.696
399.34	0.695
399.55	0.696
399.76	0.697
399.96	0.697
400.17	0.695
400.37	0.694
400.58	0.701
400.79	0.702
400.99	0.700
401.20	0.706
401.41	0.708
401.61	0.709
401.82	0.713
402.02	0.713
402.23	0.714
402.44	0.714
402.64	0.713
402.85	0.707
403.05	0.706
403.26	0.705
403.47	0.699
403.67	0.697
403.88	0.699
404.08	0.693
404.29	0.691
404.50	0.690
404.70	0.690
404.91	0.689
405.11	0.686
405.32	0.686
405.52	0.687
405.73	0.687
405.94	0.685
406.14	0.687
406.35	0.690
406.55	0.690
406.76	0.687
406.97	0.688
407.17	0.691
407.38	0.691
407.58	0.690
407.79	0.692
407.99	0.695
408.20	0.695
408.41	0.691
408.61	0.689
408.82	0.691
409.02	0.691
409.23	0.689
409.43	0.687
409.64	0.689
409.84	0.688
410.05	0.685
410.26	0.683
410.46	0.683
410.67	0.682
410.87	0.683
411.08	0.684
411.28	0.685
411.49	0.687
411.69	0.685
411.90	0.686
412.11	0.688
412.31	0.688
412.52	0.686
412.72	0.687
412.93	0.688
413.13	0.687
413.34	0.683
413.54	0.685
413.75	0.685
413.95	0.685
414.16	0.682
414.37	0.684
414.57	0.685
414.78	0.688
414.98	0.685
415.19	0.687
415.39	0.685
415.60	0.687
415.80	0.686
416.01	0.685
416.21	0.687
416.42	0.688
416.62	0.683
416.83	0.684
417.03	0.683
417.24	0.684
417.44	0.681
417.65	0.680
417.86	0.681
418.06	0.679
418.27	0.676
418.47	0.678
418.68	0.679
418.88	0.679
419.09	0.677
419.29	0.678
419.50	0.678
419.70	0.678
419.91	0.677
420.11	0.674
420.32	0.677
420.52	0.677
420.73	0.675
420.93	0.676
421.14	0.678
421.34	0.677
421.55	0.674
421.75	0.674
421.96	0.675
422.16	0.675
422.37	0.674
422.57	0.670
422.78	0.672
422.98	0.669
423.19	0.667
423.39	0.665
423.60	0.669
423.80	0.670
424.01	0.668
424.21	0.671
424.42	0.672
424.62	0.672
424.83	0.671
425.03	0.672
425.23	0.674
425.44	0.674
425.64	0.675
425.85	0.674
426.05	0.676
426.26	0.676
426.46	0.672
426.67	0.671
426.87	0.676
427.08	0.677
427.28	0.675
427.49	0.675
427.69	0.675
427.90	0.674
428.10	0.671
428.31	0.671
428.51	0.672
428.71	0.672
428.92	0.674
429.12	0.671
429.33	0.671
429.53	0.674
429.74	0.679
429.94	0.679
430.15	0.679
430.35	0.679
430.56	0.676
430.76	0.674
430.96	0.676
431.17	0.673
431.37	0.670
431.58	0.669
431.78	0.665
431.99	0.659
432.19	0.661
432.40	0.662
432.60	0.663
432.80	0.665
433.01	0.663
433.21	0.663
433.42	0.666
433.62	0.666
433.83	0.666
434.03	0.669
434.23	0.672
434.44	0.671
434.64	0.669
434.85	0.674
435.05	0.675
435.26	0.676
435.46	0.674
435.66	0.673
435.87	0.674
436.07	0.674
436.28	0.669
436.48	0.666
436.69	0.666
436.89	0.666
437.09	0.660
437.30	0.659
437.50	0.659
437.71	0.671
437.91	0.670
438.11	0.671
438.32	0.676
438.52	0.677
438.73	0.676
438.93	0.674
439.13	0.674
439.34	0.678
439.54	0.675
439.75	0.675
439.95	0.666
440.15	0.670
440.36	0.668
440.56	0.666
440.77	0.667
440.97	0.666
441.17	0.665
441.38	0.667
441.58	0.664
441.79	0.664
441.99	0.663
442.19	0.662
442.40	0.660
442.60	0.660
442.81	0.657
443.01	0.657
443.21	0.658
443.42	0.657
443.62	0.655
443.82	0.655
444.03	0.657
444.23	0.657
444.44	0.657
444.64	0.656
444.84	0.657
445.05	0.657
445.25	0.655
445.45	0.656
445.66	0.659
445.86	0.658
446.06	0.659
446.27	0.658
446.47	0.661
446.68	0.660
446.88	0.659
447.08	0.658
447.29	0.661
447.49	0.661
447.69	0.661
447.90	0.659
448.10	0.663
448.30	0.660
448.51	0.662
448.71	0.660
448.91	0.662
449.12	0.660
449.32	0.661
449.52	0.660
449.73	0.664
449.93	0.663
450.14	0.663
450.34	0.662
450.54	0.665
450.75	0.662
450.95	0.661
451.15	0.661
451.36	0.663
451.56	0.660
451.76	0.659
451.97	0.656
452.17	0.656
452.37	0.655
452.58	0.651
452.78	0.651
452.98	0.654
453.19	0.653
453.39	0.654
453.59	0.653
453.79	0.655
454.00	0.655
454.20	0.654
454.40	0.655
454.61	0.657
454.81	0.658
455.01	0.655
455.22	0.656
455.42	0.658
455.62	0.656
455.83	0.655
456.03	0.658
456.23	0.659
456.44	0.660
456.64	0.659
456.84	0.659
457.04	0.659
457.25	0.659
457.45	0.656
457.65	0.655
457.86	0.656
458.06	0.655
458.26	0.650
458.47	0.650
458.67	0.651
458.87	0.651
459.07	0.649
459.28	0.651
459.48	0.653
459.68	0.654
459.89	0.653
460.09	0.651
460.29	0.652
460.49	0.653
460.70	0.652
460.90	0.652
461.10	0.653
461.31	0.653
461.51	0.650
461.71	0.651
461.91	0.653
462.12	0.653
462.32	0.652
462.52	0.653
462.72	0.657
462.93	0.656
463.13	0.655
463.33	0.656
463.53	0.657
463.74	0.657
463.94	0.652
464.14	0.653
464.35	0.655
464.55	0.655
464.75	0.653
464.95	0.650
465.16	0.652
465.36	0.651
465.56	0.650
465.76	0.650
465.97	0.650
466.17	0.651
466.37	0.649
466.57	0.650
466.78	0.651
466.98	0.651
467.18	0.648
467.38	0.647
467.59	0.649
467.79	0.650
467.99	0.649
468.19	0.650
468.39	0.653
468.60	0.653
468.80	0.651
469.00	0.653
469.20	0.654
469.41	0.655
469.61	0.654
469.81	0.655
470.01	0.654
470.22	0.655
470.42	0.654
470.62	0.652
470.82	0.653
471.02	0.652
471.23	0.650
471.43	0.650
471.63	0.653
471.83	0.652
472.04	0.649
472.24	0.648
472.44	0.654
472.64	0.653
472.84	0.650
473.05	0.650
473.25	0.653
473.45	0.652
473.65	0.650
473.85	0.650
474.06	0.652
474.26	0.651
474.46	0.652
474.66	0.648
474.86	0.650
475.07	0.650
475.27	0.648
475.47	0.645
475.67	0.646
475.87	0.649
476.08	0.646
476.28	0.647
476.48	0.649
476.68	0.647
476.88	0.645
477.09	0.647
477.29	0.649
477.49	0.649
477.69	0.648
477.89	0.648
478.09	0.647
478.30	0.649
478.50	0.645
478.70	0.645
478.90	0.646
479.10	0.648
479.31	0.649
479.51	0.647
479.71	0.648
479.91	0.649
480.11	0.648
480.31	0.648
480.52	0.647
480.72	0.647
480.92	0.646
481.12	0.645
481.32	0.642
481.52	0.640
481.72	0.640
481.93	0.643
482.13	0.644
482.33	0.643
482.53	0.641
482.73	0.642
482.93	0.644
483.14	0.643
483.34	0.643
483.54	0.644
483.74	0.644
483.94	0.643
484.14	0.639
484.34	0.639
484.55	0.640
484.75	0.639
484.95	0.637
485.15	0.637
485.35	0.637
485.55	0.636
485.75	0.634
485.96	0.634
486.16	0.635
486.36	0.634
486.56	0.632
486.76	0.632
486.96	0.633
487.16	0.632
487.36	0.630
487.57	0.629
487.77	0.630
487.97	0.631
488.17	0.629
488.37	0.628
488.57	0.629
488.77	0.629
488.97	0.628
489.18	0.628
489.38	0.631
489.58	0.632
489.78	0.631
489.98	0.631
490.18	0.631
490.38	0.632
490.58	0.630
490.78	0.632
490.98	0.633
491.19	0.634
491.39	0.633
491.59	0.632
491.79	0.634
491.99	0.635
492.19	0.634
492.39	0.637
492.59	0.637
492.79	0.639
492.99	0.638
493.20	0.639
493.40	0.639
493.60	0.641
493.80	0.639
494.00	0.636
494.20	0.636
494.40	0.636
494.60	0.633
494.80	0.638
495.00	0.637
495.20	0.635
495.40	0.634
495.61	0.635
495.81	0.635
496.01	0.639
496.21	0.640
496.41	0.639
496.61	0.640
496.81	0.640
497.01	0.634
497.21	0.634
497.41	0.635
497.61	0.634
497.81	0.632
498.01	0.632
498.21	0.630
498.41	0.628
498.61	0.628
498.82	0.629
499.02	0.631
499.22	0.632
499.42	0.631
499.62	0.633
499.82	0.634
500.02	0.635
500.22	0.634
500.42	0.636
500.62	0.637
500.82	0.638
501.02	0.635
501.22	0.635
501.42	0.636
501.62	0.637
501.82	0.637
502.02	0.637
502.22	0.636
502.42	0.637
502.62	0.634
502.82	0.635
503.02	0.636
503.22	0.636
503.42	0.634
503.63	0.634
503.83	0.632
504.03	0.631
504.23	0.630
504.43	0.630
504.63	0.631
504.83	0.631
505.03	0.629
505.23	0.631
505.43	0.633
505.63	0.633
505.83	0.633
506.03	0.635
506.23	0.637
506.43	0.637
506.63	0.636
506.83	0.635
507.03	0.637
507.23	0.638
507.43	0.635
507.63	0.635
507.83	0.635
508.03	0.636
508.23	0.634
508.43	0.633
508.63	0.635
508.83	0.635
509.03	0.636
509.23	0.635
509.43	0.636
509.63	0.636
509.83	0.635
510.03	0.638
510.23	0.640
510.43	0.641
510.63	0.641
510.83	0.641
511.03	0.642
511.23	0.640
511.43	0.639
511.63	0.641
511.83	0.643
512.03	0.643
512.22	0.639
512.42	0.639
512.62	0.640
512.82	0.639
513.02	0.638
513.22	0.638
513.42	0.640
513.62	0.643
513.82	0.640
514.02	0.640
514.22	0.641
514.42	0.642
514.62	0.642
514.82	0.643
515.02	0.645
515.22	0.649
515.42	0.647
515.62	0.650
515.82	0.649
516.02	0.650
516.22	0.650
516.42	0.651
516.62	0.653
516.82	0.653
517.01	0.651
517.21	0.651
517.41	0.654
517.61	0.655
517.81	0.651
518.01	0.650
518.21	0.650
518.41	0.649
518.61	0.649
518.81	0.649
519.01	0.650
519.21	0.650
519.41	0.648
519.61	0.643
519.81	0.646
520.00	0.646
520.20	0.647
520.40	0.650
520.60	0.651
520.80	0.650
521.00	0.650
521.20	0.651
521.40	0.656
521.60	0.656
521.80	0.655
522.00	0.655
522.20	0.658
522.39	0.657
522.59	0.654
522.79	0.655
522.99	0.658
523.19	0.656
523.39	0.654
523.59	0.652
523.79	0.655
523.99	0.658
524.19	0.656
524.38	0.654
524.58	0.656
524.78	0.656
524.98	0.655
525.18	0.657
525.38	0.658
525.58	0.658
525.78	0.656
525.98	0.654
526.18	0.655
526.37	0.654
526.57	0.656
526.77	0.656
526.97	0.656
527.17	0.656
527.37	0.652
527.57	0.654
527.77	0.657
527.96	0.656
528.16	0.656
528.36	0.657
528.56	0.659
528.76	0.656
528.96	0.655
529.16	0.656
529.36	0.660
529.55	0.660
529.75	0.656
529.95	0.656
530.15	0.658
530.35	0.660
530.55	0.657
530.75	0.657
530.94	0.659
531.14	0.660
531.34	0.658
531.54	0.656
531.74	0.659
531.94	0.663
532.13	0.661
532.33	0.663
532.53	0.662
532.73	0.662
532.93	0.660
533.13	0.661
533.33	0.661
533.52	0.662
533.72	0.665
533.92	0.663
534.12	0.662
534.32	0.662
534.52	0.660
534.71	0.661
534.91	0.664
535.11	0.666
535.31	0.664
535.51	0.666
535.71	0.668
535.90	0.664
536.10	0.665
536.30	0.667
536.50	0.668
536.70	0.668
536.89	0.666
537.09	0.665
537.29	0.667
537.49	0.668
537.69	0.666
537.89	0.666
538.08	0.666
538.28	0.664
538.48	0.664
538.68	0.666
538.88	0.668
539.07	0.667
539.27	0.665
539.47	0.664
539.67	0.664
539.87	0.665
540.06	0.663
540.26	0.664
540.46	0.666
540.66	0.663
540.86	0.661
541.05	0.661
541.25	0.663
541.45	0.664
541.65	0.662
541.84	0.664
542.04	0.665
542.24	0.666
542.44	0.665
542.64	0.666
542.83	0.669
543.03	0.669
543.23	0.666
543.43	0.668
543.62	0.669
543.82	0.669
544.02	0.668
544.22	0.668
544.42	0.672
544.61	0.672
544.81	0.669
545.01	0.668
545.21	0.671
545.40	0.671
545.60	0.668
545.80	0.672
546.00	0.672
546.19	0.672
546.39	0.671
546.59	0.668
546.79	0.669
546.98	0.670
547.18	0.669
547.38	0.670
547.58	0.673
547.77	0.673
547.97	0.668
548.17	0.670
548.37	0.671
548.56	0.671
548.76	0.671
548.96	0.672
549.16	0.675
549.35	0.675
549.55	0.672
549.75	0.673
549.95	0.677
550.14	0.677
550.34	0.675
550.54	0.680
550.73	0.683
550.93	0.684
551.13	0.681
551.33	0.679
551.52	0.681
551.72	0.680
551.92	0.678
552.12	0.678
552.31	0.679
552.51	0.679
552.71	0.674
552.90	0.674
553.10	0.675
553.30	0.675
553.50	0.674
553.69	0.675
553.89	0.677
554.09	0.677
554.28	0.674
554.48	0.676
554.68	0.678
554.87	0.678
555.07	0.674
555.27	0.675
555.47	0.677
555.66	0.678
555.86	0.676
556.06	0.678
556.25	0.680
556.45	0.687
556.65	0.685
556.84	0.688
557.04	0.691
557.24	0.693
557.43	0.692
557.63	0.695
557.83	0.697
558.02	0.698
558.22	0.701
558.42	0.702
558.61	0.695
558.81	0.696
559.01	0.692
559.21	0.692
559.40	0.694
559.60	0.694
559.80	0.689
559.99	0.690
560.19	0.693
560.39	0.686
560.58	0.684
560.78	0.684
560.97	0.687
561.17	0.685
561.37	0.683
561.56	0.683
561.76	0.685
561.96	0.685
562.15	0.682
562.35	0.684
562.55	0.686
562.74	0.686
562.94	0.685
563.14	0.683
563.33	0.684
563.53	0.684
563.73	0.681
563.92	0.682
564.12	0.686
564.31	0.688
564.51	0.686
564.71	0.687
564.90	0.691
565.10	0.691
565.30	0.694
565.49	0.694
565.69	0.697
565.89	0.698
566.08	0.694
566.28	0.696
566.47	0.698
566.67	0.696
566.87	0.693
567.06	0.694
567.26	0.701
567.46	0.696
567.65	0.695
567.85	0.696
568.04	0.699
568.24	0.699
568.44	0.696
568.63	0.694
568.83	0.696
569.02	0.694
569.22	0.689
569.42	0.685
569.61	0.688
569.81	0.687
570.00	0.684
570.20	0.685
570.40	0.687
570.59	0.686
570.79	0.684
570.98	0.682
571.18	0.684
571.38	0.683
571.57	0.680
571.77	0.678
571.96	0.682
572.16	0.679
572.35	0.674
572.55	0.675
572.75	0.673
572.94	0.673
573.14	0.672
573.33	0.672
573.53	0.672
573.73	0.672
573.92	0.670
574.12	0.668
574.31	0.670
574.51	0.672
574.70	0.668
574.90	0.670
575.09	0.672
575.29	0.672
575.49	0.669
575.68	0.670
575.88	0.671
576.07	0.672
576.27	0.670
576.46	0.669
576.66	0.668
576.86	0.668
577.05	0.665
577.25	0.664
577.44	0.665
577.64	0.665
577.83	0.663
578.03	0.664
578.22	0.664
578.42	0.663
578.61	0.661
578.81	0.661
579.00	0.662
579.20	0.662
579.40	0.661
579.59	0.659
579.79	0.660
579.98	0.659
580.18	0.658
580.37	0.659
580.57	0.661
580.76	0.666
580.96	0.664
581.15	0.665
581.35	0.667
581.54	0.666
581.74	0.666
581.93	0.667
582.13	0.669
582.32	0.666
582.52	0.664
582.71	0.664
582.91	0.660
583.10	0.660
583.30	0.658
583.49	0.657
583.69	0.661
583.88	0.662
584.08	0.661
584.27	0.663
584.47	0.667
584.66	0.668
584.86	0.666
585.05	0.669
585.25	0.671
585.44	0.670
585.64	0.669
585.83	0.665
586.03	0.666
586.22	0.665
586.42	0.660
586.61	0.662
586.81	0.664
587.00	0.665
587.20	0.662
587.39	0.663
587.59	0.666
587.78	0.667
587.98	0.668
588.17	0.669
588.37	0.671
588.56	0.674
588.76	0.669
588.95	0.669
589.15	0.673
589.34	0.675
589.54	0.674
589.73	0.674
589.92	0.678
590.12	0.677
590.31	0.675
590.51	0.680
590.70	0.682
590.90	0.682
591.09	0.679
591.29	0.678
591.48	0.678
591.68	0.679
591.87	0.677
592.06	0.676
592.26	0.679
592.45	0.678
592.65	0.672
592.84	0.672
593.04	0.675
593.23	0.677
593.43	0.675
593.62	0.674
593.81	0.675
594.01	0.675
594.20	0.672
594.40	0.672
594.59	0.674
594.79	0.675
594.98	0.674
595.17	0.673
595.37	0.673
595.56	0.675
595.76	0.674
595.95	0.676
596.14	0.679
596.34	0.680
596.53	0.678
596.73	0.679
596.92	0.681
597.12	0.684
597.31	0.683
597.50	0.682
597.70	0.684
597.89	0.684
598.09	0.680
598.28	0.680
598.47	0.683
598.67	0.682
598.86	0.678
599.06	0.680
599.25	0.680
599.44	0.678
599.64	0.675
599.83	0.673
600.03	0.676
600.22	0.677
600.41	0.677
600.61	0.674
600.80	0.677
601.00	0.678
601.19	0.674
601.38	0.672
601.58	0.675
601.77	0.676
601.96	0.678
602.16	0.678
602.35	0.687
602.55	0.685
602.74	0.686
602.93	0.687
603.13	0.692
603.32	0.693
603.51	0.692
603.71	0.695
603.90	0.697
604.09	0.698
604.29	0.695
604.48	0.689
604.68	0.691
604.87	0.689
605.06	0.685
605.26	0.682
605.45	0.683
605.64	0.682
605.84	0.677
606.03	0.676
606.22	0.675
606.42	0.675
606.61	0.671
606.80	0.672
607.00	0.674
607.19	0.675
607.38	0.674
607.58	0.675
607.77	0.678
607.96	0.678
608.16	0.677
608.35	0.681
608.54	0.684
608.74	0.687
608.93	0.692
609.12	0.695
609.32	0.697
609.51	0.700
609.70	0.699
609.90	0.701
610.09	0.706
610.28	0.712
610.48	0.704
610.67	0.706
610.86	0.707
611.06	0.701
611.25	0.698
611.44	0.699
611.64	0.699
611.83	0.702
612.02	0.698
612.21	0.696
612.41	0.695
612.60	0.695
612.79	0.690
612.99	0.691
613.18	0.693
613.37	0.691
613.57	0.689
613.76	0.691
613.95	0.688
614.14	0.688
614.34	0.685
614.53	0.685
614.72	0.688
614.92	0.689
615.11	0.685
615.30	0.682
615.49	0.683
615.69	0.686
615.88	0.682
616.07	0.683
616.26	0.685
616.46	0.687
616.65	0.683
616.84	0.682
617.04	0.684
617.23	0.688
617.42	0.688
617.61	0.692
617.81	0.694
618.00	0.696
618.19	0.694
618.38	0.699
618.58	0.702
618.77	0.703
618.96	0.703
619.15	0.705
619.35	0.707
619.54	0.707
619.73	0.703
619.92	0.704
620.12	0.708
620.31	0.709
620.50	0.703
620.69	0.703
620.89	0.707
621.08	0.707
621.27	0.706
621.46	0.705
621.66	0.710
621.85	0.710
622.04	0.706
622.23	0.707
622.43	0.708
622.62	0.708
622.81	0.706
623.00	0.707
623.19	0.711
623.39	0.709
623.58	0.706
623.77	0.705
623.96	0.709
624.16	0.709
624.35	0.703
624.54	0.706
624.73	0.711
624.92	0.707
625.12	0.704
625.31	0.705
625.50	0.710
625.69	0.710
625.88	0.706
626.08	0.705
626.27	0.707
626.46	0.707
626.65	0.703
626.84	0.704
627.04	0.710
627.23	0.709
627.42	0.704
627.61	0.705
627.80	0.708
628.00	0.708
628.19	0.706
628.38	0.710
628.57	0.713
628.76	0.712
628.96	0.709
629.15	0.710
629.34	0.714
629.53	0.714
629.72	0.709
629.91	0.709
630.11	0.714
630.30	0.714
630.49	0.717
630.68	0.718
630.87	0.722
631.06	0.724
631.26	0.718
631.45	0.720
631.64	0.729
631.83	0.731
632.02	0.729
632.21	0.728
632.41	0.735
632.60	0.729
632.79	0.726
632.98	0.726
633.17	0.728
633.36	0.731
633.55	0.726
633.75	0.722
633.94	0.724
634.13	0.724
634.32	0.721
634.51	0.715
634.70	0.718
634.89	0.717
635.09	0.713
635.28	0.714
635.47	0.716
635.66	0.719
635.85	0.716
636.04	0.718
636.23	0.723
636.43	0.724
636.62	0.723
636.81	0.721
637.00	0.725
637.19	0.728
637.38	0.724
637.57	0.724
637.76	0.725
637.95	0.725
638.15	0.720
638.34	0.717
638.53	0.721
638.72	0.722
638.91	0.719
639.10	0.717
639.29	0.718
639.48	0.719
639.67	0.718
639.87	0.716
640.06	0.721
640.25	0.722
640.44	0.723
640.63	0.722
640.82	0.725
641.01	0.726
641.20	0.724
641.39	0.726
641.58	0.729
641.78	0.728
641.97	0.723
642.16	0.739
642.35	0.740
642.54	0.738
642.73	0.733
642.92	0.732
643.11	0.736
643.30	0.736
643.49	0.730
643.68	0.733
643.87	0.735
644.06	0.736
644.25	0.714
644.45	0.717
644.64	0.719
644.83	0.719
645.02	0.715
645.21	0.714
645.40	0.716
645.59	0.716
645.78	0.709
645.97	0.712
646.16	0.713
646.35	0.712
646.54	0.710
646.73	0.711
646.92	0.713
647.11	0.712
647.30	0.707
647.49	0.709
647.68	0.709
647.88	0.708
648.07	0.699
648.26	0.703
648.45	0.705
648.64	0.701
648.83	0.698
649.02	0.700
649.21	0.711
649.40	0.711
649.59	0.705
649.78	0.706
649.97	0.721
650.16	0.721
650.35	0.715
650.54	0.718
650.73	0.726
650.92	0.723
651.11	0.716
651.30	0.714
651.49	0.719
651.68	0.720
651.87	0.716
652.06	0.707
652.25	0.710
652.44	0.713
652.63	0.710
652.82	0.709
653.01	0.708
653.20	0.707
653.39	0.694
653.58	0.691
653.77	0.690
653.96	0.686
654.15	0.676
654.34	0.675
654.53	0.669
654.72	0.663
654.91	0.654
655.10	0.650
655.29	0.648
655.48	0.646
655.67	0.640
655.86	0.638
656.05	0.636
656.24	0.636
656.43	0.631
656.62	0.630
656.81	0.631
657.00	0.628
657.19	0.625
657.38	0.626
657.57	0.625
657.76	0.628
657.95	0.625
658.14	0.629
658.33	0.632
658.51	0.637
658.70	0.638
658.89	0.639
659.08	0.649
659.27	0.657
659.46	0.657
659.65	0.664
659.84	0.669
660.03	0.672
660.22	0.673
660.41	0.676
660.60	0.675
660.79	0.677
660.98	0.683
661.17	0.682
661.36	0.681
661.55	0.682
661.74	0.680
661.92	0.682
662.11	0.685
662.30	0.684
662.49	0.678
662.68	0.678
662.87	0.681
663.06	0.675
663.25	0.676
663.44	0.676
663.63	0.677
663.82	0.675
664.01	0.669
664.20	0.667
664.38	0.668
664.57	0.669
664.76	0.668
664.95	0.669
665.14	0.673
665.33	0.668
665.52	0.675
665.71	0.679
665.90	0.680
666.09	0.682
666.28	0.680
666.46	0.679
666.65	0.680
666.84	0.678
667.03	0.672
667.22	0.670
667.41	0.673
667.60	0.663
667.79	0.656
667.98	0.656
668.16	0.657
668.35	0.657
668.54	0.653
668.73	0.653
668.92	0.655
669.11	0.654
669.30	0.647
669.49	0.643
669.67	0.646
669.86	0.649
670.05	0.646
670.24	0.643
670.43	0.640
670.62	0.639
670.81	0.634
671.00	0.635
671.18	0.635
671.37	0.634
671.56	0.632
671.75	0.630
671.94	0.627
672.13	0.624
672.32	0.621
672.50	0.620
672.69	0.621
672.88	0.622
673.07	0.617
673.26	0.619
673.45	0.620
673.63	0.620
673.82	0.616
674.01	0.618
674.20	0.618
674.39	0.617
674.58	0.616
674.76	0.616
674.95	0.614
675.14	0.614
675.33	0.610
675.52	0.608
675.71	0.608
675.89	0.608
676.08	0.602
676.27	0.603
676.46	0.603
676.65	0.603
676.84	0.602
677.02	0.604
677.21	0.606
677.40	0.605
677.59	0.603
677.78	0.604
677.96	0.607
678.15	0.607
678.34	0.605
678.53	0.605
678.72	0.605
678.90	0.602
679.09	0.598
679.28	0.595
679.47	0.595
679.66	0.594
679.84	0.591
680.03	0.588
680.22	0.587
680.41	0.588
680.60	0.584
680.78	0.584
680.97	0.586
681.16	0.587
681.35	0.585
681.53	0.585
681.72	0.587
681.91	0.589
682.10	0.587
682.29	0.590
682.47	0.587
682.66	0.586
682.85	0.585
683.04	0.583
683.22	0.583
683.41	0.585
683.60	0.583
683.79	0.583
683.97	0.583
684.16	0.582
684.35	0.578
684.54	0.580
684.72	0.580
684.91	0.581
685.10	0.578
685.29	0.579
685.47	0.577
685.66	0.576
685.85	0.572
686.04	0.570
686.22	0.573
686.41	0.575
686.60	0.572
686.79	0.576
686.97	0.577
687.16	0.578
687.35	0.576
687.54	0.579
687.72	0.583
687.91	0.583
688.10	0.585
688.29	0.585
688.47	0.583
688.66	0.583
688.85	0.578
689.03	0.575
689.22	0.580
689.41	0.580
689.60	0.576
689.78	0.573
689.97	0.574
690.16	0.571
690.34	0.567
690.53	0.566
690.72	0.567
690.91	0.565
691.09	0.564
691.28	0.557
691.47	0.556
691.65	0.555
691.84	0.552
692.03	0.551
692.21	0.549
692.40	0.549
692.59	0.547
692.77	0.546
692.96	0.548
693.15	0.549
693.34	0.547
693.52	0.547
693.71	0.548
693.90	0.549
694.08	0.550
694.27	0.551
694.46	0.560
694.64	0.561
694.83	0.560
695.02	0.559
695.20	0.558
695.39	0.558
695.58	0.557
695.76	0.558
695.95	0.558
696.14	0.557
696.32	0.554
696.51	0.544
696.70	0.544
696.88	0.545
697.07	0.544
697.26	0.544
697.44	0.546
697.63	0.545
697.81	0.542
698.00	0.541
698.19	0.541
698.37	0.541
698.56	0.541
698.75	0.542
698.93	0.542
699.12	0.541
699.31	0.541
699.49	0.540
699.68	0.541
699.87	0.544
700.05	0.543
700.24	0.543
700.42	0.544
700.61	0.543
700.80	0.540
700.98	0.540
701.17	0.541
701.36	0.540
701.54	0.539
701.73	0.541
701.91	0.538
702.10	0.538
702.29	0.536
702.47	0.536
702.66	0.538
702.84	0.539
703.03	0.537
703.22	0.538
703.40	0.538
703.59	0.540
703.77	0.539
703.96	0.539
704.15	0.540
704.33	0.539
704.52	0.539
704.70	0.538
704.89	0.538
705.08	0.537
705.26	0.534
705.45	0.534
705.63	0.533
705.82	0.529
706.00	0.528
706.19	0.527
706.38	0.527
706.56	0.527
706.75	0.525
706.93	0.524
707.12	0.526
707.30	0.526
707.49	0.523
707.68	0.522
707.86	0.521
708.05	0.521
708.23	0.518
708.42	0.519
708.60	0.522
708.79	0.521
708.98	0.519
709.16	0.518
709.35	0.521
709.53	0.525
709.72	0.524
709.90	0.525
710.09	0.528
710.27	0.530
710.46	0.533
710.64	0.532
710.83	0.534
711.02	0.536
711.20	0.534
711.39	0.532
711.57	0.530
711.76	0.530
711.94	0.528
712.13	0.529
712.31	0.529
712.50	0.524
712.68	0.521
712.87	0.522
713.05	0.522
713.24	0.523
713.42	0.522
713.61	0.523
713.79	0.524
713.98	0.524
714.16	0.525
714.35	0.524
714.54	0.526
714.72	0.526
714.91	0.523
715.09	0.530
715.28	0.533
715.46	0.533
715.65	0.531
715.83	0.530
716.02	0.533
716.20	0.530
716.39	0.529
716.57	0.530
716.76	0.532
716.94	0.532
717.12	0.524
717.31	0.526
717.49	0.529
717.68	0.531
717.86	0.530
718.05	0.532
718.23	0.534
718.42	0.537
718.60	0.538
718.79	0.546
718.97	0.549
719.16	0.548
719.34	0.545
719.53	0.545
719.71	0.545
719.90	0.547
720.08	0.544
720.27	0.545
720.45	0.545
720.63	0.544
720.82	0.537
721.00	0.541
721.19	0.544
721.37	0.544
721.56	0.543
721.74	0.547
721.93	0.556
722.11	0.563
722.30	0.562
722.48	0.567
722.66	0.569
722.85	0.569
723.03	0.569
723.22	0.567
723.40	0.571
723.59	0.572
723.77	0.575
723.95	0.568
724.14	0.570
724.32	0.572
724.51	0.569
724.69	0.571
724.88	0.571
725.06	0.570
725.24	0.571
725.43	0.573
725.61	0.575
725.80	0.568
725.98	0.566
726.16	0.562
726.35	0.568
726.53	0.567
726.72	0.566
726.90	0.577
727.09	0.578
727.27	0.583
727.45	0.579
727.64	0.589
727.82	0.599
728.01	0.605
728.19	0.601
728.37	0.606
728.56	0.610
728.74	0.616
728.92	0.603
729.11	0.605
729.29	0.605
729.48	0.609
729.66	0.597
729.84	0.596
730.03	0.599
730.21	0.602
730.40	0.592
730.58	0.594
730.76	0.594
730.95	0.598
731.13	0.597
731.31	0.612
731.50	0.621
731.68	0.623
731.86	0.619
732.05	0.634
732.23	0.639
732.42	0.642
732.60	0.647
732.78	0.653
732.97	0.672
733.15	0.680
733.33	0.666
733.52	0.673
733.70	0.686
733.88	0.697
734.07	0.680
734.25	0.707
734.43	0.717
734.62	0.720
734.80	0.712
734.98	0.704
735.17	0.711
735.35	0.720
735.53	0.708
735.72	0.713
735.90	0.735
736.08	0.756
736.27	0.730
736.45	0.740
736.63	0.752
736.82	0.765
737.00	0.763
737.18	0.774
737.37	0.808
737.55	0.832
737.73	0.824
737.92	0.828
738.10	0.825
738.28	0.850
738.46	0.836
738.65	0.855
738.83	0.880
739.01	0.940
739.20	0.927
739.38	0.909
739.56	0.901
739.75	0.906
739.93	0.869
740.11	0.899
740.29	0.899
740.48	0.908
740.66	0.882
740.84	0.876
741.03	0.836
741.21	0.850
741.39	0.829
741.57	0.844
741.76	0.866
741.94	0.870
742.12	0.828
742.31	0.834
742.49	0.856
742.67	0.879
742.85	0.894
743.04	0.900
743.22	0.910
743.40	0.974
743.58	0.951
743.77	0.965
743.95	1.008
744.13	1.071
744.31	1.045
744.50	1.038
744.68	1.048
744.86	1.013
745.04	1.027
745.23	1.099
745.41	1.073
745.59	1.087
745.77	1.044
745.96	1.030
746.14	1.042
746.32	1.041
746.50	1.031
746.69	1.009
746.87	1.030
747.05	1.011
747.23	0.926
747.42	0.911
747.60	0.941
747.78	0.945
747.96	0.980
748.14	0.927
748.33	0.961
748.51	0.952
748.69	0.940
748.87	0.974
749.06	0.971
749.24	0.975
749.42	0.958
749.60	0.937
749.78	0.950
749.97	0.898
750.15	0.892
750.33	0.894
750.51	0.921
750.69	0.926
750.88	0.923
751.06	0.932
751.24	0.968
751.42	0.958
751.60	0.942
751.79	1.026
751.97	1.089
752.15	1.087
752.33	1.043
752.51	1.125
752.69	1.152
752.88	1.109
753.06	1.166
753.24	1.124
753.42	1.175
753.60	1.417
753.78	1.205
753.97	1.220
754.15	1.248
754.33	1.292
754.51	1.124
754.69	1.107
754.87	1.149
755.06	1.059
755.24	1.057
755.42	1.059
755.60	0.948
755.78	0.958
755.96	0.891
756.15	0.887
756.33	0.893
756.51	0.915
756.69	0.892
756.87	0.855
757.05	0.880
757.23	0.867
757.42	0.832
757.60	0.829
757.78	0.817
757.96	0.820
758.14	0.803
758.32	0.788
758.50	0.800
758.69	0.804
758.87	0.794
759.05	0.797
759.23	0.804
759.41	0.804
759.59	0.795
759.77	0.821
759.95	0.854
760.13	0.904
760.32	0.900
760.50	0.896
760.68	0.922
760.86	0.924
761.04	0.890
761.22	0.902
761.40	0.960
761.58	0.959
761.76	0.925
761.95	0.898
762.13	0.853
762.31	0.853
762.49	0.819
762.67	0.837
762.85	0.851
763.03	0.848
763.21	0.821
763.39	0.799
763.57	0.804
763.75	0.797
763.94	0.782
764.12	0.783
764.30	0.808
764.48	0.813
764.66	0.774
764.84	0.773
765.02	0.812
765.20	0.820
765.38	0.801
765.56	0.812
765.74	0.857
765.92	0.855
766.10	0.864
766.28	0.856
766.46	0.886
766.65	0.889
766.83	0.875
767.01	0.861
767.19	0.872
767.37	0.870
767.55	0.849
767.73	0.827
767.91	0.834
768.09	0.820
768.27	0.808
768.45	0.799
768.63	0.807
768.81	0.806
768.99	0.775
769.17	0.798
769.35	0.813
769.53	0.812
769.71	0.792
769.89	0.802
770.07	0.812
770.25	0.794
770.43	0.770
770.61	0.792
770.79	0.798
770.97	0.810
771.15	0.778
771.33	0.784
771.51	0.789
771.69	0.798
771.87	0.803
772.05	0.809
772.24	0.819
772.42	0.828
772.60	0.804
772.78	0.871
772.96	0.905
773.14	0.898
773.32	0.871
773.49	0.878
773.67	0.878
773.85	0.859
774.03	0.844
774.21	0.878
774.39	0.894
774.57	0.918
774.75	0.835
774.93	0.828
775.11	0.857
775.29	0.863
775.47	0.861
775.65	0.870
775.83	0.892
776.01	0.920
776.19	0.865
776.37	0.865
776.55	0.866
776.73	0.863
776.91	0.856
777.09	0.829
777.27	0.828
777.45	0.819
777.63	0.795
777.81	0.792
777.99	0.778
778.17	0.778
778.35	0.755
778.53	0.746
778.71	0.754
778.89	0.740
779.07	0.732
779.24	0.739
779.42	0.739
779.60	0.758
779.78	0.750
779.96	0.755
780.14	0.765
780.32	0.788
780.50	0.766
780.68	0.764
780.86	0.758
781.04	0.777
781.22	0.779
781.40	0.791
781.58	0.784
781.75	0.777
781.93	0.759
782.11	0.759
782.29	0.745
782.47	0.744
782.65	0.731
782.83	0.762
783.01	0.755
783.19	0.748
783.37	0.731
783.55	0.733
783.72	0.755
783.90	0.765
784.08	0.757
784.26	0.769
784.44	0.792
784.62	0.796
784.80	0.757
784.98	0.762
785.16	0.771
785.33	0.785
785.51	0.767
785.69	0.751
785.87	0.751
786.05	0.763
786.23	0.758
786.41	0.754
786.59	0.763
786.77	0.762
786.94	0.745
787.12	0.747
787.30	0.751
787.48	0.749
787.66	0.735
787.84	0.736
788.02	0.726
788.19	0.723
788.37	0.710
788.55	0.708
788.73	0.711
788.91	0.706
789.09	0.688
789.27	0.680
789.44	0.691
789.62	0.696
789.80	0.703
789.98	0.729
790.16	0.714
790.34	0.710
790.51	0.698
790.69	0.719
790.87	0.728
791.05	0.726
791.23	0.715
791.41	0.715
791.58	0.726
791.76	0.704
791.94	0.671
792.12	0.681
792.30	0.684
792.48	0.681
792.65	0.673
792.83	0.679
793.01	0.689
793.19	0.688
793.37	0.672
793.54	0.668
793.72	0.682
793.90	0.680
794.08	0.666
794.26	0.668
794.43	0.678
794.61	0.662
794.79	0.649
794.97	0.646
795.15	0.653
795.32	0.656
795.50	0.645
795.68	0.639
795.86	0.645
796.04	0.647
796.21	0.641
796.39	0.639
796.57	0.653
796.75	0.661
796.92	0.663
797.10	0.670
797.28	0.674
797.46	0.677
797.64	0.678
797.81	0.684
797.99	0.689
798.17	0.694
798.35	0.687
798.52	0.690
798.70	0.684
798.88	0.693
799.06	0.687
799.23	0.690
799.41	0.699
799.59	0.692
799.77	0.681
799.94	0.691
800.12	0.703
800.30	0.720
800.48	0.718
800.65	0.719
800.83	0.709
801.01	0.703
801.19	0.704
801.36	0.701
801.54	0.704
801.72	0.713
801.90	0.698
802.07	0.691
802.25	0.678
802.43	0.661
802.60	0.656
802.78	0.663
802.96	0.669
803.14	0.661
803.31	0.658
803.49	0.659
803.67	0.655
803.84	0.659
804.02	0.651
804.20	0.653
804.38	0.659
804.55	0.660
804.73	0.643
804.91	0.645
805.08	0.658
805.26	0.653
805.44	0.721
805.61	0.725
805.79	0.726
805.97	0.725
806.15	0.717
806.32	0.713
806.50	0.720
806.68	0.720
806.85	0.709
807.03	0.700
807.21	0.720
807.38	0.648
807.56	0.636
807.74	0.647
807.91	0.654
808.09	0.656
808.27	0.675
808.44	0.703
808.62	0.715
808.80	0.717
808.97	0.712
809.15	0.704
809.33	0.724
809.50	0.733
809.68	0.717
809.86	0.725
810.03	0.760
810.21	0.738
810.39	0.716
810.56	0.722
810.74	0.750
810.91	0.825
811.09	0.812
811.27	0.834
811.44	0.841
811.62	0.842
811.80	0.825
811.97	0.791
812.15	0.790
812.33	0.787
812.50	0.771
812.68	0.755
812.85	0.698
813.03	0.701
813.21	0.668
813.38	0.661
813.56	0.666
813.74	0.675
813.91	0.682
814.09	0.716
814.26	0.708
814.44	0.709
814.62	0.699
814.79	0.703
814.97	0.708
815.14	0.711
815.32	0.713
815.50	0.731
815.67	0.737
815.85	0.728
816.02	0.711
816.20	0.719
816.38	0.735
816.55	0.742
816.73	0.740
816.90	0.751
817.08	0.787
817.26	0.795
817.43	0.772
817.61	0.797
817.78	0.822
817.96	0.804
818.13	0.795
818.31	0.800
818.49	0.813
818.66	0.803
818.84	0.788
819.01	0.766
819.19	0.775
819.36	0.777
819.54	0.743
819.71	0.788
819.89	0.804
820.07	0.817
820.24	0.807
820.42	0.808
820.59	0.833
820.77	0.858
820.94	0.848
821.12	0.869
821.29	0.888
821.47	0.892
821.64	0.820
821.82	0.836
822.00	0.835
822.17	0.834
822.35	0.827
822.52	0.827
822.70	0.814
822.87	0.823
823.05	0.798
823.22	0.808
823.40	0.840
823.57	0.861
823.75	0.834
823.92	0.863
824.10	0.883
824.27	0.936
824.45	0.924
824.62	1.008
824.80	1.029
824.97	1.048
825.15	1.036
825.32	1.055
825.50	1.071
825.67	1.095
825.85	1.066
826.02	1.102
826.20	1.130
826.37	1.327
826.55	1.192
826.72	1.567
826.90	1.812
827.07	2.132
827.25	1.816
827.42	-0.000
827.60	-0.000
827.77	-0.000
827.95	-0.000
828.12	-0.000
828.30	-0.000
828.47	-0.000
828.65	1.755
828.82	1.947
829.00	3.361
829.17	-0.000
829.34	-0.000
829.52	-0.000
829.69	-0.000
829.87	-0.000
830.04	-0.000
830.22	-0.000
830.39	-0.000
830.57	-0.000
830.74	-0.000
830.92	-0.000
831.09	-0.000
831.26	-0.000
831.44	-0.000
831.61	-0.000
831.79	-0.000
831.96	-0.000
832.14	-0.000
832.31	-0.000
832.49	-0.000
832.66	-0.000
832.83	-0.000
833.01	-0.000
833.18	-0.000
833.36	-0.000
833.53	-0.000
833.70	-0.000
833.88	-0.000
834.05	-0.000
834.23	-0.000
834.40	-0.000
834.58	-0.000
834.75	-0.000
834.92	-0.000
835.10	-0.000
835.27	-0.000
835.45	-0.000
835.62	-0.000
835.79	-0.000
835.97	-0.000
836.14	-0.000
836.32	-0.000
836.49	-0.000
836.66	-0.000
836.84	-0.000
837.01	-0.000
837.18	-0.000
837.36	-0.000
837.53	-0.000
837.71	-0.000
837.88	-0.000
838.05	-0.000
838.23	-0.000
838.40	-0.000
838.58	-0.000
838.75	-0.000
838.92	-0.000
839.10	-0.000
839.27	-0.000
839.44	-0.000
839.62	-0.000
839.79	-0.000
839.96	-0.000
840.14	-0.000
840.31	-0.000
840.48	-0.000
840.66	-0.000
840.83	-0.000
841.01	-0.000
841.18	-0.000
841.35	-0.000
841.53	-0.000
841.70	-0.000
841.87	-0.000
842.05	-0.000
842.22	-0.000
842.39	-0.000
842.57	-0.000
842.74	-0.000
842.91	-0.000
843.09	-0.000
843.26	-0.000
843.43	-0.000
843.60	-0.000
843.78	-0.000
843.95	-0.000
844.12	-0.000
844.30	-0.000
844.47	-0.000
844.64	-0.000
844.82	-0.000
844.99	-0.000
845.16	-0.000
845.34	-0.000
845.51	-0.000
845.68	-0.000
845.85	-0.000
846.03	-0.000
846.20	-0.000
846.37	-0.000
846.55	-0.000
846.72	-0.000
846.89	-0.000
847.06	-0.000
847.24	-0.000
847.41	-0.000
847.58	-0.000
847.76	-0.000
847.93	-0.000
848.10	-0.000
848.27	-0.000
848.45	-0.000
848.62	-0.000
848.79	-0.000
848.97	-0.000
849.14	-0.000
849.31	-0.000
849.48	-0.000
849.66	-0.000
849.83	-0.000
850.00	-0.000
850.17	-0.000
850.35	-0.000
850.52	-0.000
850.69	-0.000
850.86	-0.000
851.04	-0.000
851.21	-0.000
851.38	-0.000
851.55	-0.000
851.72	-0.000
851.90	-0.000
852.07	-0.000
852.24	-0.000
852.41	-0.000
852.59	-0.000
852.76	-0.000
852.93	-0.000
853.10	-0.000
853.28	-0.000
853.45	-0.000
853.62	-0.000
853.79	-0.000
853.96	-0.000
854.14	-0.000
854.31	-0.000
854.48	-0.000
854.65	-0.000
854.82	-0.000
855.00	-0.000
855.17	-0.000
855.34	-0.000
855.51	-0.000
855.68	-0.000
855.86	-0.000
856.03	-0.000
856.20	-0.000
856.37	-0.000
856.54	-0.000
856.72	-0.000
856.89	-0.000
857.06	-0.000
857.23	-0.000
857.40	-0.000
857.57	-0.000
857.75	-0.000
857.92	-0.000
858.09	-0.000
858.26	-0.000
858.43	-0.000
858.60	-0.000
858.78	-0.000
858.95	-0.000
859.12	-0.000
859.29	-0.000
859.46	-0.000
859.63	-0.000
859.81	-0.000
859.98	-0.000
860.15	-0.000
860.32	-0.000
860.49	-0.000
860.66	-0.000
860.83	-0.000
861.01	-0.000
861.18	-0.000
861.35	-0.000
861.52	-0.000
861.69	-0.000
861.86	-0.000
862.03	-0.000
862.21	-0.000
862.38	-0.000
862.55	-0.000
862.72	-0.000
862.89	-0.000
863.06	-0.000
863.23	-0.000
863.40	-0.000
863.58	-0.000
863.75	-0.000
863.92	-0.000
864.09	-0.000
864.26	-0.000
864.43	-0.000
864.60	-0.000
864.77	-0.000
864.94	-0.000
865.11	-0.000
865.29	-0.000
865.46	-0.000
865.63	-0.000
865.80	-0.000
865.97	-0.000
866.14	-0.000
866.31	-0.000
866.48	-0.000
866.65	-0.000
866.82	-0.000
866.99	-0.000
867.16	-0.000
867.34	-0.000
867.51	-0.000
867.68	-0.000
867.85	-0.000
868.02	-0.000
868.19	-0.000
868.36	-0.000
868.53	-0.000
868.70	-0.000
868.87	-0.000
869.04	-0.000
869.21	-0.000
869.38	-0.000
869.55	-0.000
869.72	-0.000
869.89	-0.000
870.06	-0.000
870.24	-0.000
870.41	-0.000
870.58	-0.000
870.75	-0.000
870.92	-0.000
871.09	-0.000
871.26	-0.000
871.43	-0.000
871.60	-0.000
871.77	-0.000
871.94	-0.000
872.11	-0.000
872.28	-0.000
872.45	-0.000
872.62	-0.000
872.79	-0.000
872.96	-0.000
873.13	-0.000
873.30	-0.000
873.47	-0.000
873.64	-0.000
873.81	-0.000
873.98	-0.000
874.15	-0.000
874.32	-0.000
874.49	-0.000
874.66	-0.000
874.83	-0.000
875.00	-0.000
875.17	-0.000
875.34	-0.000
875.51	-0.000
875.68	-0.000
875.85	-0.000
876.02	-0.000
876.19	-0.000
876.36	-0.000
876.53	-0.000
876.70	-0.000
876.87	-0.000
877.04	-0.000
877.21	-0.000
877.38	-0.000
877.55	-0.000
877.72	-0.000
877.89	-0.000
878.06	-0.000
878.23	-0.000
878.39	-0.000
878.56	-0.000
878.73	-0.000
878.90	-0.000
879.07	-0.000
879.24	-0.000
879.41	-0.000
879.58	-0.000
879.75	-0.000
879.92	-0.000
880.09	-0.000
880.26	-0.000
880.43	-0.000
880.60	-0.000
880.77	-0.000
880.94	-0.000
881.11	-0.000
881.27	-0.000
881.44	-0.000
881.61	-0.000
881.78	-0.000
881.95	-0.000
882.12	-0.000
882.29	-0.000
882.46	-0.000
882.63	-0.000
882.80	-0.000
882.97	-0.000
883.14	-0.000
883.30	-0.000
883.47	-0.000
883.64	-0.000
883.81	-0.000
883.98	-0.000
884.15	-0.000
884.32	-0.000
884.49	-0.000
884.66	-0.000
884.82	-0.000
884.99	-0.000
885.16	-0.000
885.33	-0.000
885.50	-0.000
885.67	-0.000
885.84	-0.000
886.01	-0.000
886.17	-0.000
886.34	-0.000
886.51	-0.000
886.68	-0.000
886.85	-0.000
887.02	-0.000
887.19	-0.000
887.36	-0.000
887.52	-0.000
887.69	-0.000
887.86	-0.000
888.03	-0.000
888.20	-0.000
888.37	-0.000
888.54	-0.000
888.70	-0.000
888.87	-0.000
889.04	-0.000
889.21	-0.000
889.38	-0.000
889.55	-0.000
889.71	-0.000
889.88	-0.000
890.05	-0.000
890.22	-0.000
890.39	-0.000
>>>>>End Processed Spectral Data<<<<<
