SpectraSuite Data File
++++++++++++++++++++++++++++++++++++
Date: Fri Jun 19 14:47:56 CEST 2015
User: introlabs
Dark Spectrum Present: Yes
Reference Spectrum Present: Yes
Number of Sampled Component Spectra: 1
Spectrometers: USB4H08886
Integration Time (usec): 745692 (USB4H08886)
Spectra Averaged: 5 (USB4H08886)
Boxcar Smoothing: 5 (USB4H08886)
Correct for Electrical Dark: Yes (USB4H08886)
Strobe/Lamp Enabled: No (USB4H08886)
Correct for Detector Non-linearity: Yes (USB4H08886)
Correct for Stray Light: Yes (USB4H08886)
Number of Pixels in Processed Spectrum: 3648
>>>>>Begin Processed Spectral Data<<<<<
178.14	-0.000
178.36	-0.000
178.57	-0.000
178.79	-0.000
179.01	-0.000
179.22	-0.000
179.44	-0.000
179.65	-0.000
179.87	-0.000
180.08	-0.000
180.30	-0.000
180.52	-0.000
180.73	-0.000
180.95	-0.000
181.16	-0.000
181.38	-0.000
181.59	-0.000
181.81	-0.000
182.03	-0.000
182.24	-0.000
182.46	-0.000
182.67	-0.000
182.89	-0.000
183.10	-0.000
183.32	-0.000
183.54	-0.000
183.75	-0.000
183.97	-0.000
184.18	-0.000
184.40	-0.000
184.61	-0.000
184.83	-0.000
185.04	-0.000
185.26	-0.000
185.48	-0.000
185.69	-0.000
185.91	-0.000
186.12	-0.000
186.34	-0.000
186.55	-0.000
186.77	-0.000
186.98	-0.000
187.20	-0.000
187.42	-0.000
187.63	-0.000
187.85	-0.000
188.06	-0.000
188.28	-0.000
188.49	-0.000
188.71	-0.000
188.92	-0.000
189.14	-0.000
189.36	-0.000
189.57	-0.000
189.79	-0.000
190.00	-0.000
190.22	-0.000
190.43	-0.000
190.65	-0.000
190.86	-0.000
191.08	-0.000
191.29	-0.000
191.51	-0.000
191.72	-0.000
191.94	-0.000
192.16	-0.000
192.37	-0.000
192.59	-0.000
192.80	-0.000
193.02	-0.000
193.23	-0.000
193.45	-0.000
193.66	-0.000
193.88	-0.000
194.09	-0.000
194.31	-0.000
194.52	-0.000
194.74	-0.000
194.95	-0.000
195.17	-0.000
195.38	-0.000
195.60	-0.000
195.81	-0.000
196.03	-0.000
196.25	-0.000
196.46	-0.000
196.68	-0.000
196.89	-0.000
197.11	-0.000
197.32	-0.000
197.54	-0.000
197.75	-0.000
197.97	-0.000
198.18	-0.000
198.40	-0.000
198.61	-0.000
198.83	-0.000
199.04	-0.000
199.26	-0.000
199.47	-0.000
199.69	-0.000
199.90	-0.000
200.12	-0.000
200.33	-0.000
200.55	-0.000
200.76	-0.000
200.98	-0.000
201.19	-0.000
201.41	-0.000
201.62	-0.000
201.84	-0.000
202.05	-0.000
202.27	-0.000
202.48	-0.000
202.70	-0.000
202.91	-0.000
203.13	-0.000
203.34	-0.000
203.56	-0.000
203.77	-0.000
203.99	-0.000
204.20	-0.000
204.42	-0.000
204.63	-0.000
204.85	-0.000
205.06	-0.000
205.28	-0.000
205.49	-0.000
205.71	-0.000
205.92	-0.000
206.14	-0.000
206.35	-0.000
206.56	-0.000
206.78	-0.000
206.99	-0.000
207.21	-0.000
207.42	-0.000
207.64	-0.000
207.85	-0.000
208.07	-0.000
208.28	-0.000
208.50	-0.000
208.71	-0.000
208.93	-0.000
209.14	-0.000
209.36	-0.000
209.57	-0.000
209.79	-0.000
210.00	-0.000
210.22	-0.000
210.43	-0.000
210.64	-0.000
210.86	-0.000
211.07	-0.000
211.29	-0.000
211.50	-0.000
211.72	-0.000
211.93	-0.000
212.15	-0.000
212.36	-0.000
212.58	-0.000
212.79	-0.000
213.01	-0.000
213.22	-0.000
213.43	-0.000
213.65	-0.000
213.86	-0.000
214.08	-0.000
214.29	-0.000
214.51	-0.000
214.72	-0.000
214.94	-0.000
215.15	-0.000
215.36	-0.000
215.58	-0.000
215.79	-0.000
216.01	-0.000
216.22	-0.000
216.44	-0.000
216.65	-0.000
216.87	-0.000
217.08	-0.000
217.29	-0.000
217.51	-0.000
217.72	-0.000
217.94	-0.000
218.15	-0.000
218.37	-0.000
218.58	-0.000
218.80	-0.000
219.01	-0.000
219.22	-0.000
219.44	-0.000
219.65	-0.000
219.87	-0.000
220.08	-0.000
220.30	-0.000
220.51	-0.000
220.72	-0.000
220.94	-0.000
221.15	-0.000
221.37	-0.000
221.58	-0.000
221.79	-0.000
222.01	-0.000
222.22	-0.000
222.44	-0.000
222.65	-0.000
222.87	-0.000
223.08	-0.000
223.29	-0.000
223.51	-0.000
223.72	-0.000
223.94	-0.000
224.15	-0.000
224.36	-0.000
224.58	-0.000
224.79	-0.000
225.01	-0.000
225.22	-0.000
225.44	-0.000
225.65	-0.000
225.86	-0.000
226.08	-0.000
226.29	-0.000
226.51	-0.000
226.72	-0.000
226.93	-0.000
227.15	-0.000
227.36	-0.000
227.58	-0.000
227.79	-0.000
228.00	-0.000
228.22	-0.000
228.43	-0.000
228.65	-0.000
228.86	-0.000
229.07	-0.000
229.29	-0.000
229.50	-0.000
229.72	-0.000
229.93	-0.000
230.14	-0.000
230.36	-0.000
230.57	-0.000
230.78	-0.000
231.00	-0.000
231.21	-0.000
231.43	-0.000
231.64	-0.000
231.85	-0.000
232.07	-0.000
232.28	-0.000
232.50	-0.000
232.71	-0.000
232.92	-0.000
233.14	-0.000
233.35	-0.000
233.56	-0.000
233.78	-0.000
233.99	-0.000
234.21	-0.000
234.42	-0.000
234.63	-0.000
234.85	-0.000
235.06	-0.000
235.27	-0.000
235.49	-0.000
235.70	-0.000
235.91	-0.000
236.13	-0.000
236.34	-0.000
236.56	-0.000
236.77	-0.000
236.98	-0.000
237.20	-0.000
237.41	-0.000
237.62	-0.000
237.84	-0.000
238.05	-0.000
238.26	-0.000
238.48	-0.000
238.69	-0.000
238.91	-0.000
239.12	-0.000
239.33	-0.000
239.55	-0.000
239.76	-0.000
239.97	-0.000
240.19	-0.000
240.40	-0.000
240.61	-0.000
240.83	-0.000
241.04	-0.000
241.25	-0.000
241.47	-0.000
241.68	-0.000
241.89	-0.000
242.11	-0.000
242.32	-0.000
242.53	-0.000
242.75	-0.000
242.96	-0.000
243.17	-0.000
243.39	-0.000
243.60	-0.000
243.81	-0.000
244.03	-0.000
244.24	-0.000
244.45	-0.000
244.67	-0.000
244.88	-0.000
245.09	-0.000
245.31	-0.000
245.52	-0.000
245.73	-0.000
245.95	-0.000
246.16	-0.000
246.37	-0.000
246.59	-0.000
246.80	-0.000
247.01	-0.000
247.23	-0.000
247.44	-0.000
247.65	-0.000
247.87	-0.000
248.08	-0.000
248.29	-0.000
248.51	-0.000
248.72	-0.000
248.93	-0.000
249.15	-0.000
249.36	-0.000
249.57	-0.000
249.78	-0.000
250.00	-0.000
250.21	-0.000
250.42	-0.000
250.64	-0.000
250.85	-0.000
251.06	-0.000
251.28	-0.000
251.49	-0.000
251.70	-0.000
251.92	-0.000
252.13	-0.000
252.34	-0.000
252.55	-0.000
252.77	-0.000
252.98	-0.000
253.19	-0.000
253.41	-0.000
253.62	-0.000
253.83	-0.000
254.05	-0.000
254.26	-0.000
254.47	-0.000
254.68	-0.000
254.90	-0.000
255.11	-0.000
255.32	-0.000
255.54	-0.000
255.75	-0.000
255.96	-0.000
256.17	-0.000
256.39	-0.000
256.60	-0.000
256.81	-0.000
257.03	-0.000
257.24	-0.000
257.45	-0.000
257.66	-0.000
257.88	-0.000
258.09	-0.000
258.30	-0.000
258.51	-0.000
258.73	-0.000
258.94	-0.000
259.15	-0.000
259.37	-0.000
259.58	-0.000
259.79	-0.000
260.00	-0.000
260.22	-0.000
260.43	-0.000
260.64	-0.000
260.85	-0.000
261.07	-0.000
261.28	-0.000
261.49	-0.000
261.71	-0.000
261.92	-0.000
262.13	-0.000
262.34	-0.000
262.56	-0.000
262.77	-0.000
262.98	-0.000
263.19	-0.000
263.41	-0.000
263.62	-0.000
263.83	-0.000
264.04	-0.000
264.26	-0.000
264.47	-0.000
264.68	-0.000
264.89	-0.000
265.11	-0.000
265.32	-0.000
265.53	-0.000
265.74	-0.000
265.96	-0.000
266.17	-0.000
266.38	-0.000
266.59	-0.000
266.81	-0.000
267.02	-0.000
267.23	-0.000
267.44	-0.000
267.65	-0.000
267.87	-0.000
268.08	-0.000
268.29	-0.000
268.50	-0.000
268.72	-0.000
268.93	-0.000
269.14	-0.000
269.35	-0.000
269.57	-0.000
269.78	-0.000
269.99	-0.000
270.20	-0.000
270.41	-0.000
270.63	-0.000
270.84	-0.000
271.05	-0.000
271.26	-0.000
271.48	-0.000
271.69	-0.000
271.90	-0.000
272.11	-0.000
272.32	-0.000
272.54	-0.000
272.75	-0.000
272.96	-0.000
273.17	-0.000
273.39	-0.000
273.60	-0.000
273.81	-0.000
274.02	-0.000
274.23	-0.000
274.45	-0.000
274.66	-0.000
274.87	-0.000
275.08	-0.000
275.29	-0.000
275.51	-0.000
275.72	-0.000
275.93	-0.000
276.14	-0.000
276.35	-0.000
276.57	-0.000
276.78	-0.000
276.99	-0.000
277.20	-0.000
277.41	-0.000
277.63	-0.000
277.84	-0.000
278.05	-0.000
278.26	-0.000
278.47	-0.000
278.69	-0.000
278.90	-0.000
279.11	-0.000
279.32	-0.000
279.53	-0.000
279.74	-0.000
279.96	-0.000
280.17	-0.000
280.38	-0.000
280.59	-0.000
280.80	-0.000
281.02	-0.000
281.23	-0.000
281.44	-0.000
281.65	-0.000
281.86	-0.000
282.07	-0.000
282.29	-0.000
282.50	-0.000
282.71	-0.000
282.92	-0.000
283.13	-0.000
283.35	-0.000
283.56	-0.000
283.77	-0.000
283.98	-0.000
284.19	-0.000
284.40	-0.000
284.62	-0.000
284.83	-0.000
285.04	-0.000
285.25	-0.000
285.46	-0.000
285.67	-0.000
285.88	-0.000
286.10	-0.000
286.31	-0.000
286.52	-0.000
286.73	-0.000
286.94	-0.000
287.15	-0.000
287.37	-0.000
287.58	-0.000
287.79	-0.000
288.00	-0.000
288.21	-0.000
288.42	-0.000
288.63	-0.000
288.85	-0.000
289.06	-0.000
289.27	-0.000
289.48	-0.000
289.69	-0.000
289.90	-0.000
290.11	-0.000
290.33	-0.000
290.54	-0.000
290.75	-0.000
290.96	-0.000
291.17	-0.000
291.38	-0.000
291.59	-0.000
291.81	-0.000
292.02	-0.000
292.23	-0.000
292.44	-0.000
292.65	-0.000
292.86	-0.000
293.07	-0.000
293.28	-0.000
293.50	-0.000
293.71	-0.000
293.92	-0.000
294.13	-0.000
294.34	-0.000
294.55	-0.000
294.76	-0.000
294.97	-0.000
295.19	-0.000
295.40	-0.000
295.61	-0.000
295.82	-0.000
296.03	-0.000
296.24	-0.000
296.45	2.428
296.66	1.868
296.87	1.890
297.09	1.966
297.30	2.219
297.51	1.762
297.72	1.719
297.93	1.808
298.14	1.764
298.35	1.714
298.56	1.700
298.77	1.836
298.99	1.810
299.20	1.773
299.41	1.746
299.62	1.703
299.83	1.691
300.04	1.622
300.25	1.614
300.46	1.658
300.67	1.626
300.88	1.567
301.10	1.570
301.31	1.651
301.52	1.593
301.73	1.529
301.94	1.534
302.15	1.552
302.36	1.506
302.57	1.440
302.78	1.446
302.99	1.492
303.20	1.517
303.41	1.422
303.63	1.401
303.84	1.409
304.05	1.409
304.26	1.346
304.47	1.350
304.68	1.351
304.89	1.342
305.10	1.305
305.31	1.292
305.52	1.331
305.73	1.324
305.94	1.280
306.15	1.271
306.37	1.293
306.58	1.300
306.79	1.267
307.00	1.288
307.21	1.331
307.42	1.322
307.63	1.285
307.84	1.253
308.05	1.289
308.26	1.292
308.47	1.268
308.68	1.265
308.89	1.266
309.10	1.269
309.31	1.229
309.52	1.219
309.73	1.232
309.95	1.226
310.16	1.198
310.37	1.187
310.58	1.206
310.79	1.203
311.00	1.197
311.21	1.199
311.42	1.197
311.63	1.192
311.84	1.173
312.05	1.172
312.26	1.194
312.47	1.206
312.68	1.181
312.89	1.163
313.10	1.170
313.31	1.144
313.52	1.146
313.73	1.148
313.94	1.153
314.15	1.135
314.36	1.114
314.57	1.107
314.78	1.094
314.99	1.088
315.21	1.076
315.42	1.082
315.63	1.095
315.84	1.072
316.05	1.058
316.26	1.064
316.47	1.083
316.68	1.077
316.89	1.059
317.10	1.077
317.31	1.085
317.52	1.086
317.73	1.065
317.94	1.062
318.15	1.104
318.36	1.102
318.57	1.084
318.78	1.073
318.99	1.111
319.20	1.108
319.41	1.077
319.62	1.077
319.83	1.091
320.04	1.086
320.25	1.075
320.46	1.042
320.67	1.045
320.88	1.042
321.09	1.029
321.30	1.012
321.51	1.027
321.72	1.023
321.93	1.006
322.14	0.999
322.35	1.026
322.56	1.027
322.77	1.014
322.98	1.026
323.19	1.031
323.40	1.037
323.61	1.016
323.82	1.009
324.03	1.016
324.24	1.015
324.45	1.002
324.66	0.982
324.87	0.980
325.08	0.980
325.29	0.960
325.50	0.959
325.71	0.964
325.92	0.972
326.13	0.960
326.34	0.960
326.55	0.968
326.76	0.968
326.97	0.957
327.18	0.950
327.39	0.975
327.60	0.976
327.80	0.972
328.01	0.970
328.22	0.968
328.43	0.971
328.64	0.961
328.85	0.964
329.06	0.965
329.27	0.966
329.48	0.962
329.69	0.945
329.90	0.955
330.11	0.947
330.32	0.940
330.53	0.935
330.74	0.936
330.95	0.934
331.16	0.918
331.37	0.926
331.58	0.925
331.79	0.924
332.00	0.914
332.21	0.908
332.42	0.913
332.63	0.904
332.83	0.898
333.04	0.901
333.25	0.914
333.46	0.913
333.67	0.899
333.88	0.902
334.09	0.913
334.30	0.911
334.51	0.903
334.72	0.898
334.93	0.901
335.14	0.901
335.35	0.892
335.56	0.886
335.77	0.894
335.98	0.892
336.18	0.887
336.39	0.879
336.60	0.883
336.81	0.880
337.02	0.880
337.23	0.885
337.44	0.889
337.65	0.890
337.86	0.880
338.07	0.876
338.28	0.881
338.49	0.878
338.70	0.871
338.91	0.877
339.11	0.883
339.32	0.879
339.53	0.867
339.74	0.863
339.95	0.859
340.16	0.858
340.37	0.849
340.58	0.848
340.79	0.850
341.00	0.850
341.21	0.840
341.41	0.841
341.62	0.842
341.83	0.843
342.04	0.839
342.25	0.850
342.46	0.855
342.67	0.853
342.88	0.847
343.09	0.846
343.30	0.853
343.50	0.856
343.71	0.846
343.92	0.845
344.13	0.850
344.34	0.849
344.55	0.831
344.76	0.829
344.97	0.833
345.18	0.832
345.38	0.829
345.59	0.824
345.80	0.822
346.01	0.820
346.22	0.816
346.43	0.810
346.64	0.818
346.85	0.818
347.06	0.812
347.26	0.813
347.47	0.817
347.68	0.813
347.89	0.809
348.10	0.806
348.31	0.812
348.52	0.811
348.73	0.810
348.93	0.807
349.14	0.809
349.35	0.809
349.56	0.802
349.77	0.798
349.98	0.804
350.19	0.802
350.39	0.797
350.60	0.793
350.81	0.808
351.02	0.807
351.23	0.802
351.44	0.806
351.65	0.808
351.86	0.807
352.06	0.805
352.27	0.805
352.48	0.807
352.69	0.805
352.90	0.800
353.11	0.787
353.31	0.793
353.52	0.790
353.73	0.781
353.94	0.782
354.15	0.788
354.36	0.788
354.57	0.780
354.77	0.781
354.98	0.780
355.19	0.780
355.40	0.779
355.61	0.785
355.82	0.789
356.02	0.788
356.23	0.781
356.44	0.783
356.65	0.786
356.86	0.786
357.07	0.779
357.27	0.783
357.48	0.785
357.69	0.782
357.90	0.766
358.11	0.763
358.32	0.767
358.52	0.769
358.73	0.758
358.94	0.760
359.15	0.765
359.36	0.765
359.56	0.760
359.77	0.757
359.98	0.763
360.19	0.763
360.40	0.760
360.61	0.760
360.81	0.760
361.02	0.761
361.23	0.753
361.44	0.752
361.65	0.752
361.85	0.753
362.06	0.751
362.27	0.752
362.48	0.752
362.69	0.754
362.89	0.748
363.10	0.748
363.31	0.752
363.52	0.756
363.73	0.751
363.93	0.752
364.14	0.753
364.35	0.754
364.56	0.746
364.77	0.748
364.97	0.749
365.18	0.750
365.39	0.745
365.60	0.742
365.81	0.743
366.01	0.743
366.22	0.739
366.43	0.738
366.64	0.740
366.84	0.745
367.05	0.742
367.26	0.742
367.47	0.744
367.68	0.745
367.88	0.742
368.09	0.740
368.30	0.742
368.51	0.742
368.71	0.742
368.92	0.746
369.13	0.744
369.34	0.743
369.55	0.742
369.75	0.742
369.96	0.748
370.17	0.747
370.38	0.743
370.58	0.743
370.79	0.748
371.00	0.747
371.21	0.738
371.41	0.744
371.62	0.748
371.83	0.743
372.04	0.741
372.24	0.735
372.45	0.736
372.66	0.736
372.87	0.732
373.07	0.730
373.28	0.731
373.49	0.734
373.70	0.724
373.90	0.724
374.11	0.732
374.32	0.732
374.53	0.731
374.73	0.732
374.94	0.734
375.15	0.734
375.36	0.731
375.56	0.740
375.77	0.739
375.98	0.740
376.19	0.737
376.39	0.731
376.60	0.734
376.81	0.734
377.02	0.732
377.22	0.731
377.43	0.731
377.64	0.730
377.84	0.721
378.05	0.726
378.26	0.732
378.47	0.732
378.67	0.729
378.88	0.726
379.09	0.727
379.30	0.726
379.50	0.724
379.71	0.726
379.92	0.730
380.12	0.729
380.33	0.721
380.54	0.717
380.75	0.723
380.95	0.723
381.16	0.721
381.37	0.721
381.57	0.723
381.78	0.724
381.99	0.723
382.20	0.723
382.40	0.726
382.61	0.726
382.82	0.723
383.02	0.716
383.23	0.720
383.44	0.720
383.64	0.719
383.85	0.721
384.06	0.724
384.27	0.721
384.47	0.719
384.68	0.719
384.89	0.725
385.09	0.725
385.30	0.724
385.51	0.723
385.71	0.726
385.92	0.727
386.13	0.725
386.33	0.727
386.54	0.729
386.75	0.728
386.95	0.724
387.16	0.719
387.37	0.722
387.58	0.722
387.78	0.719
387.99	0.718
388.20	0.720
388.40	0.718
388.61	0.714
388.82	0.717
389.02	0.719
389.23	0.720
389.44	0.718
389.64	0.719
389.85	0.730
390.06	0.729
390.26	0.729
390.47	0.728
390.68	0.730
390.88	0.729
391.09	0.725
391.30	0.724
391.50	0.724
391.71	0.725
391.92	0.722
392.12	0.714
392.33	0.716
392.53	0.716
392.74	0.716
392.95	0.715
393.15	0.718
393.36	0.719
393.57	0.717
393.77	0.720
393.98	0.721
394.19	0.721
394.39	0.720
394.60	0.721
394.81	0.723
395.01	0.721
395.22	0.720
395.43	0.721
395.63	0.726
395.84	0.727
396.04	0.723
396.25	0.726
396.46	0.728
396.66	0.726
396.87	0.723
397.08	0.720
397.28	0.722
397.49	0.723
397.69	0.719
397.90	0.714
398.11	0.715
398.31	0.716
398.52	0.713
398.73	0.714
398.93	0.713
399.14	0.712
399.34	0.712
399.55	0.713
399.76	0.713
399.96	0.714
400.17	0.712
400.37	0.712
400.58	0.718
400.79	0.718
400.99	0.716
401.20	0.722
401.41	0.725
401.61	0.726
401.82	0.731
402.02	0.730
402.23	0.732
402.44	0.731
402.64	0.731
402.85	0.726
403.05	0.725
403.26	0.724
403.47	0.718
403.67	0.717
403.88	0.717
404.08	0.711
404.29	0.710
404.50	0.709
404.70	0.710
404.91	0.709
405.11	0.706
405.32	0.707
405.52	0.707
405.73	0.706
405.94	0.704
406.14	0.707
406.35	0.709
406.55	0.710
406.76	0.708
406.97	0.708
407.17	0.711
407.38	0.711
407.58	0.709
407.79	0.712
407.99	0.715
408.20	0.716
408.41	0.711
408.61	0.709
408.82	0.710
409.02	0.710
409.23	0.708
409.43	0.707
409.64	0.709
409.84	0.708
410.05	0.705
410.26	0.703
410.46	0.703
410.67	0.702
410.87	0.704
411.08	0.705
411.28	0.706
411.49	0.708
411.69	0.706
411.90	0.707
412.11	0.709
412.31	0.710
412.52	0.708
412.72	0.709
412.93	0.710
413.13	0.709
413.34	0.705
413.54	0.707
413.75	0.708
413.95	0.708
414.16	0.704
414.37	0.707
414.57	0.708
414.78	0.710
414.98	0.709
415.19	0.710
415.39	0.707
415.60	0.709
415.80	0.708
416.01	0.706
416.21	0.708
416.42	0.708
416.62	0.703
416.83	0.703
417.03	0.703
417.24	0.703
417.44	0.700
417.65	0.699
417.86	0.699
418.06	0.698
418.27	0.695
418.47	0.697
418.68	0.698
418.88	0.698
419.09	0.696
419.29	0.697
419.50	0.697
419.70	0.697
419.91	0.695
420.11	0.693
420.32	0.695
420.52	0.695
420.73	0.694
420.93	0.695
421.14	0.696
421.34	0.695
421.55	0.691
421.75	0.691
421.96	0.692
422.16	0.693
422.37	0.691
422.57	0.689
422.78	0.691
422.98	0.687
423.19	0.685
423.39	0.683
423.60	0.687
423.80	0.689
424.01	0.687
424.21	0.689
424.42	0.691
424.62	0.691
424.83	0.689
425.03	0.690
425.23	0.692
425.44	0.692
425.64	0.693
425.85	0.691
426.05	0.692
426.26	0.693
426.46	0.689
426.67	0.688
426.87	0.694
427.08	0.694
427.28	0.692
427.49	0.693
427.69	0.693
427.90	0.693
428.10	0.690
428.31	0.690
428.51	0.692
428.71	0.691
428.92	0.692
429.12	0.689
429.33	0.689
429.53	0.693
429.74	0.697
429.94	0.697
430.15	0.696
430.35	0.696
430.56	0.693
430.76	0.691
430.96	0.692
431.17	0.689
431.37	0.687
431.58	0.685
431.78	0.682
431.99	0.674
432.19	0.676
432.40	0.678
432.60	0.679
432.80	0.681
433.01	0.679
433.21	0.679
433.42	0.682
433.62	0.682
433.83	0.681
434.03	0.684
434.23	0.687
434.44	0.686
434.64	0.684
434.85	0.689
435.05	0.690
435.26	0.690
435.46	0.689
435.66	0.689
435.87	0.689
436.07	0.689
436.28	0.684
436.48	0.681
436.69	0.681
436.89	0.681
437.09	0.675
437.30	0.673
437.50	0.673
437.71	0.685
437.91	0.683
438.11	0.685
438.32	0.689
438.52	0.689
438.73	0.689
438.93	0.687
439.13	0.687
439.34	0.691
439.54	0.688
439.75	0.688
439.95	0.678
440.15	0.682
440.36	0.681
440.56	0.678
440.77	0.679
440.97	0.679
441.17	0.678
441.38	0.679
441.58	0.676
441.79	0.676
441.99	0.675
442.19	0.674
442.40	0.671
442.60	0.671
442.81	0.668
443.01	0.669
443.21	0.670
443.42	0.669
443.62	0.667
443.82	0.667
444.03	0.668
444.23	0.668
444.44	0.668
444.64	0.667
444.84	0.669
445.05	0.668
445.25	0.666
445.45	0.665
445.66	0.668
445.86	0.667
446.06	0.669
446.27	0.669
446.47	0.672
446.68	0.670
446.88	0.668
447.08	0.667
447.29	0.669
447.49	0.669
447.69	0.669
447.90	0.668
448.10	0.671
448.30	0.668
448.51	0.670
448.71	0.667
448.91	0.669
449.12	0.668
449.32	0.669
449.52	0.668
449.73	0.671
449.93	0.670
450.14	0.670
450.34	0.670
450.54	0.672
450.75	0.669
450.95	0.668
451.15	0.668
451.36	0.670
451.56	0.667
451.76	0.666
451.97	0.664
452.17	0.664
452.37	0.663
452.58	0.660
452.78	0.659
452.98	0.661
453.19	0.661
453.39	0.661
453.59	0.661
453.79	0.661
454.00	0.661
454.20	0.661
454.40	0.661
454.61	0.663
454.81	0.664
455.01	0.662
455.22	0.662
455.42	0.663
455.62	0.661
455.83	0.660
456.03	0.663
456.23	0.664
456.44	0.665
456.64	0.664
456.84	0.664
457.04	0.664
457.25	0.664
457.45	0.661
457.65	0.660
457.86	0.661
458.06	0.660
458.26	0.656
458.47	0.656
458.67	0.657
458.87	0.657
459.07	0.654
459.28	0.656
459.48	0.658
459.68	0.658
459.89	0.657
460.09	0.656
460.29	0.657
460.49	0.659
460.70	0.657
460.90	0.657
461.10	0.658
461.31	0.658
461.51	0.654
461.71	0.656
461.91	0.657
462.12	0.657
462.32	0.657
462.52	0.658
462.72	0.660
462.93	0.661
463.13	0.660
463.33	0.661
463.53	0.662
463.74	0.662
463.94	0.658
464.14	0.658
464.35	0.660
464.55	0.660
464.75	0.658
464.95	0.655
465.16	0.658
465.36	0.656
465.56	0.655
465.76	0.654
465.97	0.655
466.17	0.655
466.37	0.653
466.57	0.654
466.78	0.654
466.98	0.655
467.18	0.652
467.38	0.651
467.59	0.652
467.79	0.654
467.99	0.654
468.19	0.655
468.39	0.658
468.60	0.658
468.80	0.656
469.00	0.658
469.20	0.659
469.41	0.660
469.61	0.658
469.81	0.659
470.01	0.658
470.22	0.657
470.42	0.655
470.62	0.653
470.82	0.654
471.02	0.653
471.23	0.651
471.43	0.651
471.63	0.654
471.83	0.654
472.04	0.652
472.24	0.651
472.44	0.657
472.64	0.656
472.84	0.655
473.05	0.655
473.25	0.657
473.45	0.656
473.65	0.655
473.85	0.655
474.06	0.656
474.26	0.656
474.46	0.657
474.66	0.654
474.86	0.655
475.07	0.655
475.27	0.654
475.47	0.652
475.67	0.652
475.87	0.653
476.08	0.650
476.28	0.651
476.48	0.652
476.68	0.651
476.88	0.648
477.09	0.649
477.29	0.651
477.49	0.652
477.69	0.651
477.89	0.651
478.09	0.651
478.30	0.654
478.50	0.651
478.70	0.650
478.90	0.651
479.10	0.654
479.31	0.655
479.51	0.653
479.71	0.653
479.91	0.653
480.11	0.652
480.31	0.652
480.52	0.651
480.72	0.651
480.92	0.650
481.12	0.649
481.32	0.647
481.52	0.644
481.72	0.644
481.93	0.647
482.13	0.648
482.33	0.648
482.53	0.646
482.73	0.646
482.93	0.647
483.14	0.647
483.34	0.646
483.54	0.647
483.74	0.647
483.94	0.646
484.14	0.641
484.34	0.641
484.55	0.642
484.75	0.642
484.95	0.639
485.15	0.638
485.35	0.639
485.55	0.638
485.75	0.636
485.96	0.636
486.16	0.638
486.36	0.637
486.56	0.636
486.76	0.636
486.96	0.637
487.16	0.636
487.36	0.635
487.57	0.634
487.77	0.635
487.97	0.636
488.17	0.634
488.37	0.633
488.57	0.634
488.77	0.634
488.97	0.633
489.18	0.633
489.38	0.635
489.58	0.635
489.78	0.635
489.98	0.634
490.18	0.634
490.38	0.635
490.58	0.633
490.78	0.634
490.98	0.635
491.19	0.635
491.39	0.634
491.59	0.633
491.79	0.636
491.99	0.636
492.19	0.636
492.39	0.639
492.59	0.639
492.79	0.641
492.99	0.641
493.20	0.641
493.40	0.642
493.60	0.644
493.80	0.642
494.00	0.640
494.20	0.640
494.40	0.640
494.60	0.637
494.80	0.642
495.00	0.641
495.20	0.639
495.40	0.638
495.61	0.640
495.81	0.640
496.01	0.643
496.21	0.644
496.41	0.643
496.61	0.644
496.81	0.642
497.01	0.637
497.21	0.636
497.41	0.638
497.61	0.637
497.81	0.634
498.01	0.635
498.21	0.632
498.41	0.630
498.61	0.630
498.82	0.632
499.02	0.634
499.22	0.635
499.42	0.634
499.62	0.635
499.82	0.636
500.02	0.637
500.22	0.635
500.42	0.638
500.62	0.639
500.82	0.638
501.02	0.636
501.22	0.636
501.42	0.637
501.62	0.639
501.82	0.638
502.02	0.638
502.22	0.638
502.42	0.640
502.62	0.637
502.82	0.637
503.02	0.638
503.22	0.637
503.42	0.635
503.63	0.635
503.83	0.633
504.03	0.631
504.23	0.630
504.43	0.630
504.63	0.631
504.83	0.631
505.03	0.630
505.23	0.632
505.43	0.634
505.63	0.635
505.83	0.635
506.03	0.637
506.23	0.639
506.43	0.639
506.63	0.639
506.83	0.637
507.03	0.639
507.23	0.639
507.43	0.636
507.63	0.637
507.83	0.637
508.03	0.638
508.23	0.637
508.43	0.635
508.63	0.637
508.83	0.637
509.03	0.639
509.23	0.638
509.43	0.639
509.63	0.639
509.83	0.638
510.03	0.641
510.23	0.642
510.43	0.642
510.63	0.643
510.83	0.642
511.03	0.644
511.23	0.641
511.43	0.641
511.63	0.642
511.83	0.644
512.03	0.644
512.22	0.641
512.42	0.640
512.62	0.641
512.82	0.641
513.02	0.640
513.22	0.640
513.42	0.642
513.62	0.645
513.82	0.643
514.02	0.642
514.22	0.644
514.42	0.645
514.62	0.645
514.82	0.645
515.02	0.648
515.22	0.651
515.42	0.650
515.62	0.652
515.82	0.651
516.02	0.652
516.22	0.652
516.42	0.653
516.62	0.654
516.82	0.655
517.01	0.653
517.21	0.653
517.41	0.657
517.61	0.657
517.81	0.654
518.01	0.653
518.21	0.652
518.41	0.651
518.61	0.650
518.81	0.650
519.01	0.651
519.21	0.651
519.41	0.650
519.61	0.644
519.81	0.646
520.00	0.646
520.20	0.647
520.40	0.650
520.60	0.651
520.80	0.651
521.00	0.651
521.20	0.652
521.40	0.656
521.60	0.657
521.80	0.656
522.00	0.656
522.20	0.658
522.39	0.656
522.59	0.653
522.79	0.655
522.99	0.657
523.19	0.655
523.39	0.652
523.59	0.651
523.79	0.654
523.99	0.656
524.19	0.655
524.38	0.653
524.58	0.655
524.78	0.656
524.98	0.654
525.18	0.657
525.38	0.658
525.58	0.658
525.78	0.656
525.98	0.655
526.18	0.655
526.37	0.655
526.57	0.657
526.77	0.657
526.97	0.657
527.17	0.657
527.37	0.654
527.57	0.656
527.77	0.657
527.96	0.657
528.16	0.656
528.36	0.657
528.56	0.659
528.76	0.656
528.96	0.656
529.16	0.657
529.36	0.661
529.55	0.660
529.75	0.657
529.95	0.657
530.15	0.659
530.35	0.661
530.55	0.659
530.75	0.659
530.94	0.660
531.14	0.661
531.34	0.659
531.54	0.656
531.74	0.659
531.94	0.662
532.13	0.661
532.33	0.663
532.53	0.661
532.73	0.661
532.93	0.659
533.13	0.660
533.33	0.660
533.52	0.661
533.72	0.664
533.92	0.662
534.12	0.660
534.32	0.661
534.52	0.659
534.71	0.661
534.91	0.664
535.11	0.665
535.31	0.663
535.51	0.665
535.71	0.667
535.90	0.664
536.10	0.666
536.30	0.668
536.50	0.668
536.70	0.668
536.89	0.666
537.09	0.665
537.29	0.666
537.49	0.667
537.69	0.665
537.89	0.665
538.08	0.665
538.28	0.663
538.48	0.663
538.68	0.666
538.88	0.667
539.07	0.667
539.27	0.666
539.47	0.665
539.67	0.665
539.87	0.667
540.06	0.664
540.26	0.665
540.46	0.667
540.66	0.664
540.86	0.661
541.05	0.661
541.25	0.663
541.45	0.663
541.65	0.661
541.84	0.663
542.04	0.664
542.24	0.665
542.44	0.663
542.64	0.665
542.83	0.668
543.03	0.669
543.23	0.666
543.43	0.667
543.62	0.669
543.82	0.669
544.02	0.668
544.22	0.668
544.42	0.671
544.61	0.672
544.81	0.668
545.01	0.667
545.21	0.669
545.40	0.670
545.60	0.668
545.80	0.671
546.00	0.671
546.19	0.670
546.39	0.669
546.59	0.667
546.79	0.668
546.98	0.669
547.18	0.668
547.38	0.669
547.58	0.672
547.77	0.672
547.97	0.668
548.17	0.670
548.37	0.671
548.56	0.670
548.76	0.669
548.96	0.671
549.16	0.674
549.35	0.673
549.55	0.670
549.75	0.669
549.95	0.672
550.14	0.672
550.34	0.670
550.54	0.676
550.73	0.679
550.93	0.680
551.13	0.677
551.33	0.675
551.52	0.676
551.72	0.677
551.92	0.675
552.12	0.676
552.31	0.677
552.51	0.678
552.71	0.672
552.90	0.672
553.10	0.674
553.30	0.674
553.50	0.673
553.69	0.675
553.89	0.676
554.09	0.676
554.28	0.672
554.48	0.674
554.68	0.676
554.87	0.675
555.07	0.673
555.27	0.673
555.47	0.674
555.66	0.674
555.86	0.673
556.06	0.675
556.25	0.677
556.45	0.684
556.65	0.682
556.84	0.685
557.04	0.688
557.24	0.690
557.43	0.689
557.63	0.692
557.83	0.694
558.02	0.694
558.22	0.698
558.42	0.699
558.61	0.692
558.81	0.693
559.01	0.689
559.21	0.689
559.40	0.690
559.60	0.690
559.80	0.687
559.99	0.688
560.19	0.690
560.39	0.684
560.58	0.682
560.78	0.682
560.97	0.686
561.17	0.684
561.37	0.682
561.56	0.683
561.76	0.684
561.96	0.683
562.15	0.681
562.35	0.683
562.55	0.684
562.74	0.683
562.94	0.682
563.14	0.680
563.33	0.681
563.53	0.681
563.73	0.679
563.92	0.681
564.12	0.684
564.31	0.686
564.51	0.683
564.71	0.685
564.90	0.688
565.10	0.689
565.30	0.691
565.49	0.692
565.69	0.694
565.89	0.694
566.08	0.691
566.28	0.692
566.47	0.694
566.67	0.692
566.87	0.690
567.06	0.692
567.26	0.698
567.46	0.694
567.65	0.694
567.85	0.695
568.04	0.698
568.24	0.698
568.44	0.695
568.63	0.693
568.83	0.695
569.02	0.694
569.22	0.689
569.42	0.685
569.61	0.687
569.81	0.685
570.00	0.683
570.20	0.685
570.40	0.685
570.59	0.685
570.79	0.684
570.98	0.682
571.18	0.683
571.38	0.683
571.57	0.680
571.77	0.679
571.96	0.682
572.16	0.679
572.35	0.674
572.55	0.675
572.75	0.673
572.94	0.673
573.14	0.672
573.33	0.672
573.53	0.672
573.73	0.672
573.92	0.670
574.12	0.668
574.31	0.671
574.51	0.672
574.70	0.669
574.90	0.671
575.09	0.673
575.29	0.673
575.49	0.670
575.68	0.671
575.88	0.672
576.07	0.673
576.27	0.671
576.46	0.669
576.66	0.669
576.86	0.668
577.05	0.665
577.25	0.664
577.44	0.666
577.64	0.666
577.83	0.664
578.03	0.665
578.22	0.664
578.42	0.664
578.61	0.662
578.81	0.663
579.00	0.664
579.20	0.663
579.40	0.662
579.59	0.661
579.79	0.661
579.98	0.660
580.18	0.660
580.37	0.660
580.57	0.662
580.76	0.666
580.96	0.664
581.15	0.665
581.35	0.667
581.54	0.667
581.74	0.667
581.93	0.669
582.13	0.670
582.32	0.667
582.52	0.665
582.71	0.664
582.91	0.660
583.10	0.660
583.30	0.659
583.49	0.658
583.69	0.662
583.88	0.663
584.08	0.661
584.27	0.664
584.47	0.667
584.66	0.668
584.86	0.666
585.05	0.669
585.25	0.671
585.44	0.671
585.64	0.669
585.83	0.666
586.03	0.666
586.22	0.664
586.42	0.660
586.61	0.662
586.81	0.665
587.00	0.664
587.20	0.662
587.39	0.662
587.59	0.664
587.78	0.665
587.98	0.666
588.17	0.667
588.37	0.669
588.56	0.671
588.76	0.667
588.95	0.667
589.15	0.672
589.34	0.674
589.54	0.673
589.73	0.674
589.92	0.677
590.12	0.677
590.31	0.675
590.51	0.680
590.70	0.681
590.90	0.682
591.09	0.679
591.29	0.678
591.48	0.678
591.68	0.679
591.87	0.677
592.06	0.676
592.26	0.678
592.45	0.678
592.65	0.671
592.84	0.671
593.04	0.674
593.23	0.676
593.43	0.674
593.62	0.673
593.81	0.674
594.01	0.674
594.20	0.671
594.40	0.670
594.59	0.671
594.79	0.672
594.98	0.670
595.17	0.669
595.37	0.670
595.56	0.672
595.76	0.671
595.95	0.673
596.14	0.676
596.34	0.678
596.53	0.676
596.73	0.678
596.92	0.680
597.12	0.683
597.31	0.683
597.50	0.681
597.70	0.684
597.89	0.683
598.09	0.679
598.28	0.680
598.47	0.682
598.67	0.680
598.86	0.677
599.06	0.679
599.25	0.679
599.44	0.677
599.64	0.675
599.83	0.672
600.03	0.676
600.22	0.677
600.41	0.676
600.61	0.674
600.80	0.677
601.00	0.677
601.19	0.672
601.38	0.671
601.58	0.673
601.77	0.675
601.96	0.676
602.16	0.676
602.35	0.685
602.55	0.683
602.74	0.683
602.93	0.685
603.13	0.690
603.32	0.692
603.51	0.692
603.71	0.695
603.90	0.696
604.09	0.697
604.29	0.694
604.48	0.688
604.68	0.690
604.87	0.689
605.06	0.685
605.26	0.682
605.45	0.683
605.64	0.682
605.84	0.677
606.03	0.676
606.22	0.674
606.42	0.673
606.61	0.670
606.80	0.671
607.00	0.672
607.19	0.672
607.38	0.670
607.58	0.672
607.77	0.675
607.96	0.675
608.16	0.673
608.35	0.678
608.54	0.681
608.74	0.684
608.93	0.688
609.12	0.691
609.32	0.694
609.51	0.697
609.70	0.696
609.90	0.698
610.09	0.702
610.28	0.708
610.48	0.701
610.67	0.702
610.86	0.704
611.06	0.698
611.25	0.695
611.44	0.695
611.64	0.696
611.83	0.698
612.02	0.694
612.21	0.692
612.41	0.691
612.60	0.691
612.79	0.687
612.99	0.687
613.18	0.690
613.37	0.688
613.57	0.685
613.76	0.686
613.95	0.685
614.14	0.685
614.34	0.682
614.53	0.683
614.72	0.686
614.92	0.686
615.11	0.682
615.30	0.679
615.49	0.681
615.69	0.683
615.88	0.679
616.07	0.680
616.26	0.682
616.46	0.682
616.65	0.680
616.84	0.679
617.04	0.680
617.23	0.683
617.42	0.683
617.61	0.687
617.81	0.688
618.00	0.689
618.19	0.688
618.38	0.692
618.58	0.695
618.77	0.696
618.96	0.695
619.15	0.699
619.35	0.701
619.54	0.702
619.73	0.697
619.92	0.699
620.12	0.704
620.31	0.705
620.50	0.699
620.69	0.699
620.89	0.702
621.08	0.702
621.27	0.702
621.46	0.701
621.66	0.705
621.85	0.704
622.04	0.700
622.23	0.700
622.43	0.702
622.62	0.702
622.81	0.700
623.00	0.699
623.19	0.703
623.39	0.701
623.58	0.698
623.77	0.697
623.96	0.700
624.16	0.700
624.35	0.695
624.54	0.697
624.73	0.701
624.92	0.699
625.12	0.696
625.31	0.697
625.50	0.700
625.69	0.701
625.88	0.697
626.08	0.697
626.27	0.698
626.46	0.699
626.65	0.696
626.84	0.696
627.04	0.700
627.23	0.700
627.42	0.695
627.61	0.697
627.80	0.700
628.00	0.700
628.19	0.699
628.38	0.703
628.57	0.705
628.76	0.705
628.96	0.702
629.15	0.703
629.34	0.707
629.53	0.708
629.72	0.703
629.91	0.703
630.11	0.707
630.30	0.707
630.49	0.709
630.68	0.710
630.87	0.713
631.06	0.715
631.26	0.710
631.45	0.711
631.64	0.719
631.83	0.720
632.02	0.718
632.21	0.718
632.41	0.724
632.60	0.718
632.79	0.717
632.98	0.716
633.17	0.717
633.36	0.719
633.55	0.716
633.75	0.712
633.94	0.714
634.13	0.714
634.32	0.711
634.51	0.706
634.70	0.708
634.89	0.708
635.09	0.705
635.28	0.705
635.47	0.706
635.66	0.710
635.85	0.705
636.04	0.707
636.23	0.713
636.43	0.714
636.62	0.712
636.81	0.711
637.00	0.713
637.19	0.716
637.38	0.713
637.57	0.714
637.76	0.715
637.95	0.716
638.15	0.712
638.34	0.708
638.53	0.713
638.72	0.714
638.91	0.711
639.10	0.710
639.29	0.709
639.48	0.710
639.67	0.709
639.87	0.708
640.06	0.713
640.25	0.712
640.44	0.713
640.63	0.713
640.82	0.715
641.01	0.716
641.20	0.715
641.39	0.717
641.58	0.719
641.78	0.718
641.97	0.714
642.16	0.727
642.35	0.729
642.54	0.728
642.73	0.722
642.92	0.721
643.11	0.724
643.30	0.724
643.49	0.719
643.68	0.721
643.87	0.723
644.06	0.723
644.25	0.703
644.45	0.705
644.64	0.706
644.83	0.708
645.02	0.704
645.21	0.704
645.40	0.706
645.59	0.706
645.78	0.700
645.97	0.702
646.16	0.703
646.35	0.702
646.54	0.700
646.73	0.701
646.92	0.703
647.11	0.702
647.30	0.697
647.49	0.699
647.68	0.699
647.88	0.698
648.07	0.691
648.26	0.694
648.45	0.697
648.64	0.694
648.83	0.691
649.02	0.693
649.21	0.703
649.40	0.702
649.59	0.697
649.78	0.698
649.97	0.712
650.16	0.713
650.35	0.707
650.54	0.709
650.73	0.717
650.92	0.715
651.11	0.708
651.30	0.705
651.49	0.710
651.68	0.710
651.87	0.707
652.06	0.697
652.25	0.699
652.44	0.702
652.63	0.700
652.82	0.701
653.01	0.701
653.20	0.699
653.39	0.688
653.58	0.686
653.77	0.686
653.96	0.681
654.15	0.673
654.34	0.671
654.53	0.666
654.72	0.660
654.91	0.650
655.10	0.646
655.29	0.644
655.48	0.642
655.67	0.636
655.86	0.633
656.05	0.632
656.24	0.632
656.43	0.627
656.62	0.626
656.81	0.625
657.00	0.623
657.19	0.620
657.38	0.619
657.57	0.618
657.76	0.621
657.95	0.618
658.14	0.621
658.33	0.623
658.51	0.628
658.70	0.628
658.89	0.630
659.08	0.639
659.27	0.646
659.46	0.647
659.65	0.654
659.84	0.658
660.03	0.662
660.22	0.663
660.41	0.668
660.60	0.666
660.79	0.667
660.98	0.673
661.17	0.672
661.36	0.671
661.55	0.672
661.74	0.669
661.92	0.672
662.11	0.674
662.30	0.672
662.49	0.666
662.68	0.665
662.87	0.668
663.06	0.662
663.25	0.664
663.44	0.664
663.63	0.665
663.82	0.664
664.01	0.658
664.20	0.657
664.38	0.658
664.57	0.659
664.76	0.658
664.95	0.660
665.14	0.664
665.33	0.660
665.52	0.667
665.71	0.671
665.90	0.671
666.09	0.673
666.28	0.671
666.46	0.670
666.65	0.670
666.84	0.668
667.03	0.662
667.22	0.661
667.41	0.664
667.60	0.653
667.79	0.646
667.98	0.648
668.16	0.649
668.35	0.648
668.54	0.643
668.73	0.645
668.92	0.647
669.11	0.646
669.30	0.640
669.49	0.636
669.67	0.638
669.86	0.640
670.05	0.636
670.24	0.634
670.43	0.632
670.62	0.631
670.81	0.626
671.00	0.627
671.18	0.626
671.37	0.626
671.56	0.625
671.75	0.623
671.94	0.620
672.13	0.618
672.32	0.614
672.50	0.613
672.69	0.614
672.88	0.615
673.07	0.610
673.26	0.613
673.45	0.613
673.63	0.613
673.82	0.610
674.01	0.611
674.20	0.611
674.39	0.610
674.58	0.610
674.76	0.609
674.95	0.608
675.14	0.608
675.33	0.603
675.52	0.601
675.71	0.601
675.89	0.600
676.08	0.597
676.27	0.597
676.46	0.598
676.65	0.597
676.84	0.597
677.02	0.598
677.21	0.600
677.40	0.599
677.59	0.598
677.78	0.599
677.96	0.601
678.15	0.601
678.34	0.598
678.53	0.599
678.72	0.599
678.90	0.595
679.09	0.592
679.28	0.589
679.47	0.589
679.66	0.588
679.84	0.585
680.03	0.582
680.22	0.580
680.41	0.582
680.60	0.578
680.78	0.578
680.97	0.580
681.16	0.581
681.35	0.579
681.53	0.578
681.72	0.579
681.91	0.581
682.10	0.579
682.29	0.582
682.47	0.580
682.66	0.580
682.85	0.579
683.04	0.577
683.22	0.576
683.41	0.578
683.60	0.577
683.79	0.578
683.97	0.577
684.16	0.576
684.35	0.571
684.54	0.573
684.72	0.572
684.91	0.573
685.10	0.571
685.29	0.573
685.47	0.570
685.66	0.569
685.85	0.566
686.04	0.565
686.22	0.569
686.41	0.572
686.60	0.569
686.79	0.572
686.97	0.573
687.16	0.575
687.35	0.572
687.54	0.576
687.72	0.579
687.91	0.579
688.10	0.581
688.29	0.579
688.47	0.577
688.66	0.577
688.85	0.573
689.03	0.570
689.22	0.575
689.41	0.575
689.60	0.571
689.78	0.568
689.97	0.569
690.16	0.565
690.34	0.562
690.53	0.562
690.72	0.562
690.91	0.560
691.09	0.558
691.28	0.552
691.47	0.550
691.65	0.548
691.84	0.545
692.03	0.544
692.21	0.543
692.40	0.543
692.59	0.540
692.77	0.539
692.96	0.540
693.15	0.541
693.34	0.538
693.52	0.538
693.71	0.539
693.90	0.540
694.08	0.540
694.27	0.541
694.46	0.551
694.64	0.552
694.83	0.551
695.02	0.551
695.20	0.550
695.39	0.550
695.58	0.551
695.76	0.551
695.95	0.550
696.14	0.549
696.32	0.547
696.51	0.538
696.70	0.538
696.88	0.538
697.07	0.537
697.26	0.539
697.44	0.540
697.63	0.539
697.81	0.537
698.00	0.537
698.19	0.536
698.37	0.536
698.56	0.535
698.75	0.535
698.93	0.535
699.12	0.535
699.31	0.534
699.49	0.534
699.68	0.535
699.87	0.537
700.05	0.537
700.24	0.536
700.42	0.538
700.61	0.537
700.80	0.535
700.98	0.536
701.17	0.537
701.36	0.535
701.54	0.535
701.73	0.536
701.91	0.533
702.10	0.532
702.29	0.531
702.47	0.529
702.66	0.531
702.84	0.532
703.03	0.529
703.22	0.531
703.40	0.532
703.59	0.533
703.77	0.532
703.96	0.533
704.15	0.533
704.33	0.534
704.52	0.532
704.70	0.532
704.89	0.531
705.08	0.530
705.26	0.525
705.45	0.525
705.63	0.524
705.82	0.521
706.00	0.520
706.19	0.520
706.38	0.520
706.56	0.519
706.75	0.517
706.93	0.516
707.12	0.518
707.30	0.519
707.49	0.517
707.68	0.515
707.86	0.515
708.05	0.514
708.23	0.511
708.42	0.511
708.60	0.514
708.79	0.514
708.98	0.512
709.16	0.511
709.35	0.514
709.53	0.517
709.72	0.517
709.90	0.518
710.09	0.520
710.27	0.522
710.46	0.526
710.64	0.524
710.83	0.526
711.02	0.528
711.20	0.526
711.39	0.524
711.57	0.522
711.76	0.522
711.94	0.520
712.13	0.521
712.31	0.520
712.50	0.516
712.68	0.512
712.87	0.514
713.05	0.514
713.24	0.515
713.42	0.514
713.61	0.515
713.79	0.515
713.98	0.516
714.16	0.517
714.35	0.517
714.54	0.517
714.72	0.518
714.91	0.515
715.09	0.521
715.28	0.523
715.46	0.523
715.65	0.521
715.83	0.521
716.02	0.523
716.20	0.519
716.39	0.518
716.57	0.520
716.76	0.522
716.94	0.523
717.12	0.515
717.31	0.517
717.49	0.519
717.68	0.521
717.86	0.521
718.05	0.523
718.23	0.525
718.42	0.528
718.60	0.529
718.79	0.537
718.97	0.539
719.16	0.539
719.34	0.537
719.53	0.537
719.71	0.536
719.90	0.538
720.08	0.535
720.27	0.535
720.45	0.535
720.63	0.532
720.82	0.527
721.00	0.529
721.19	0.532
721.37	0.532
721.56	0.532
721.74	0.535
721.93	0.544
722.11	0.550
722.30	0.550
722.48	0.555
722.66	0.557
722.85	0.556
723.03	0.556
723.22	0.555
723.40	0.558
723.59	0.558
723.77	0.562
723.95	0.556
724.14	0.557
724.32	0.559
724.51	0.558
724.69	0.558
724.88	0.559
725.06	0.558
725.24	0.558
725.43	0.559
725.61	0.561
725.80	0.555
725.98	0.553
726.16	0.550
726.35	0.555
726.53	0.554
726.72	0.553
726.90	0.562
727.09	0.563
727.27	0.569
727.45	0.566
727.64	0.576
727.82	0.585
728.01	0.590
728.19	0.587
728.37	0.592
728.56	0.596
728.74	0.603
728.92	0.592
729.11	0.594
729.29	0.592
729.48	0.594
729.66	0.583
729.84	0.581
730.03	0.584
730.21	0.586
730.40	0.576
730.58	0.578
730.76	0.577
730.95	0.580
731.13	0.580
731.31	0.594
731.50	0.603
731.68	0.607
731.86	0.603
732.05	0.616
732.23	0.618
732.42	0.623
732.60	0.626
732.78	0.631
732.97	0.648
733.15	0.653
733.33	0.641
733.52	0.648
733.70	0.657
733.88	0.664
734.07	0.652
734.25	0.677
734.43	0.684
734.62	0.688
734.80	0.684
734.98	0.676
735.17	0.683
735.35	0.688
735.53	0.677
735.72	0.681
735.90	0.702
736.08	0.719
736.27	0.697
736.45	0.705
736.63	0.716
736.82	0.727
737.00	0.727
737.18	0.737
737.37	0.769
737.55	0.792
737.73	0.786
737.92	0.789
738.10	0.784
738.28	0.806
738.46	0.795
738.65	0.808
738.83	0.826
739.01	0.878
739.20	0.863
739.38	0.846
739.56	0.834
739.75	0.840
739.93	0.806
740.11	0.833
740.29	0.828
740.48	0.836
740.66	0.814
740.84	0.804
741.03	0.770
741.21	0.783
741.39	0.764
741.57	0.777
741.76	0.791
741.94	0.799
742.12	0.762
742.31	0.770
742.49	0.789
742.67	0.810
742.85	0.829
743.04	0.833
743.22	0.840
743.40	0.895
743.58	0.875
743.77	0.892
743.95	0.921
744.13	0.974
744.31	0.958
744.50	0.951
744.68	0.952
744.86	0.927
745.04	0.935
745.23	1.000
745.41	0.977
745.59	0.984
745.77	0.953
745.96	0.943
746.14	0.948
746.32	0.942
746.50	0.935
746.69	0.916
746.87	0.923
747.05	0.910
747.23	0.839
747.42	0.826
747.60	0.848
747.78	0.850
747.96	0.877
748.14	0.836
748.33	0.863
748.51	0.855
748.69	0.851
748.87	0.877
749.06	0.873
749.24	0.870
749.42	0.858
749.60	0.845
749.78	0.851
749.97	0.810
750.15	0.803
750.33	0.808
750.51	0.829
750.69	0.834
750.88	0.835
751.06	0.844
751.24	0.870
751.42	0.862
751.60	0.852
751.79	0.916
751.97	0.961
752.15	0.961
752.33	0.929
752.51	0.991
752.69	1.000
752.88	0.972
753.06	1.015
753.24	0.988
753.42	1.021
753.60	1.174
753.78	1.048
753.97	1.064
754.15	1.079
754.33	1.109
754.51	0.992
754.69	0.980
754.87	1.007
755.06	0.945
755.24	0.951
755.42	0.956
755.60	0.864
755.78	0.874
755.96	0.821
756.15	0.825
756.33	0.829
756.51	0.849
756.69	0.838
756.87	0.803
757.05	0.822
757.23	0.807
757.42	0.779
757.60	0.777
757.78	0.765
757.96	0.763
758.14	0.743
758.32	0.732
758.50	0.742
758.69	0.740
758.87	0.736
759.05	0.737
759.23	0.745
759.41	0.745
759.59	0.739
759.77	0.758
759.95	0.784
760.13	0.831
760.32	0.826
760.50	0.821
760.68	0.844
760.86	0.847
761.04	0.822
761.22	0.824
761.40	0.868
761.58	0.869
761.76	0.846
761.95	0.831
762.13	0.792
762.31	0.794
762.49	0.764
762.67	0.780
762.85	0.790
763.03	0.785
763.21	0.767
763.39	0.749
763.57	0.752
763.75	0.746
763.94	0.730
764.12	0.731
764.30	0.751
764.48	0.757
764.66	0.725
764.84	0.723
765.02	0.761
765.20	0.768
765.38	0.750
765.56	0.755
765.74	0.794
765.92	0.795
766.10	0.797
766.28	0.792
766.46	0.816
766.65	0.814
766.83	0.803
767.01	0.785
767.19	0.791
767.37	0.792
767.55	0.778
767.73	0.758
767.91	0.763
768.09	0.754
768.27	0.744
768.45	0.737
768.63	0.741
768.81	0.744
768.99	0.721
769.17	0.742
769.35	0.756
769.53	0.755
769.71	0.737
769.89	0.744
770.07	0.749
770.25	0.733
770.43	0.709
770.61	0.733
770.79	0.740
770.97	0.749
771.15	0.722
771.33	0.723
771.51	0.728
771.69	0.736
771.87	0.744
772.05	0.748
772.24	0.758
772.42	0.770
772.60	0.748
772.78	0.803
772.96	0.830
773.14	0.826
773.32	0.807
773.49	0.813
773.67	0.813
773.85	0.791
774.03	0.781
774.21	0.810
774.39	0.818
774.57	0.839
774.75	0.771
774.93	0.765
775.11	0.786
775.29	0.789
775.47	0.789
775.65	0.800
775.83	0.819
776.01	0.842
776.19	0.800
776.37	0.802
776.55	0.803
776.73	0.799
776.91	0.792
777.09	0.776
777.27	0.777
777.45	0.768
777.63	0.747
777.81	0.741
777.99	0.725
778.17	0.723
778.35	0.701
778.53	0.690
778.71	0.696
778.89	0.686
779.07	0.675
779.24	0.678
779.42	0.678
779.60	0.695
779.78	0.693
779.96	0.699
780.14	0.708
780.32	0.731
780.50	0.715
780.68	0.714
780.86	0.706
781.04	0.723
781.22	0.728
781.40	0.738
781.58	0.727
781.75	0.720
781.93	0.703
782.11	0.701
782.29	0.687
782.47	0.685
782.65	0.673
782.83	0.699
783.01	0.692
783.19	0.686
783.37	0.673
783.55	0.677
783.72	0.695
783.90	0.706
784.08	0.701
784.26	0.713
784.44	0.730
784.62	0.732
784.80	0.701
784.98	0.708
785.16	0.713
785.33	0.725
785.51	0.710
785.69	0.697
785.87	0.694
786.05	0.704
786.23	0.700
786.41	0.700
786.59	0.707
786.77	0.707
786.94	0.697
787.12	0.700
787.30	0.704
787.48	0.702
787.66	0.691
787.84	0.693
788.02	0.683
788.19	0.681
788.37	0.667
788.55	0.668
788.73	0.669
788.91	0.663
789.09	0.647
789.27	0.635
789.44	0.646
789.62	0.651
789.80	0.659
789.98	0.681
790.16	0.669
790.34	0.666
790.51	0.655
790.69	0.674
790.87	0.680
791.05	0.678
791.23	0.673
791.41	0.674
791.58	0.680
791.76	0.661
791.94	0.633
792.12	0.640
792.30	0.643
792.48	0.640
792.65	0.632
792.83	0.638
793.01	0.645
793.19	0.644
793.37	0.629
793.54	0.627
793.72	0.637
793.90	0.637
794.08	0.625
794.26	0.626
794.43	0.635
794.61	0.619
794.79	0.607
794.97	0.605
795.15	0.609
795.32	0.613
795.50	0.601
795.68	0.597
795.86	0.599
796.04	0.602
796.21	0.596
796.39	0.595
796.57	0.608
796.75	0.616
796.92	0.616
797.10	0.621
797.28	0.623
797.46	0.628
797.64	0.628
797.81	0.636
797.99	0.638
798.17	0.642
798.35	0.636
798.52	0.640
798.70	0.637
798.88	0.646
799.06	0.645
799.23	0.649
799.41	0.655
799.59	0.649
799.77	0.640
799.94	0.650
800.12	0.659
800.30	0.676
800.48	0.674
800.65	0.674
800.83	0.664
801.01	0.657
801.19	0.655
801.36	0.653
801.54	0.656
801.72	0.663
801.90	0.647
802.07	0.644
802.25	0.631
802.43	0.617
802.60	0.613
802.78	0.619
802.96	0.624
803.14	0.619
803.31	0.617
803.49	0.617
803.67	0.616
803.84	0.623
804.02	0.612
804.20	0.614
804.38	0.619
804.55	0.618
804.73	0.605
804.91	0.606
805.08	0.616
805.26	0.612
805.44	0.674
805.61	0.675
805.79	0.674
805.97	0.676
806.15	0.669
806.32	0.663
806.50	0.670
806.68	0.672
806.85	0.663
807.03	0.656
807.21	0.675
807.38	0.612
807.56	0.602
807.74	0.612
807.91	0.616
808.09	0.618
808.27	0.637
808.44	0.662
808.62	0.670
808.80	0.672
808.97	0.666
809.15	0.657
809.33	0.673
809.50	0.680
809.68	0.665
809.86	0.675
810.03	0.705
810.21	0.686
810.39	0.669
810.56	0.673
810.74	0.695
810.91	0.764
811.09	0.753
811.27	0.772
811.44	0.777
811.62	0.781
811.80	0.764
811.97	0.736
812.15	0.735
812.33	0.732
812.50	0.718
812.68	0.707
812.85	0.652
813.03	0.655
813.21	0.624
813.38	0.619
813.56	0.621
813.74	0.629
813.91	0.635
814.09	0.663
814.26	0.656
814.44	0.661
814.62	0.653
814.79	0.655
814.97	0.661
815.14	0.665
815.32	0.668
815.50	0.682
815.67	0.686
815.85	0.677
816.02	0.665
816.20	0.672
816.38	0.684
816.55	0.689
816.73	0.689
816.90	0.697
817.08	0.726
817.26	0.730
817.43	0.712
817.61	0.734
817.78	0.753
817.96	0.733
818.13	0.722
818.31	0.722
818.49	0.736
818.66	0.728
818.84	0.713
819.01	0.692
819.19	0.699
819.36	0.703
819.54	0.676
819.71	0.716
819.89	0.732
820.07	0.743
820.24	0.736
820.42	0.732
820.59	0.750
820.77	0.774
820.94	0.766
821.12	0.785
821.29	0.800
821.47	0.801
821.64	0.741
821.82	0.755
822.00	0.751
822.17	0.752
822.35	0.744
822.52	0.745
822.70	0.734
822.87	0.744
823.05	0.722
823.22	0.730
823.40	0.750
823.57	0.772
823.75	0.753
823.92	0.778
824.10	0.794
824.27	0.834
824.45	0.820
824.62	0.881
824.80	0.895
824.97	0.907
825.15	0.898
825.32	0.919
825.50	0.915
825.67	0.924
825.85	0.902
826.02	0.919
826.20	0.940
826.37	1.067
826.55	0.984
826.72	1.165
826.90	1.227
827.07	1.276
827.25	1.218
827.42	1.376
827.60	1.517
827.77	1.655
827.95	1.617
828.12	1.715
828.30	1.374
828.47	1.496
828.65	1.152
828.82	1.197
829.00	1.249
829.17	1.314
829.34	1.314
829.52	1.335
829.69	-0.000
829.87	-0.000
830.04	-0.000
830.22	-0.000
830.39	-0.000
830.57	-0.000
830.74	-0.000
830.92	-0.000
831.09	-0.000
831.26	-0.000
831.44	-0.000
831.61	-0.000
831.79	-0.000
831.96	-0.000
832.14	-0.000
832.31	-0.000
832.49	-0.000
832.66	-0.000
832.83	-0.000
833.01	-0.000
833.18	-0.000
833.36	-0.000
833.53	-0.000
833.70	-0.000
833.88	-0.000
834.05	-0.000
834.23	-0.000
834.40	-0.000
834.58	-0.000
834.75	-0.000
834.92	-0.000
835.10	-0.000
835.27	-0.000
835.45	-0.000
835.62	-0.000
835.79	-0.000
835.97	-0.000
836.14	-0.000
836.32	-0.000
836.49	-0.000
836.66	-0.000
836.84	-0.000
837.01	-0.000
837.18	-0.000
837.36	-0.000
837.53	-0.000
837.71	-0.000
837.88	-0.000
838.05	-0.000
838.23	-0.000
838.40	-0.000
838.58	-0.000
838.75	-0.000
838.92	-0.000
839.10	-0.000
839.27	-0.000
839.44	-0.000
839.62	-0.000
839.79	-0.000
839.96	-0.000
840.14	-0.000
840.31	-0.000
840.48	-0.000
840.66	-0.000
840.83	-0.000
841.01	-0.000
841.18	-0.000
841.35	-0.000
841.53	-0.000
841.70	-0.000
841.87	-0.000
842.05	-0.000
842.22	-0.000
842.39	-0.000
842.57	-0.000
842.74	-0.000
842.91	-0.000
843.09	-0.000
843.26	-0.000
843.43	-0.000
843.60	-0.000
843.78	-0.000
843.95	-0.000
844.12	-0.000
844.30	-0.000
844.47	-0.000
844.64	-0.000
844.82	-0.000
844.99	-0.000
845.16	-0.000
845.34	-0.000
845.51	-0.000
845.68	-0.000
845.85	-0.000
846.03	-0.000
846.20	-0.000
846.37	-0.000
846.55	-0.000
846.72	-0.000
846.89	-0.000
847.06	-0.000
847.24	-0.000
847.41	-0.000
847.58	-0.000
847.76	-0.000
847.93	-0.000
848.10	-0.000
848.27	-0.000
848.45	-0.000
848.62	-0.000
848.79	-0.000
848.97	-0.000
849.14	-0.000
849.31	-0.000
849.48	-0.000
849.66	-0.000
849.83	-0.000
850.00	-0.000
850.17	-0.000
850.35	-0.000
850.52	-0.000
850.69	-0.000
850.86	-0.000
851.04	-0.000
851.21	-0.000
851.38	-0.000
851.55	-0.000
851.72	-0.000
851.90	-0.000
852.07	-0.000
852.24	-0.000
852.41	-0.000
852.59	-0.000
852.76	-0.000
852.93	-0.000
853.10	-0.000
853.28	-0.000
853.45	-0.000
853.62	-0.000
853.79	-0.000
853.96	-0.000
854.14	-0.000
854.31	-0.000
854.48	-0.000
854.65	-0.000
854.82	-0.000
855.00	-0.000
855.17	-0.000
855.34	-0.000
855.51	-0.000
855.68	-0.000
855.86	-0.000
856.03	-0.000
856.20	-0.000
856.37	-0.000
856.54	-0.000
856.72	-0.000
856.89	-0.000
857.06	-0.000
857.23	-0.000
857.40	-0.000
857.57	-0.000
857.75	-0.000
857.92	-0.000
858.09	-0.000
858.26	-0.000
858.43	-0.000
858.60	-0.000
858.78	-0.000
858.95	-0.000
859.12	-0.000
859.29	-0.000
859.46	-0.000
859.63	-0.000
859.81	-0.000
859.98	-0.000
860.15	-0.000
860.32	-0.000
860.49	-0.000
860.66	-0.000
860.83	-0.000
861.01	-0.000
861.18	-0.000
861.35	-0.000
861.52	-0.000
861.69	-0.000
861.86	-0.000
862.03	-0.000
862.21	-0.000
862.38	-0.000
862.55	-0.000
862.72	-0.000
862.89	-0.000
863.06	-0.000
863.23	-0.000
863.40	-0.000
863.58	-0.000
863.75	-0.000
863.92	-0.000
864.09	-0.000
864.26	-0.000
864.43	-0.000
864.60	-0.000
864.77	-0.000
864.94	-0.000
865.11	-0.000
865.29	-0.000
865.46	-0.000
865.63	-0.000
865.80	-0.000
865.97	-0.000
866.14	-0.000
866.31	-0.000
866.48	-0.000
866.65	-0.000
866.82	-0.000
866.99	-0.000
867.16	-0.000
867.34	-0.000
867.51	-0.000
867.68	-0.000
867.85	-0.000
868.02	-0.000
868.19	-0.000
868.36	-0.000
868.53	-0.000
868.70	-0.000
868.87	-0.000
869.04	-0.000
869.21	-0.000
869.38	-0.000
869.55	-0.000
869.72	-0.000
869.89	-0.000
870.06	-0.000
870.24	-0.000
870.41	-0.000
870.58	-0.000
870.75	-0.000
870.92	-0.000
871.09	-0.000
871.26	-0.000
871.43	-0.000
871.60	-0.000
871.77	-0.000
871.94	-0.000
872.11	-0.000
872.28	-0.000
872.45	-0.000
872.62	-0.000
872.79	-0.000
872.96	-0.000
873.13	-0.000
873.30	-0.000
873.47	-0.000
873.64	-0.000
873.81	-0.000
873.98	-0.000
874.15	-0.000
874.32	-0.000
874.49	-0.000
874.66	-0.000
874.83	-0.000
875.00	-0.000
875.17	-0.000
875.34	-0.000
875.51	-0.000
875.68	-0.000
875.85	-0.000
876.02	-0.000
876.19	-0.000
876.36	-0.000
876.53	-0.000
876.70	-0.000
876.87	-0.000
877.04	-0.000
877.21	-0.000
877.38	-0.000
877.55	-0.000
877.72	-0.000
877.89	-0.000
878.06	-0.000
878.23	-0.000
878.39	-0.000
878.56	-0.000
878.73	-0.000
878.90	-0.000
879.07	-0.000
879.24	-0.000
879.41	-0.000
879.58	-0.000
879.75	-0.000
879.92	-0.000
880.09	-0.000
880.26	-0.000
880.43	-0.000
880.60	-0.000
880.77	-0.000
880.94	-0.000
881.11	-0.000
881.27	-0.000
881.44	-0.000
881.61	-0.000
881.78	-0.000
881.95	-0.000
882.12	-0.000
882.29	-0.000
882.46	-0.000
882.63	-0.000
882.80	-0.000
882.97	-0.000
883.14	-0.000
883.30	-0.000
883.47	-0.000
883.64	-0.000
883.81	-0.000
883.98	-0.000
884.15	-0.000
884.32	-0.000
884.49	-0.000
884.66	-0.000
884.82	-0.000
884.99	-0.000
885.16	-0.000
885.33	-0.000
885.50	-0.000
885.67	-0.000
885.84	-0.000
886.01	-0.000
886.17	-0.000
886.34	-0.000
886.51	-0.000
886.68	-0.000
886.85	-0.000
887.02	-0.000
887.19	-0.000
887.36	-0.000
887.52	-0.000
887.69	-0.000
887.86	-0.000
888.03	-0.000
888.20	-0.000
888.37	-0.000
888.54	-0.000
888.70	-0.000
888.87	-0.000
889.04	-0.000
889.21	-0.000
889.38	-0.000
889.55	-0.000
889.71	-0.000
889.88	-0.000
890.05	-0.000
890.22	-0.000
890.39	-0.000
>>>>>End Processed Spectral Data<<<<<
