SpectraSuite Data File
++++++++++++++++++++++++++++++++++++
Date: Fri Jun 19 15:48:08 CEST 2015
User: introlabs
Dark Spectrum Present: Yes
Reference Spectrum Present: Yes
Number of Sampled Component Spectra: 1
Spectrometers: USB4H08886
Integration Time (usec): 745692 (USB4H08886)
Spectra Averaged: 5 (USB4H08886)
Boxcar Smoothing: 5 (USB4H08886)
Correct for Electrical Dark: Yes (USB4H08886)
Strobe/Lamp Enabled: No (USB4H08886)
Correct for Detector Non-linearity: Yes (USB4H08886)
Correct for Stray Light: Yes (USB4H08886)
Number of Pixels in Processed Spectrum: 3648
>>>>>Begin Processed Spectral Data<<<<<
178.14	-0.000
178.36	-0.000
178.57	-0.000
178.79	-0.000
179.01	-0.000
179.22	-0.000
179.44	-0.000
179.65	-0.000
179.87	-0.000
180.08	-0.000
180.30	-0.000
180.52	-0.000
180.73	-0.000
180.95	-0.000
181.16	-0.000
181.38	-0.000
181.59	-0.000
181.81	-0.000
182.03	-0.000
182.24	-0.000
182.46	-0.000
182.67	-0.000
182.89	-0.000
183.10	-0.000
183.32	-0.000
183.54	-0.000
183.75	-0.000
183.97	-0.000
184.18	-0.000
184.40	-0.000
184.61	-0.000
184.83	-0.000
185.04	-0.000
185.26	-0.000
185.48	-0.000
185.69	-0.000
185.91	-0.000
186.12	-0.000
186.34	-0.000
186.55	-0.000
186.77	-0.000
186.98	-0.000
187.20	-0.000
187.42	-0.000
187.63	-0.000
187.85	-0.000
188.06	-0.000
188.28	-0.000
188.49	-0.000
188.71	-0.000
188.92	-0.000
189.14	-0.000
189.36	-0.000
189.57	-0.000
189.79	-0.000
190.00	-0.000
190.22	-0.000
190.43	-0.000
190.65	-0.000
190.86	-0.000
191.08	-0.000
191.29	-0.000
191.51	-0.000
191.72	-0.000
191.94	-0.000
192.16	-0.000
192.37	-0.000
192.59	-0.000
192.80	-0.000
193.02	-0.000
193.23	-0.000
193.45	-0.000
193.66	-0.000
193.88	-0.000
194.09	-0.000
194.31	-0.000
194.52	-0.000
194.74	-0.000
194.95	-0.000
195.17	-0.000
195.38	-0.000
195.60	-0.000
195.81	-0.000
196.03	-0.000
196.25	-0.000
196.46	-0.000
196.68	-0.000
196.89	-0.000
197.11	-0.000
197.32	-0.000
197.54	-0.000
197.75	-0.000
197.97	-0.000
198.18	-0.000
198.40	-0.000
198.61	-0.000
198.83	-0.000
199.04	-0.000
199.26	-0.000
199.47	-0.000
199.69	-0.000
199.90	-0.000
200.12	-0.000
200.33	-0.000
200.55	-0.000
200.76	-0.000
200.98	-0.000
201.19	-0.000
201.41	-0.000
201.62	-0.000
201.84	-0.000
202.05	-0.000
202.27	-0.000
202.48	-0.000
202.70	-0.000
202.91	-0.000
203.13	-0.000
203.34	-0.000
203.56	-0.000
203.77	-0.000
203.99	-0.000
204.20	-0.000
204.42	-0.000
204.63	-0.000
204.85	-0.000
205.06	-0.000
205.28	-0.000
205.49	-0.000
205.71	-0.000
205.92	-0.000
206.14	-0.000
206.35	-0.000
206.56	-0.000
206.78	-0.000
206.99	-0.000
207.21	-0.000
207.42	-0.000
207.64	-0.000
207.85	-0.000
208.07	-0.000
208.28	-0.000
208.50	-0.000
208.71	-0.000
208.93	-0.000
209.14	-0.000
209.36	-0.000
209.57	-0.000
209.79	-0.000
210.00	-0.000
210.22	-0.000
210.43	-0.000
210.64	-0.000
210.86	-0.000
211.07	-0.000
211.29	-0.000
211.50	-0.000
211.72	-0.000
211.93	-0.000
212.15	-0.000
212.36	-0.000
212.58	-0.000
212.79	-0.000
213.01	-0.000
213.22	-0.000
213.43	-0.000
213.65	-0.000
213.86	-0.000
214.08	-0.000
214.29	-0.000
214.51	-0.000
214.72	-0.000
214.94	-0.000
215.15	-0.000
215.36	-0.000
215.58	-0.000
215.79	-0.000
216.01	-0.000
216.22	-0.000
216.44	-0.000
216.65	-0.000
216.87	-0.000
217.08	-0.000
217.29	-0.000
217.51	-0.000
217.72	-0.000
217.94	-0.000
218.15	-0.000
218.37	-0.000
218.58	-0.000
218.80	-0.000
219.01	-0.000
219.22	-0.000
219.44	-0.000
219.65	-0.000
219.87	-0.000
220.08	-0.000
220.30	-0.000
220.51	-0.000
220.72	-0.000
220.94	-0.000
221.15	-0.000
221.37	-0.000
221.58	-0.000
221.79	-0.000
222.01	-0.000
222.22	-0.000
222.44	-0.000
222.65	-0.000
222.87	-0.000
223.08	-0.000
223.29	-0.000
223.51	-0.000
223.72	-0.000
223.94	-0.000
224.15	-0.000
224.36	-0.000
224.58	-0.000
224.79	-0.000
225.01	-0.000
225.22	-0.000
225.44	-0.000
225.65	-0.000
225.86	-0.000
226.08	-0.000
226.29	-0.000
226.51	-0.000
226.72	-0.000
226.93	-0.000
227.15	-0.000
227.36	-0.000
227.58	-0.000
227.79	-0.000
228.00	-0.000
228.22	-0.000
228.43	-0.000
228.65	-0.000
228.86	-0.000
229.07	-0.000
229.29	-0.000
229.50	-0.000
229.72	-0.000
229.93	-0.000
230.14	-0.000
230.36	-0.000
230.57	-0.000
230.78	-0.000
231.00	-0.000
231.21	-0.000
231.43	-0.000
231.64	-0.000
231.85	-0.000
232.07	-0.000
232.28	-0.000
232.50	-0.000
232.71	-0.000
232.92	-0.000
233.14	-0.000
233.35	-0.000
233.56	-0.000
233.78	-0.000
233.99	-0.000
234.21	-0.000
234.42	-0.000
234.63	-0.000
234.85	-0.000
235.06	-0.000
235.27	-0.000
235.49	-0.000
235.70	-0.000
235.91	-0.000
236.13	-0.000
236.34	-0.000
236.56	-0.000
236.77	-0.000
236.98	-0.000
237.20	-0.000
237.41	-0.000
237.62	-0.000
237.84	-0.000
238.05	-0.000
238.26	-0.000
238.48	-0.000
238.69	-0.000
238.91	-0.000
239.12	-0.000
239.33	-0.000
239.55	-0.000
239.76	-0.000
239.97	-0.000
240.19	-0.000
240.40	-0.000
240.61	-0.000
240.83	-0.000
241.04	-0.000
241.25	-0.000
241.47	-0.000
241.68	-0.000
241.89	-0.000
242.11	-0.000
242.32	-0.000
242.53	-0.000
242.75	-0.000
242.96	-0.000
243.17	-0.000
243.39	-0.000
243.60	-0.000
243.81	-0.000
244.03	-0.000
244.24	-0.000
244.45	-0.000
244.67	-0.000
244.88	-0.000
245.09	-0.000
245.31	-0.000
245.52	-0.000
245.73	-0.000
245.95	-0.000
246.16	-0.000
246.37	-0.000
246.59	-0.000
246.80	-0.000
247.01	-0.000
247.23	-0.000
247.44	-0.000
247.65	-0.000
247.87	-0.000
248.08	-0.000
248.29	-0.000
248.51	-0.000
248.72	-0.000
248.93	-0.000
249.15	-0.000
249.36	-0.000
249.57	-0.000
249.78	-0.000
250.00	-0.000
250.21	-0.000
250.42	-0.000
250.64	-0.000
250.85	-0.000
251.06	-0.000
251.28	-0.000
251.49	-0.000
251.70	-0.000
251.92	-0.000
252.13	-0.000
252.34	-0.000
252.55	-0.000
252.77	-0.000
252.98	-0.000
253.19	-0.000
253.41	-0.000
253.62	-0.000
253.83	-0.000
254.05	-0.000
254.26	-0.000
254.47	-0.000
254.68	-0.000
254.90	-0.000
255.11	-0.000
255.32	-0.000
255.54	-0.000
255.75	-0.000
255.96	-0.000
256.17	-0.000
256.39	-0.000
256.60	-0.000
256.81	-0.000
257.03	-0.000
257.24	-0.000
257.45	-0.000
257.66	-0.000
257.88	-0.000
258.09	-0.000
258.30	-0.000
258.51	-0.000
258.73	-0.000
258.94	-0.000
259.15	-0.000
259.37	-0.000
259.58	-0.000
259.79	-0.000
260.00	-0.000
260.22	-0.000
260.43	-0.000
260.64	-0.000
260.85	-0.000
261.07	-0.000
261.28	-0.000
261.49	-0.000
261.71	-0.000
261.92	-0.000
262.13	-0.000
262.34	-0.000
262.56	-0.000
262.77	-0.000
262.98	-0.000
263.19	-0.000
263.41	-0.000
263.62	-0.000
263.83	-0.000
264.04	-0.000
264.26	-0.000
264.47	-0.000
264.68	-0.000
264.89	-0.000
265.11	-0.000
265.32	-0.000
265.53	-0.000
265.74	-0.000
265.96	-0.000
266.17	-0.000
266.38	-0.000
266.59	-0.000
266.81	-0.000
267.02	-0.000
267.23	-0.000
267.44	-0.000
267.65	-0.000
267.87	-0.000
268.08	-0.000
268.29	-0.000
268.50	-0.000
268.72	-0.000
268.93	-0.000
269.14	-0.000
269.35	-0.000
269.57	-0.000
269.78	-0.000
269.99	-0.000
270.20	-0.000
270.41	-0.000
270.63	-0.000
270.84	-0.000
271.05	-0.000
271.26	-0.000
271.48	-0.000
271.69	-0.000
271.90	-0.000
272.11	-0.000
272.32	-0.000
272.54	-0.000
272.75	-0.000
272.96	-0.000
273.17	-0.000
273.39	-0.000
273.60	-0.000
273.81	-0.000
274.02	-0.000
274.23	-0.000
274.45	-0.000
274.66	-0.000
274.87	-0.000
275.08	-0.000
275.29	-0.000
275.51	-0.000
275.72	-0.000
275.93	-0.000
276.14	-0.000
276.35	-0.000
276.57	-0.000
276.78	-0.000
276.99	-0.000
277.20	-0.000
277.41	-0.000
277.63	-0.000
277.84	-0.000
278.05	-0.000
278.26	-0.000
278.47	-0.000
278.69	-0.000
278.90	-0.000
279.11	-0.000
279.32	-0.000
279.53	-0.000
279.74	-0.000
279.96	-0.000
280.17	-0.000
280.38	-0.000
280.59	-0.000
280.80	-0.000
281.02	-0.000
281.23	-0.000
281.44	-0.000
281.65	-0.000
281.86	-0.000
282.07	-0.000
282.29	-0.000
282.50	-0.000
282.71	-0.000
282.92	-0.000
283.13	-0.000
283.35	-0.000
283.56	-0.000
283.77	-0.000
283.98	-0.000
284.19	-0.000
284.40	-0.000
284.62	-0.000
284.83	-0.000
285.04	-0.000
285.25	-0.000
285.46	-0.000
285.67	-0.000
285.88	-0.000
286.10	-0.000
286.31	-0.000
286.52	-0.000
286.73	-0.000
286.94	-0.000
287.15	-0.000
287.37	-0.000
287.58	-0.000
287.79	-0.000
288.00	-0.000
288.21	-0.000
288.42	-0.000
288.63	-0.000
288.85	-0.000
289.06	-0.000
289.27	-0.000
289.48	-0.000
289.69	-0.000
289.90	-0.000
290.11	-0.000
290.33	-0.000
290.54	-0.000
290.75	-0.000
290.96	-0.000
291.17	-0.000
291.38	-0.000
291.59	-0.000
291.81	-0.000
292.02	-0.000
292.23	-0.000
292.44	-0.000
292.65	2.879
292.86	-0.000
293.07	-0.000
293.28	2.228
293.50	2.495
293.71	-0.000
293.92	2.755
294.13	-0.000
294.34	-0.000
294.55	-0.000
294.76	-0.000
294.97	2.585
295.19	-0.000
295.40	-0.000
295.61	-0.000
295.82	2.578
296.03	2.177
296.24	2.241
296.45	1.804
296.66	1.611
296.87	1.629
297.09	1.665
297.30	1.799
297.51	1.584
297.72	1.565
297.93	1.622
298.14	1.590
298.35	1.565
298.56	1.549
298.77	1.617
298.99	1.604
299.20	1.593
299.41	1.571
299.62	1.527
299.83	1.516
300.04	1.477
300.25	1.473
300.46	1.497
300.67	1.475
300.88	1.438
301.10	1.451
301.31	1.505
301.52	1.459
301.73	1.426
301.94	1.427
302.15	1.435
302.36	1.400
302.57	1.354
302.78	1.360
302.99	1.392
303.20	1.405
303.41	1.335
303.63	1.316
303.84	1.318
304.05	1.313
304.26	1.270
304.47	1.275
304.68	1.270
304.89	1.264
305.10	1.234
305.31	1.223
305.52	1.264
305.73	1.256
305.94	1.224
306.15	1.218
306.37	1.235
306.58	1.244
306.79	1.220
307.00	1.243
307.21	1.273
307.42	1.266
307.63	1.238
307.84	1.206
308.05	1.236
308.26	1.238
308.47	1.221
308.68	1.215
308.89	1.209
309.10	1.205
309.31	1.172
309.52	1.166
309.73	1.175
309.95	1.169
310.16	1.146
310.37	1.134
310.58	1.146
310.79	1.146
311.00	1.146
311.21	1.149
311.42	1.150
311.63	1.145
311.84	1.129
312.05	1.129
312.26	1.147
312.47	1.158
312.68	1.140
312.89	1.125
313.10	1.126
313.31	1.102
313.52	1.105
313.73	1.104
313.94	1.105
314.15	1.090
314.36	1.073
314.57	1.068
314.78	1.057
314.99	1.052
315.21	1.044
315.42	1.051
315.63	1.060
315.84	1.041
316.05	1.031
316.26	1.039
316.47	1.052
316.68	1.048
316.89	1.032
317.10	1.049
317.31	1.053
317.52	1.053
317.73	1.035
317.94	1.035
318.15	1.071
318.36	1.069
318.57	1.055
318.78	1.046
318.99	1.072
319.20	1.070
319.41	1.040
319.62	1.041
319.83	1.052
320.04	1.049
320.25	1.038
320.46	1.008
320.67	1.010
320.88	1.008
321.09	0.998
321.30	0.987
321.51	1.000
321.72	1.000
321.93	0.987
322.14	0.979
322.35	1.003
322.56	1.005
322.77	0.995
322.98	1.004
323.19	1.009
323.40	1.015
323.61	0.998
323.82	0.992
324.03	0.996
324.24	0.994
324.45	0.983
324.66	0.965
324.87	0.961
325.08	0.962
325.29	0.947
325.50	0.939
325.71	0.941
325.92	0.949
326.13	0.937
326.34	0.937
326.55	0.942
326.76	0.943
326.97	0.936
327.18	0.930
327.39	0.951
327.60	0.952
327.80	0.954
328.01	0.954
328.22	0.952
328.43	0.956
328.64	0.945
328.85	0.950
329.06	0.950
329.27	0.950
329.48	0.947
329.69	0.930
329.90	0.938
330.11	0.932
330.32	0.926
330.53	0.919
330.74	0.918
330.95	0.918
331.16	0.906
331.37	0.914
331.58	0.913
331.79	0.912
332.00	0.907
332.21	0.900
332.42	0.904
332.63	0.894
332.83	0.892
333.04	0.895
333.25	0.906
333.46	0.904
333.67	0.891
333.88	0.893
334.09	0.902
334.30	0.898
334.51	0.891
334.72	0.886
334.93	0.889
335.14	0.888
335.35	0.881
335.56	0.877
335.77	0.883
335.98	0.882
336.18	0.876
336.39	0.867
336.60	0.870
336.81	0.869
337.02	0.869
337.23	0.873
337.44	0.874
337.65	0.875
337.86	0.866
338.07	0.861
338.28	0.866
338.49	0.864
338.70	0.858
338.91	0.865
339.11	0.870
339.32	0.866
339.53	0.856
339.74	0.855
339.95	0.850
340.16	0.848
340.37	0.841
340.58	0.838
340.79	0.840
341.00	0.841
341.21	0.832
341.41	0.832
341.62	0.833
341.83	0.834
342.04	0.829
342.25	0.839
342.46	0.843
342.67	0.843
342.88	0.838
343.09	0.838
343.30	0.843
343.50	0.846
343.71	0.839
343.92	0.838
344.13	0.841
344.34	0.841
344.55	0.826
344.76	0.825
344.97	0.828
345.18	0.827
345.38	0.825
345.59	0.820
345.80	0.818
346.01	0.815
346.22	0.813
346.43	0.808
346.64	0.814
346.85	0.814
347.06	0.808
347.26	0.808
347.47	0.811
347.68	0.807
347.89	0.804
348.10	0.799
348.31	0.804
348.52	0.803
348.73	0.801
348.93	0.799
349.14	0.800
349.35	0.800
349.56	0.794
349.77	0.790
349.98	0.795
350.19	0.793
350.39	0.790
350.60	0.786
350.81	0.800
351.02	0.798
351.23	0.795
351.44	0.796
351.65	0.798
351.86	0.796
352.06	0.796
352.27	0.796
352.48	0.796
352.69	0.796
352.90	0.791
353.11	0.779
353.31	0.786
353.52	0.783
353.73	0.777
353.94	0.778
354.15	0.784
354.36	0.783
354.57	0.775
354.77	0.778
354.98	0.778
355.19	0.777
355.40	0.777
355.61	0.782
355.82	0.786
356.02	0.785
356.23	0.779
356.44	0.780
356.65	0.782
356.86	0.783
357.07	0.777
357.27	0.779
357.48	0.781
357.69	0.778
357.90	0.763
358.11	0.760
358.32	0.762
358.52	0.765
358.73	0.756
358.94	0.757
359.15	0.759
359.36	0.760
359.56	0.756
359.77	0.753
359.98	0.759
360.19	0.760
360.40	0.758
360.61	0.759
360.81	0.756
361.02	0.757
361.23	0.751
361.44	0.751
361.65	0.751
361.85	0.751
362.06	0.749
362.27	0.751
362.48	0.750
362.69	0.751
362.89	0.746
363.10	0.748
363.31	0.752
363.52	0.755
363.73	0.749
363.93	0.750
364.14	0.752
364.35	0.753
364.56	0.743
364.77	0.745
364.97	0.747
365.18	0.747
365.39	0.742
365.60	0.739
365.81	0.740
366.01	0.740
366.22	0.738
366.43	0.737
366.64	0.738
366.84	0.744
367.05	0.741
367.26	0.740
367.47	0.741
367.68	0.742
367.88	0.741
368.09	0.738
368.30	0.739
368.51	0.739
368.71	0.739
368.92	0.743
369.13	0.740
369.34	0.740
369.55	0.740
369.75	0.740
369.96	0.745
370.17	0.744
370.38	0.742
370.58	0.742
370.79	0.747
371.00	0.745
371.21	0.737
371.41	0.742
371.62	0.745
371.83	0.742
372.04	0.740
372.24	0.733
372.45	0.734
372.66	0.734
372.87	0.732
373.07	0.729
373.28	0.729
373.49	0.732
373.70	0.723
373.90	0.722
374.11	0.730
374.32	0.729
374.53	0.729
374.73	0.729
374.94	0.731
375.15	0.731
375.36	0.729
375.56	0.738
375.77	0.739
375.98	0.740
376.19	0.737
376.39	0.731
376.60	0.734
376.81	0.735
377.02	0.734
377.22	0.733
377.43	0.733
377.64	0.733
377.84	0.725
378.05	0.729
378.26	0.735
378.47	0.734
378.67	0.731
378.88	0.730
379.09	0.730
379.30	0.730
379.50	0.728
379.71	0.730
379.92	0.732
380.12	0.732
380.33	0.724
380.54	0.719
380.75	0.726
380.95	0.726
381.16	0.724
381.37	0.724
381.57	0.725
381.78	0.726
381.99	0.726
382.20	0.725
382.40	0.727
382.61	0.728
382.82	0.726
383.02	0.720
383.23	0.723
383.44	0.723
383.64	0.722
383.85	0.725
384.06	0.727
384.27	0.726
384.47	0.725
384.68	0.726
384.89	0.731
385.09	0.731
385.30	0.732
385.51	0.731
385.71	0.733
385.92	0.733
386.13	0.732
386.33	0.735
386.54	0.736
386.75	0.735
386.95	0.731
387.16	0.728
387.37	0.729
387.58	0.728
387.78	0.727
387.99	0.725
388.20	0.726
388.40	0.723
388.61	0.718
388.82	0.721
389.02	0.723
389.23	0.723
389.44	0.721
389.64	0.722
389.85	0.733
390.06	0.733
390.26	0.734
390.47	0.734
390.68	0.736
390.88	0.735
391.09	0.731
391.30	0.730
391.50	0.730
391.71	0.731
391.92	0.728
392.12	0.720
392.33	0.721
392.53	0.721
392.74	0.721
392.95	0.721
393.15	0.723
393.36	0.724
393.57	0.723
393.77	0.726
393.98	0.727
394.19	0.727
394.39	0.726
394.60	0.728
394.81	0.730
395.01	0.728
395.22	0.727
395.43	0.728
395.63	0.732
395.84	0.733
396.04	0.729
396.25	0.731
396.46	0.733
396.66	0.732
396.87	0.730
397.08	0.727
397.28	0.729
397.49	0.729
397.69	0.727
397.90	0.722
398.11	0.723
398.31	0.724
398.52	0.721
398.73	0.723
398.93	0.722
399.14	0.721
399.34	0.721
399.55	0.722
399.76	0.722
399.96	0.723
400.17	0.722
400.37	0.721
400.58	0.726
400.79	0.728
400.99	0.725
401.20	0.731
401.41	0.733
401.61	0.733
401.82	0.738
402.02	0.738
402.23	0.740
402.44	0.740
402.64	0.741
402.85	0.736
403.05	0.734
403.26	0.734
403.47	0.728
403.67	0.728
403.88	0.728
404.08	0.722
404.29	0.720
404.50	0.719
404.70	0.719
404.91	0.717
405.11	0.715
405.32	0.716
405.52	0.715
405.73	0.715
405.94	0.713
406.14	0.716
406.35	0.718
406.55	0.718
406.76	0.716
406.97	0.717
407.17	0.720
407.38	0.720
407.58	0.719
407.79	0.721
407.99	0.724
408.20	0.724
408.41	0.720
408.61	0.719
408.82	0.719
409.02	0.719
409.23	0.717
409.43	0.715
409.64	0.716
409.84	0.716
410.05	0.713
410.26	0.711
410.46	0.711
410.67	0.711
410.87	0.713
411.08	0.716
411.28	0.717
411.49	0.718
411.69	0.717
411.90	0.718
412.11	0.719
412.31	0.720
412.52	0.720
412.72	0.720
412.93	0.720
413.13	0.719
413.34	0.715
413.54	0.717
413.75	0.718
413.95	0.718
414.16	0.715
414.37	0.717
414.57	0.717
414.78	0.719
414.98	0.717
415.19	0.718
415.39	0.716
415.60	0.718
415.80	0.717
416.01	0.715
416.21	0.717
416.42	0.717
416.62	0.712
416.83	0.713
417.03	0.712
417.24	0.712
417.44	0.710
417.65	0.709
417.86	0.710
418.06	0.708
418.27	0.706
418.47	0.708
418.68	0.708
418.88	0.709
419.09	0.708
419.29	0.709
419.50	0.709
419.70	0.709
419.91	0.707
420.11	0.705
420.32	0.707
420.52	0.707
420.73	0.705
420.93	0.706
421.14	0.707
421.34	0.706
421.55	0.703
421.75	0.703
421.96	0.704
422.16	0.704
422.37	0.703
422.57	0.701
422.78	0.702
422.98	0.699
423.19	0.697
423.39	0.695
423.60	0.698
423.80	0.699
424.01	0.697
424.21	0.700
424.42	0.700
424.62	0.700
424.83	0.699
425.03	0.699
425.23	0.701
425.44	0.700
425.64	0.701
425.85	0.701
426.05	0.702
426.26	0.702
426.46	0.698
426.67	0.697
426.87	0.703
427.08	0.703
427.28	0.702
427.49	0.703
427.69	0.704
427.90	0.703
428.10	0.700
428.31	0.700
428.51	0.702
428.71	0.701
428.92	0.702
429.12	0.699
429.33	0.699
429.53	0.703
429.74	0.708
429.94	0.708
430.15	0.707
430.35	0.707
430.56	0.704
430.76	0.703
430.96	0.703
431.17	0.700
431.37	0.698
431.58	0.696
431.78	0.692
431.99	0.685
432.19	0.687
432.40	0.688
432.60	0.689
432.80	0.690
433.01	0.688
433.21	0.689
433.42	0.691
433.62	0.691
433.83	0.691
434.03	0.693
434.23	0.696
434.44	0.694
434.64	0.693
434.85	0.698
435.05	0.699
435.26	0.700
435.46	0.698
435.66	0.698
435.87	0.698
436.07	0.698
436.28	0.694
436.48	0.691
436.69	0.691
436.89	0.691
437.09	0.685
437.30	0.684
437.50	0.683
437.71	0.695
437.91	0.694
438.11	0.695
438.32	0.699
438.52	0.700
438.73	0.699
438.93	0.697
439.13	0.697
439.34	0.700
439.54	0.698
439.75	0.698
439.95	0.688
440.15	0.692
440.36	0.691
440.56	0.688
440.77	0.688
440.97	0.689
441.17	0.687
441.38	0.688
441.58	0.685
441.79	0.684
441.99	0.683
442.19	0.681
442.40	0.678
442.60	0.679
442.81	0.676
443.01	0.677
443.21	0.678
443.42	0.677
443.62	0.676
443.82	0.676
444.03	0.677
444.23	0.677
444.44	0.677
444.64	0.676
444.84	0.677
445.05	0.677
445.25	0.674
445.45	0.674
445.66	0.676
445.86	0.676
446.06	0.677
446.27	0.676
446.47	0.679
446.68	0.677
446.88	0.676
447.08	0.675
447.29	0.677
447.49	0.677
447.69	0.677
447.90	0.675
448.10	0.678
448.30	0.675
448.51	0.677
448.71	0.675
448.91	0.676
449.12	0.676
449.32	0.678
449.52	0.676
449.73	0.679
449.93	0.678
450.14	0.679
450.34	0.678
450.54	0.680
450.75	0.677
450.95	0.677
451.15	0.676
451.36	0.679
451.56	0.675
451.76	0.674
451.97	0.671
452.17	0.672
452.37	0.670
452.58	0.667
452.78	0.667
452.98	0.669
453.19	0.668
453.39	0.669
453.59	0.667
453.79	0.668
454.00	0.669
454.20	0.668
454.40	0.668
454.61	0.669
454.81	0.670
455.01	0.668
455.22	0.670
455.42	0.671
455.62	0.669
455.83	0.670
456.03	0.673
456.23	0.674
456.44	0.674
456.64	0.674
456.84	0.675
457.04	0.675
457.25	0.675
457.45	0.671
457.65	0.670
457.86	0.670
458.06	0.669
458.26	0.664
458.47	0.664
458.67	0.664
458.87	0.664
459.07	0.661
459.28	0.663
459.48	0.665
459.68	0.664
459.89	0.663
460.09	0.662
460.29	0.663
460.49	0.664
460.70	0.663
460.90	0.663
461.10	0.663
461.31	0.663
461.51	0.660
461.71	0.662
461.91	0.664
462.12	0.664
462.32	0.663
462.52	0.663
462.72	0.666
462.93	0.666
463.13	0.666
463.33	0.666
463.53	0.667
463.74	0.666
463.94	0.662
464.14	0.663
464.35	0.664
464.55	0.665
464.75	0.663
464.95	0.660
465.16	0.662
465.36	0.661
465.56	0.660
465.76	0.659
465.97	0.660
466.17	0.661
466.37	0.659
466.57	0.659
466.78	0.659
466.98	0.659
467.18	0.657
467.38	0.656
467.59	0.657
467.79	0.659
467.99	0.658
468.19	0.659
468.39	0.661
468.60	0.661
468.80	0.660
469.00	0.661
469.20	0.662
469.41	0.663
469.61	0.663
469.81	0.663
470.01	0.663
470.22	0.663
470.42	0.661
470.62	0.660
470.82	0.660
471.02	0.660
471.23	0.658
471.43	0.658
471.63	0.661
471.83	0.660
472.04	0.659
472.24	0.657
472.44	0.663
472.64	0.663
472.84	0.662
473.05	0.662
473.25	0.664
473.45	0.664
473.65	0.663
473.85	0.663
474.06	0.664
474.26	0.663
474.46	0.664
474.66	0.660
474.86	0.661
475.07	0.660
475.27	0.659
475.47	0.656
475.67	0.656
475.87	0.659
476.08	0.655
476.28	0.657
476.48	0.658
476.68	0.656
476.88	0.654
477.09	0.656
477.29	0.657
477.49	0.657
477.69	0.656
477.89	0.657
478.09	0.655
478.30	0.658
478.50	0.655
478.70	0.654
478.90	0.655
479.10	0.658
479.31	0.659
479.51	0.657
479.71	0.658
479.91	0.658
480.11	0.657
480.31	0.657
480.52	0.656
480.72	0.655
480.92	0.654
481.12	0.653
481.32	0.650
481.52	0.648
481.72	0.648
481.93	0.651
482.13	0.651
482.33	0.651
482.53	0.649
482.73	0.650
482.93	0.652
483.14	0.652
483.34	0.651
483.54	0.652
483.74	0.652
483.94	0.651
484.14	0.647
484.34	0.647
484.55	0.648
484.75	0.647
484.95	0.645
485.15	0.645
485.35	0.644
485.55	0.644
485.75	0.642
485.96	0.642
486.16	0.643
486.36	0.642
486.56	0.641
486.76	0.641
486.96	0.641
487.16	0.640
487.36	0.638
487.57	0.638
487.77	0.638
487.97	0.639
488.17	0.637
488.37	0.636
488.57	0.637
488.77	0.637
488.97	0.636
489.18	0.635
489.38	0.638
489.58	0.638
489.78	0.638
489.98	0.637
490.18	0.637
490.38	0.638
490.58	0.637
490.78	0.638
490.98	0.639
491.19	0.640
491.39	0.639
491.59	0.638
491.79	0.640
491.99	0.641
492.19	0.640
492.39	0.643
492.59	0.643
492.79	0.645
492.99	0.645
493.20	0.645
493.40	0.646
493.60	0.647
493.80	0.646
494.00	0.644
494.20	0.644
494.40	0.644
494.60	0.641
494.80	0.645
495.00	0.643
495.20	0.642
495.40	0.641
495.61	0.642
495.81	0.642
496.01	0.645
496.21	0.646
496.41	0.646
496.61	0.646
496.81	0.645
497.01	0.640
497.21	0.640
497.41	0.640
497.61	0.640
497.81	0.637
498.01	0.638
498.21	0.635
498.41	0.633
498.61	0.633
498.82	0.635
499.02	0.637
499.22	0.637
499.42	0.637
499.62	0.638
499.82	0.639
500.02	0.641
500.22	0.639
500.42	0.641
500.62	0.641
500.82	0.641
501.02	0.639
501.22	0.639
501.42	0.639
501.62	0.641
501.82	0.641
502.02	0.641
502.22	0.640
502.42	0.642
502.62	0.639
502.82	0.640
503.02	0.641
503.22	0.640
503.42	0.638
503.63	0.638
503.83	0.636
504.03	0.635
504.23	0.634
504.43	0.635
504.63	0.636
504.83	0.635
505.03	0.635
505.23	0.636
505.43	0.638
505.63	0.638
505.83	0.638
506.03	0.640
506.23	0.641
506.43	0.641
506.63	0.640
506.83	0.639
507.03	0.641
507.23	0.641
507.43	0.638
507.63	0.638
507.83	0.638
508.03	0.639
508.23	0.638
508.43	0.637
508.63	0.639
508.83	0.639
509.03	0.640
509.23	0.639
509.43	0.640
509.63	0.641
509.83	0.640
510.03	0.642
510.23	0.643
510.43	0.644
510.63	0.644
510.83	0.643
511.03	0.644
511.23	0.642
511.43	0.642
511.63	0.643
511.83	0.645
512.03	0.645
512.22	0.643
512.42	0.643
512.62	0.643
512.82	0.643
513.02	0.643
513.22	0.643
513.42	0.644
513.62	0.647
513.82	0.645
514.02	0.645
514.22	0.646
514.42	0.645
514.62	0.646
514.82	0.647
515.02	0.649
515.22	0.652
515.42	0.651
515.62	0.653
515.82	0.652
516.02	0.653
516.22	0.653
516.42	0.655
516.62	0.656
516.82	0.657
517.01	0.655
517.21	0.655
517.41	0.657
517.61	0.658
517.81	0.654
518.01	0.653
518.21	0.653
518.41	0.652
518.61	0.651
518.81	0.651
519.01	0.651
519.21	0.652
519.41	0.651
519.61	0.646
519.81	0.648
520.00	0.648
520.20	0.649
520.40	0.652
520.60	0.653
520.80	0.652
521.00	0.652
521.20	0.653
521.40	0.657
521.60	0.658
521.80	0.657
522.00	0.657
522.20	0.659
522.39	0.658
522.59	0.655
522.79	0.656
522.99	0.658
523.19	0.657
523.39	0.655
523.59	0.654
523.79	0.656
523.99	0.659
524.19	0.658
524.38	0.657
524.58	0.659
524.78	0.659
524.98	0.658
525.18	0.659
525.38	0.660
525.58	0.661
525.78	0.659
525.98	0.657
526.18	0.657
526.37	0.656
526.57	0.658
526.77	0.658
526.97	0.659
527.17	0.659
527.37	0.656
527.57	0.658
527.77	0.659
527.96	0.659
528.16	0.658
528.36	0.659
528.56	0.661
528.76	0.659
528.96	0.658
529.16	0.659
529.36	0.662
529.55	0.663
529.75	0.660
529.95	0.660
530.15	0.661
530.35	0.663
530.55	0.661
530.75	0.661
530.94	0.662
531.14	0.662
531.34	0.661
531.54	0.659
531.74	0.661
531.94	0.665
532.13	0.663
532.33	0.664
532.53	0.663
532.73	0.663
532.93	0.662
533.13	0.663
533.33	0.664
533.52	0.664
533.72	0.667
533.92	0.666
534.12	0.663
534.32	0.664
534.52	0.663
534.71	0.664
534.91	0.666
535.11	0.668
535.31	0.666
535.51	0.668
535.71	0.669
535.90	0.666
536.10	0.667
536.30	0.669
536.50	0.670
536.70	0.670
536.89	0.668
537.09	0.667
537.29	0.668
537.49	0.669
537.69	0.666
537.89	0.668
538.08	0.667
538.28	0.665
538.48	0.666
538.68	0.667
538.88	0.668
539.07	0.669
539.27	0.668
539.47	0.666
539.67	0.666
539.87	0.668
540.06	0.666
540.26	0.666
540.46	0.668
540.66	0.665
540.86	0.663
541.05	0.663
541.25	0.663
541.45	0.663
541.65	0.663
541.84	0.664
542.04	0.665
542.24	0.666
542.44	0.665
542.64	0.668
542.83	0.670
543.03	0.670
543.23	0.668
543.43	0.669
543.62	0.671
543.82	0.671
544.02	0.670
544.22	0.670
544.42	0.673
544.61	0.674
544.81	0.671
545.01	0.670
545.21	0.672
545.40	0.673
545.60	0.672
545.80	0.674
546.00	0.674
546.19	0.673
546.39	0.671
546.59	0.669
546.79	0.670
546.98	0.670
547.18	0.669
547.38	0.670
547.58	0.672
547.77	0.672
547.97	0.669
548.17	0.670
548.37	0.670
548.56	0.671
548.76	0.670
548.96	0.672
549.16	0.673
549.35	0.674
549.55	0.671
549.75	0.671
549.95	0.674
550.14	0.675
550.34	0.674
550.54	0.679
550.73	0.682
550.93	0.684
551.13	0.681
551.33	0.680
551.52	0.680
551.72	0.681
551.92	0.680
552.12	0.680
552.31	0.681
552.51	0.681
552.71	0.677
552.90	0.677
553.10	0.678
553.30	0.677
553.50	0.677
553.69	0.678
553.89	0.678
554.09	0.679
554.28	0.675
554.48	0.676
554.68	0.677
554.87	0.676
555.07	0.673
555.27	0.673
555.47	0.675
555.66	0.676
555.86	0.675
556.06	0.676
556.25	0.677
556.45	0.685
556.65	0.684
556.84	0.687
557.04	0.690
557.24	0.691
557.43	0.691
557.63	0.694
557.83	0.695
558.02	0.696
558.22	0.701
558.42	0.702
558.61	0.695
558.81	0.696
559.01	0.693
559.21	0.693
559.40	0.693
559.60	0.693
559.80	0.689
559.99	0.691
560.19	0.692
560.39	0.686
560.58	0.684
560.78	0.684
560.97	0.687
561.17	0.685
561.37	0.684
561.56	0.684
561.76	0.685
561.96	0.685
562.15	0.682
562.35	0.685
562.55	0.685
562.74	0.685
562.94	0.683
563.14	0.681
563.33	0.682
563.53	0.681
563.73	0.679
563.92	0.680
564.12	0.682
564.31	0.684
564.51	0.683
564.71	0.685
564.90	0.687
565.10	0.688
565.30	0.692
565.49	0.693
565.69	0.696
565.89	0.696
566.08	0.695
566.28	0.696
566.47	0.698
566.67	0.696
566.87	0.694
567.06	0.695
567.26	0.701
567.46	0.697
567.65	0.696
567.85	0.697
568.04	0.700
568.24	0.699
568.44	0.697
568.63	0.695
568.83	0.697
569.02	0.696
569.22	0.692
569.42	0.688
569.61	0.690
569.81	0.689
570.00	0.687
570.20	0.688
570.40	0.689
570.59	0.689
570.79	0.687
570.98	0.685
571.18	0.686
571.38	0.686
571.57	0.683
571.77	0.682
571.96	0.685
572.16	0.682
572.35	0.677
572.55	0.677
572.75	0.675
572.94	0.675
573.14	0.674
573.33	0.674
573.53	0.674
573.73	0.673
573.92	0.672
574.12	0.670
574.31	0.673
574.51	0.674
574.70	0.671
574.90	0.674
575.09	0.675
575.29	0.675
575.49	0.672
575.68	0.673
575.88	0.675
576.07	0.676
576.27	0.673
576.46	0.672
576.66	0.671
576.86	0.670
577.05	0.668
577.25	0.666
577.44	0.668
577.64	0.668
577.83	0.666
578.03	0.667
578.22	0.667
578.42	0.666
578.61	0.665
578.81	0.665
579.00	0.665
579.20	0.664
579.40	0.663
579.59	0.662
579.79	0.662
579.98	0.661
580.18	0.660
580.37	0.660
580.57	0.662
580.76	0.666
580.96	0.665
581.15	0.667
581.35	0.668
581.54	0.668
581.74	0.668
581.93	0.670
582.13	0.671
582.32	0.668
582.52	0.666
582.71	0.665
582.91	0.661
583.10	0.660
583.30	0.659
583.49	0.658
583.69	0.661
583.88	0.662
584.08	0.662
584.27	0.664
584.47	0.668
584.66	0.669
584.86	0.668
585.05	0.671
585.25	0.673
585.44	0.673
585.64	0.671
585.83	0.668
586.03	0.668
586.22	0.666
586.42	0.662
586.61	0.664
586.81	0.665
587.00	0.664
587.20	0.662
587.39	0.663
587.59	0.664
587.78	0.665
587.98	0.666
588.17	0.666
588.37	0.669
588.56	0.670
588.76	0.666
588.95	0.667
589.15	0.671
589.34	0.674
589.54	0.673
589.73	0.674
589.92	0.677
590.12	0.678
590.31	0.677
590.51	0.682
590.70	0.684
590.90	0.685
591.09	0.683
591.29	0.681
591.48	0.681
591.68	0.682
591.87	0.680
592.06	0.680
592.26	0.682
592.45	0.681
592.65	0.675
592.84	0.674
593.04	0.676
593.23	0.678
593.43	0.676
593.62	0.675
593.81	0.675
594.01	0.674
594.20	0.672
594.40	0.670
594.59	0.672
594.79	0.673
594.98	0.671
595.17	0.671
595.37	0.672
595.56	0.674
595.76	0.674
595.95	0.676
596.14	0.678
596.34	0.680
596.53	0.679
596.73	0.680
596.92	0.681
597.12	0.684
597.31	0.685
597.50	0.683
597.70	0.684
597.89	0.683
598.09	0.680
598.28	0.681
598.47	0.683
598.67	0.682
598.86	0.678
599.06	0.680
599.25	0.680
599.44	0.678
599.64	0.676
599.83	0.673
600.03	0.675
600.22	0.676
600.41	0.676
600.61	0.673
600.80	0.674
601.00	0.675
601.19	0.671
601.38	0.669
601.58	0.671
601.77	0.673
601.96	0.676
602.16	0.676
602.35	0.684
602.55	0.682
602.74	0.684
602.93	0.685
603.13	0.691
603.32	0.693
603.51	0.693
603.71	0.697
603.90	0.698
604.09	0.699
604.29	0.696
604.48	0.691
604.68	0.692
604.87	0.690
605.06	0.687
605.26	0.684
605.45	0.684
605.64	0.683
605.84	0.679
606.03	0.678
606.22	0.676
606.42	0.676
606.61	0.672
606.80	0.672
607.00	0.674
607.19	0.673
607.38	0.672
607.58	0.673
607.77	0.675
607.96	0.674
608.16	0.673
608.35	0.677
608.54	0.679
608.74	0.681
608.93	0.686
609.12	0.688
609.32	0.690
609.51	0.694
609.70	0.692
609.90	0.694
610.09	0.698
610.28	0.703
610.48	0.698
610.67	0.699
610.86	0.700
611.06	0.695
611.25	0.694
611.44	0.695
611.64	0.695
611.83	0.699
612.02	0.696
612.21	0.695
612.41	0.694
612.60	0.693
612.79	0.690
612.99	0.690
613.18	0.692
613.37	0.690
613.57	0.687
613.76	0.688
613.95	0.685
614.14	0.685
614.34	0.682
614.53	0.683
614.72	0.685
614.92	0.685
615.11	0.682
615.30	0.679
615.49	0.680
615.69	0.682
615.88	0.678
616.07	0.679
616.26	0.680
616.46	0.682
616.65	0.678
616.84	0.677
617.04	0.678
617.23	0.681
617.42	0.681
617.61	0.684
617.81	0.685
618.00	0.687
618.19	0.686
618.38	0.690
618.58	0.694
618.77	0.696
618.96	0.696
619.15	0.698
619.35	0.699
619.54	0.700
619.73	0.696
619.92	0.699
620.12	0.703
620.31	0.704
620.50	0.700
620.69	0.700
620.89	0.703
621.08	0.703
621.27	0.703
621.46	0.703
621.66	0.707
621.85	0.707
622.04	0.703
622.23	0.704
622.43	0.703
622.62	0.702
622.81	0.701
623.00	0.700
623.19	0.703
623.39	0.702
623.58	0.699
623.77	0.698
623.96	0.700
624.16	0.700
624.35	0.695
624.54	0.698
624.73	0.702
624.92	0.698
625.12	0.696
625.31	0.697
625.50	0.699
625.69	0.699
625.88	0.696
626.08	0.695
626.27	0.696
626.46	0.697
626.65	0.695
626.84	0.694
627.04	0.700
627.23	0.700
627.42	0.697
627.61	0.699
627.80	0.702
628.00	0.702
628.19	0.701
628.38	0.704
628.57	0.706
628.76	0.704
628.96	0.702
629.15	0.702
629.34	0.705
629.53	0.705
629.72	0.699
629.91	0.700
630.11	0.703
630.30	0.702
630.49	0.705
630.68	0.705
630.87	0.709
631.06	0.711
631.26	0.707
631.45	0.708
631.64	0.715
631.83	0.719
632.02	0.717
632.21	0.717
632.41	0.724
632.60	0.720
632.79	0.719
632.98	0.719
633.17	0.720
633.36	0.722
633.55	0.719
633.75	0.714
633.94	0.714
634.13	0.714
634.32	0.712
634.51	0.705
634.70	0.706
634.89	0.706
635.09	0.702
635.28	0.702
635.47	0.702
635.66	0.705
635.85	0.702
636.04	0.703
636.23	0.707
636.43	0.708
636.62	0.708
636.81	0.708
637.00	0.710
637.19	0.713
637.38	0.711
637.57	0.711
637.76	0.712
637.95	0.713
638.15	0.710
638.34	0.707
638.53	0.710
638.72	0.712
638.91	0.709
639.10	0.707
639.29	0.707
639.48	0.707
639.67	0.708
639.87	0.707
640.06	0.712
640.25	0.712
640.44	0.713
640.63	0.713
640.82	0.714
641.01	0.714
641.20	0.714
641.39	0.716
641.58	0.717
641.78	0.716
641.97	0.712
642.16	0.724
642.35	0.726
642.54	0.724
642.73	0.720
642.92	0.718
643.11	0.721
643.30	0.721
643.49	0.717
643.68	0.720
643.87	0.720
644.06	0.720
644.25	0.701
644.45	0.704
644.64	0.705
644.83	0.705
645.02	0.702
645.21	0.702
645.40	0.703
645.59	0.702
645.78	0.698
645.97	0.700
646.16	0.701
646.35	0.701
646.54	0.699
646.73	0.700
646.92	0.702
647.11	0.701
647.30	0.697
647.49	0.698
647.68	0.697
647.88	0.695
648.07	0.689
648.26	0.692
648.45	0.693
648.64	0.690
648.83	0.687
649.02	0.691
649.21	0.700
649.40	0.699
649.59	0.695
649.78	0.696
649.97	0.709
650.16	0.709
650.35	0.705
650.54	0.707
650.73	0.714
650.92	0.711
651.11	0.704
651.30	0.701
651.49	0.705
651.68	0.706
651.87	0.704
652.06	0.694
652.25	0.697
652.44	0.700
652.63	0.701
652.82	0.704
653.01	0.705
653.20	0.704
653.39	0.694
653.58	0.692
653.77	0.691
653.96	0.686
654.15	0.678
654.34	0.676
654.53	0.671
654.72	0.663
654.91	0.653
655.10	0.649
655.29	0.646
655.48	0.644
655.67	0.639
655.86	0.636
656.05	0.634
656.24	0.634
656.43	0.629
656.62	0.627
656.81	0.626
657.00	0.622
657.19	0.618
657.38	0.616
657.57	0.614
657.76	0.615
657.95	0.612
658.14	0.614
658.33	0.615
658.51	0.619
658.70	0.620
658.89	0.622
659.08	0.633
659.27	0.642
659.46	0.644
659.65	0.651
659.84	0.656
660.03	0.660
660.22	0.661
660.41	0.665
660.60	0.665
660.79	0.666
660.98	0.672
661.17	0.670
661.36	0.669
661.55	0.670
661.74	0.669
661.92	0.672
662.11	0.673
662.30	0.673
662.49	0.667
662.68	0.666
662.87	0.669
663.06	0.663
663.25	0.665
663.44	0.665
663.63	0.665
663.82	0.664
664.01	0.659
664.20	0.658
664.38	0.659
664.57	0.660
664.76	0.660
664.95	0.660
665.14	0.664
665.33	0.659
665.52	0.665
665.71	0.669
665.90	0.668
666.09	0.669
666.28	0.667
666.46	0.666
666.65	0.666
666.84	0.664
667.03	0.660
667.22	0.658
667.41	0.661
667.60	0.651
667.79	0.646
667.98	0.648
668.16	0.649
668.35	0.648
668.54	0.645
668.73	0.646
668.92	0.646
669.11	0.646
669.30	0.641
669.49	0.637
669.67	0.639
669.86	0.641
670.05	0.638
670.24	0.635
670.43	0.633
670.62	0.632
670.81	0.627
671.00	0.629
671.18	0.628
671.37	0.627
671.56	0.626
671.75	0.624
671.94	0.621
672.13	0.620
672.32	0.615
672.50	0.615
672.69	0.615
672.88	0.615
673.07	0.611
673.26	0.613
673.45	0.614
673.63	0.613
673.82	0.610
674.01	0.611
674.20	0.610
674.39	0.610
674.58	0.610
674.76	0.610
674.95	0.609
675.14	0.609
675.33	0.604
675.52	0.603
675.71	0.603
675.89	0.603
676.08	0.600
676.27	0.600
676.46	0.600
676.65	0.599
676.84	0.599
677.02	0.600
677.21	0.601
677.40	0.601
677.59	0.598
677.78	0.599
677.96	0.601
678.15	0.600
678.34	0.598
678.53	0.598
678.72	0.598
678.90	0.595
679.09	0.591
679.28	0.588
679.47	0.587
679.66	0.587
679.84	0.584
680.03	0.581
680.22	0.579
680.41	0.580
680.60	0.577
680.78	0.575
680.97	0.578
681.16	0.578
681.35	0.577
681.53	0.576
681.72	0.577
681.91	0.579
682.10	0.578
682.29	0.580
682.47	0.578
682.66	0.577
682.85	0.576
683.04	0.575
683.22	0.575
683.41	0.576
683.60	0.575
683.79	0.576
683.97	0.574
684.16	0.574
684.35	0.570
684.54	0.571
684.72	0.572
684.91	0.573
685.10	0.571
685.29	0.572
685.47	0.569
685.66	0.568
685.85	0.565
686.04	0.565
686.22	0.567
686.41	0.570
686.60	0.567
686.79	0.570
686.97	0.571
687.16	0.572
687.35	0.570
687.54	0.573
687.72	0.576
687.91	0.576
688.10	0.578
688.29	0.577
688.47	0.575
688.66	0.575
688.85	0.572
689.03	0.570
689.22	0.574
689.41	0.574
689.60	0.570
689.78	0.567
689.97	0.568
690.16	0.565
690.34	0.562
690.53	0.562
690.72	0.561
690.91	0.559
691.09	0.558
691.28	0.552
691.47	0.550
691.65	0.549
691.84	0.547
692.03	0.545
692.21	0.543
692.40	0.542
692.59	0.540
692.77	0.539
692.96	0.540
693.15	0.540
693.34	0.538
693.52	0.538
693.71	0.538
693.90	0.539
694.08	0.541
694.27	0.542
694.46	0.551
694.64	0.552
694.83	0.551
695.02	0.550
695.20	0.549
695.39	0.549
695.58	0.549
695.76	0.549
695.95	0.549
696.14	0.548
696.32	0.546
696.51	0.536
696.70	0.535
696.88	0.536
697.07	0.535
697.26	0.537
697.44	0.538
697.63	0.536
697.81	0.534
698.00	0.534
698.19	0.532
698.37	0.532
698.56	0.532
698.75	0.532
698.93	0.531
699.12	0.531
699.31	0.530
699.49	0.530
699.68	0.531
699.87	0.533
700.05	0.534
700.24	0.533
700.42	0.535
700.61	0.534
700.80	0.533
700.98	0.534
701.17	0.536
701.36	0.535
701.54	0.534
701.73	0.535
701.91	0.533
702.10	0.532
702.29	0.530
702.47	0.529
702.66	0.530
702.84	0.531
703.03	0.529
703.22	0.530
703.40	0.529
703.59	0.531
703.77	0.531
703.96	0.531
704.15	0.531
704.33	0.531
704.52	0.531
704.70	0.530
704.89	0.530
705.08	0.529
705.26	0.524
705.45	0.525
705.63	0.524
705.82	0.521
706.00	0.520
706.19	0.520
706.38	0.520
706.56	0.520
706.75	0.519
706.93	0.517
707.12	0.518
707.30	0.519
707.49	0.517
707.68	0.514
707.86	0.513
708.05	0.513
708.23	0.510
708.42	0.510
708.60	0.511
708.79	0.511
708.98	0.509
709.16	0.508
709.35	0.510
709.53	0.513
709.72	0.513
709.90	0.515
710.09	0.516
710.27	0.519
710.46	0.522
710.64	0.521
710.83	0.523
711.02	0.525
711.20	0.525
711.39	0.524
711.57	0.521
711.76	0.523
711.94	0.521
712.13	0.522
712.31	0.522
712.50	0.517
712.68	0.515
712.87	0.516
713.05	0.516
713.24	0.516
713.42	0.515
713.61	0.516
713.79	0.516
713.98	0.516
714.16	0.517
714.35	0.516
714.54	0.517
714.72	0.517
714.91	0.515
715.09	0.522
715.28	0.525
715.46	0.524
715.65	0.522
715.83	0.522
716.02	0.523
716.20	0.520
716.39	0.520
716.57	0.521
716.76	0.523
716.94	0.523
717.12	0.517
717.31	0.518
717.49	0.520
717.68	0.522
717.86	0.522
718.05	0.524
718.23	0.524
718.42	0.527
718.60	0.529
718.79	0.537
718.97	0.538
719.16	0.538
719.34	0.536
719.53	0.536
719.71	0.536
719.90	0.537
720.08	0.534
720.27	0.535
720.45	0.534
720.63	0.532
720.82	0.527
721.00	0.529
721.19	0.532
721.37	0.532
721.56	0.533
721.74	0.536
721.93	0.543
722.11	0.549
722.30	0.549
722.48	0.553
722.66	0.554
722.85	0.553
723.03	0.555
723.22	0.552
723.40	0.555
723.59	0.554
723.77	0.558
723.95	0.552
724.14	0.556
724.32	0.557
724.51	0.557
724.69	0.558
724.88	0.558
725.06	0.557
725.24	0.558
725.43	0.561
725.61	0.562
725.80	0.557
725.98	0.555
726.16	0.552
726.35	0.557
726.53	0.556
726.72	0.556
726.90	0.565
727.09	0.565
727.27	0.571
727.45	0.567
727.64	0.575
727.82	0.583
728.01	0.587
728.19	0.585
728.37	0.590
728.56	0.594
728.74	0.600
728.92	0.589
729.11	0.591
729.29	0.590
729.48	0.592
729.66	0.585
729.84	0.584
730.03	0.586
730.21	0.587
730.40	0.578
730.58	0.579
730.76	0.579
730.95	0.582
731.13	0.581
731.31	0.593
731.50	0.602
731.68	0.605
731.86	0.602
732.05	0.615
732.23	0.619
732.42	0.621
732.60	0.625
732.78	0.629
732.97	0.645
733.15	0.653
733.33	0.641
733.52	0.647
733.70	0.656
733.88	0.666
734.07	0.654
734.25	0.677
734.43	0.684
734.62	0.686
734.80	0.682
734.98	0.673
735.17	0.677
735.35	0.683
735.53	0.672
735.72	0.675
735.90	0.690
736.08	0.707
736.27	0.687
736.45	0.699
736.63	0.710
736.82	0.719
737.00	0.722
737.18	0.731
737.37	0.758
737.55	0.779
737.73	0.776
737.92	0.781
738.10	0.777
738.28	0.798
738.46	0.786
738.65	0.794
738.83	0.812
739.01	0.860
739.20	0.856
739.38	0.840
739.56	0.830
739.75	0.832
739.93	0.802
740.11	0.824
740.29	0.816
740.48	0.822
740.66	0.809
740.84	0.804
741.03	0.767
741.21	0.775
741.39	0.763
741.57	0.776
741.76	0.788
741.94	0.793
742.12	0.764
742.31	0.771
742.49	0.787
742.67	0.805
742.85	0.821
743.04	0.828
743.22	0.836
743.40	0.886
743.58	0.871
743.77	0.888
743.95	0.917
744.13	0.958
744.31	0.948
744.50	0.937
744.68	0.938
744.86	0.914
745.04	0.925
745.23	0.981
745.41	0.956
745.59	0.962
745.77	0.932
745.96	0.921
746.14	0.926
746.32	0.925
746.50	0.926
746.69	0.904
746.87	0.910
747.05	0.897
747.23	0.833
747.42	0.819
747.60	0.836
747.78	0.841
747.96	0.867
748.14	0.831
748.33	0.851
748.51	0.844
748.69	0.842
748.87	0.866
749.06	0.863
749.24	0.860
749.42	0.849
749.60	0.833
749.78	0.835
749.97	0.797
750.15	0.795
750.33	0.797
750.51	0.812
750.69	0.818
750.88	0.824
751.06	0.832
751.24	0.849
751.42	0.843
751.60	0.839
751.79	0.896
751.97	0.935
752.15	0.932
752.33	0.905
752.51	0.960
752.69	0.967
752.88	0.935
753.06	0.980
753.24	0.962
753.42	0.987
753.60	1.125
753.78	1.019
753.97	1.041
754.15	1.048
754.33	1.081
754.51	0.985
754.69	0.974
754.87	1.002
755.06	0.934
755.24	0.940
755.42	0.949
755.60	0.855
755.78	0.863
755.96	0.813
756.15	0.814
756.33	0.814
756.51	0.830
756.69	0.820
756.87	0.791
757.05	0.807
757.23	0.793
757.42	0.769
757.60	0.766
757.78	0.753
757.96	0.753
758.14	0.741
758.32	0.728
758.50	0.737
758.69	0.735
758.87	0.727
759.05	0.729
759.23	0.735
759.41	0.734
759.59	0.730
759.77	0.748
759.95	0.770
760.13	0.811
760.32	0.810
760.50	0.807
760.68	0.826
760.86	0.828
761.04	0.808
761.22	0.813
761.40	0.850
761.58	0.852
761.76	0.836
761.95	0.821
762.13	0.778
762.31	0.779
762.49	0.752
762.67	0.768
762.85	0.776
763.03	0.773
763.21	0.757
763.39	0.740
763.57	0.737
763.75	0.732
763.94	0.719
764.12	0.724
764.30	0.743
764.48	0.748
764.66	0.718
764.84	0.717
765.02	0.749
765.20	0.756
765.38	0.742
765.56	0.750
765.74	0.784
765.92	0.784
766.10	0.788
766.28	0.781
766.46	0.802
766.65	0.804
766.83	0.794
767.01	0.780
767.19	0.786
767.37	0.784
767.55	0.774
767.73	0.754
767.91	0.757
768.09	0.749
768.27	0.741
768.45	0.735
768.63	0.736
768.81	0.741
768.99	0.717
769.17	0.736
769.35	0.745
769.53	0.743
769.71	0.727
769.89	0.733
770.07	0.734
770.25	0.720
770.43	0.701
770.61	0.721
770.79	0.724
770.97	0.734
771.15	0.709
771.33	0.712
771.51	0.713
771.69	0.722
771.87	0.732
772.05	0.736
772.24	0.740
772.42	0.747
772.60	0.730
772.78	0.780
772.96	0.800
773.14	0.797
773.32	0.783
773.49	0.789
773.67	0.788
773.85	0.771
774.03	0.766
774.21	0.794
774.39	0.803
774.57	0.822
774.75	0.761
774.93	0.754
775.11	0.771
775.29	0.774
775.47	0.777
775.65	0.782
775.83	0.795
776.01	0.811
776.19	0.772
776.37	0.774
776.55	0.772
776.73	0.768
776.91	0.765
777.09	0.749
777.27	0.746
777.45	0.739
777.63	0.725
777.81	0.722
777.99	0.708
778.17	0.709
778.35	0.693
778.53	0.682
778.71	0.686
778.89	0.677
779.07	0.672
779.24	0.675
779.42	0.674
779.60	0.689
779.78	0.684
779.96	0.686
780.14	0.690
780.32	0.707
780.50	0.693
780.68	0.691
780.86	0.684
781.04	0.698
781.22	0.705
781.40	0.712
781.58	0.700
781.75	0.694
781.93	0.683
782.11	0.682
782.29	0.668
782.47	0.667
782.65	0.658
782.83	0.681
783.01	0.674
783.19	0.666
783.37	0.655
783.55	0.659
783.72	0.673
783.90	0.684
784.08	0.680
784.26	0.690
784.44	0.710
784.62	0.711
784.80	0.685
784.98	0.693
785.16	0.696
785.33	0.709
785.51	0.699
785.69	0.686
785.87	0.682
786.05	0.692
786.23	0.690
786.41	0.684
786.59	0.692
786.77	0.693
786.94	0.681
787.12	0.685
787.30	0.685
787.48	0.682
787.66	0.675
787.84	0.676
788.02	0.666
788.19	0.665
788.37	0.655
788.55	0.654
788.73	0.653
788.91	0.649
789.09	0.636
789.27	0.626
789.44	0.636
789.62	0.642
789.80	0.650
789.98	0.672
790.16	0.659
790.34	0.658
790.51	0.647
790.69	0.662
790.87	0.667
791.05	0.665
791.23	0.662
791.41	0.662
791.58	0.666
791.76	0.648
791.94	0.622
792.12	0.630
792.30	0.631
792.48	0.631
792.65	0.627
792.83	0.632
793.01	0.635
793.19	0.632
793.37	0.620
793.54	0.615
793.72	0.625
793.90	0.623
794.08	0.614
794.26	0.615
794.43	0.621
794.61	0.606
794.79	0.597
794.97	0.596
795.15	0.599
795.32	0.602
795.50	0.594
795.68	0.589
795.86	0.591
796.04	0.592
796.21	0.586
796.39	0.585
796.57	0.595
796.75	0.603
796.92	0.606
797.10	0.610
797.28	0.611
797.46	0.615
797.64	0.617
797.81	0.626
797.99	0.629
798.17	0.634
798.35	0.630
798.52	0.633
798.70	0.629
798.88	0.637
799.06	0.637
799.23	0.641
799.41	0.646
799.59	0.640
799.77	0.629
799.94	0.634
800.12	0.640
800.30	0.655
800.48	0.657
800.65	0.655
800.83	0.644
801.01	0.638
801.19	0.639
801.36	0.637
801.54	0.638
801.72	0.648
801.90	0.638
802.07	0.634
802.25	0.619
802.43	0.604
802.60	0.602
802.78	0.608
802.96	0.612
803.14	0.606
803.31	0.607
803.49	0.608
803.67	0.603
803.84	0.607
804.02	0.601
804.20	0.605
804.38	0.609
804.55	0.608
804.73	0.596
804.91	0.595
805.08	0.605
805.26	0.600
805.44	0.661
805.61	0.664
805.79	0.663
805.97	0.662
806.15	0.656
806.32	0.652
806.50	0.656
806.68	0.657
806.85	0.652
807.03	0.644
807.21	0.657
807.38	0.594
807.56	0.585
807.74	0.592
807.91	0.597
808.09	0.600
808.27	0.617
808.44	0.641
808.62	0.647
808.80	0.649
808.97	0.645
809.15	0.642
809.33	0.656
809.50	0.665
809.68	0.655
809.86	0.664
810.03	0.691
810.21	0.673
810.39	0.657
810.56	0.662
810.74	0.683
810.91	0.750
811.09	0.738
811.27	0.759
811.44	0.760
811.62	0.759
811.80	0.745
811.97	0.719
812.15	0.720
812.33	0.715
812.50	0.705
812.68	0.693
812.85	0.640
813.03	0.642
813.21	0.612
813.38	0.608
813.56	0.610
813.74	0.618
813.91	0.624
814.09	0.647
814.26	0.641
814.44	0.644
814.62	0.636
814.79	0.637
814.97	0.639
815.14	0.644
815.32	0.653
815.50	0.669
815.67	0.668
815.85	0.659
816.02	0.652
816.20	0.657
816.38	0.669
816.55	0.675
816.73	0.678
816.90	0.688
817.08	0.712
817.26	0.710
817.43	0.694
817.61	0.719
817.78	0.734
817.96	0.716
818.13	0.710
818.31	0.708
818.49	0.718
818.66	0.710
818.84	0.702
819.01	0.682
819.19	0.686
819.36	0.687
819.54	0.662
819.71	0.698
819.89	0.708
820.07	0.720
820.24	0.718
820.42	0.717
820.59	0.732
820.77	0.752
820.94	0.745
821.12	0.761
821.29	0.774
821.47	0.774
821.64	0.723
821.82	0.731
822.00	0.728
822.17	0.726
822.35	0.723
822.52	0.725
822.70	0.713
822.87	0.722
823.05	0.707
823.22	0.715
823.40	0.736
823.57	0.755
823.75	0.745
823.92	0.764
824.10	0.778
824.27	0.810
824.45	0.806
824.62	0.855
824.80	0.870
824.97	0.880
825.15	0.875
825.32	0.890
825.50	0.895
825.67	0.905
825.85	0.890
826.02	0.905
826.20	0.922
826.37	1.021
826.55	0.957
826.72	1.112
826.90	1.156
827.07	1.192
827.25	1.142
827.42	1.242
827.60	1.312
827.77	1.392
827.95	1.389
828.12	1.432
828.30	1.235
828.47	1.306
828.65	1.076
828.82	1.108
829.00	1.146
829.17	1.204
829.34	1.213
829.52	1.243
829.69	-0.000
829.87	-0.000
830.04	-0.000
830.22	-0.000
830.39	-0.000
830.57	-0.000
830.74	-0.000
830.92	-0.000
831.09	-0.000
831.26	-0.000
831.44	-0.000
831.61	-0.000
831.79	-0.000
831.96	-0.000
832.14	-0.000
832.31	-0.000
832.49	-0.000
832.66	-0.000
832.83	-0.000
833.01	-0.000
833.18	-0.000
833.36	-0.000
833.53	-0.000
833.70	-0.000
833.88	-0.000
834.05	-0.000
834.23	-0.000
834.40	-0.000
834.58	-0.000
834.75	-0.000
834.92	-0.000
835.10	-0.000
835.27	-0.000
835.45	-0.000
835.62	-0.000
835.79	-0.000
835.97	-0.000
836.14	-0.000
836.32	-0.000
836.49	-0.000
836.66	-0.000
836.84	-0.000
837.01	-0.000
837.18	-0.000
837.36	-0.000
837.53	-0.000
837.71	-0.000
837.88	-0.000
838.05	-0.000
838.23	-0.000
838.40	-0.000
838.58	-0.000
838.75	-0.000
838.92	-0.000
839.10	-0.000
839.27	-0.000
839.44	-0.000
839.62	-0.000
839.79	-0.000
839.96	-0.000
840.14	-0.000
840.31	-0.000
840.48	-0.000
840.66	-0.000
840.83	-0.000
841.01	-0.000
841.18	-0.000
841.35	-0.000
841.53	-0.000
841.70	-0.000
841.87	-0.000
842.05	-0.000
842.22	-0.000
842.39	-0.000
842.57	-0.000
842.74	-0.000
842.91	-0.000
843.09	-0.000
843.26	-0.000
843.43	-0.000
843.60	-0.000
843.78	-0.000
843.95	-0.000
844.12	-0.000
844.30	-0.000
844.47	-0.000
844.64	-0.000
844.82	-0.000
844.99	-0.000
845.16	-0.000
845.34	-0.000
845.51	-0.000
845.68	-0.000
845.85	-0.000
846.03	-0.000
846.20	-0.000
846.37	-0.000
846.55	-0.000
846.72	-0.000
846.89	-0.000
847.06	-0.000
847.24	-0.000
847.41	-0.000
847.58	-0.000
847.76	-0.000
847.93	-0.000
848.10	-0.000
848.27	-0.000
848.45	-0.000
848.62	-0.000
848.79	-0.000
848.97	-0.000
849.14	-0.000
849.31	-0.000
849.48	-0.000
849.66	-0.000
849.83	-0.000
850.00	-0.000
850.17	-0.000
850.35	-0.000
850.52	-0.000
850.69	-0.000
850.86	-0.000
851.04	-0.000
851.21	-0.000
851.38	-0.000
851.55	-0.000
851.72	-0.000
851.90	-0.000
852.07	-0.000
852.24	-0.000
852.41	-0.000
852.59	-0.000
852.76	-0.000
852.93	-0.000
853.10	-0.000
853.28	-0.000
853.45	-0.000
853.62	-0.000
853.79	-0.000
853.96	-0.000
854.14	-0.000
854.31	-0.000
854.48	-0.000
854.65	-0.000
854.82	-0.000
855.00	-0.000
855.17	-0.000
855.34	-0.000
855.51	-0.000
855.68	-0.000
855.86	-0.000
856.03	-0.000
856.20	-0.000
856.37	-0.000
856.54	-0.000
856.72	-0.000
856.89	-0.000
857.06	-0.000
857.23	-0.000
857.40	-0.000
857.57	-0.000
857.75	-0.000
857.92	-0.000
858.09	-0.000
858.26	-0.000
858.43	-0.000
858.60	-0.000
858.78	-0.000
858.95	-0.000
859.12	-0.000
859.29	-0.000
859.46	-0.000
859.63	-0.000
859.81	-0.000
859.98	-0.000
860.15	-0.000
860.32	-0.000
860.49	-0.000
860.66	-0.000
860.83	-0.000
861.01	-0.000
861.18	-0.000
861.35	-0.000
861.52	-0.000
861.69	-0.000
861.86	-0.000
862.03	-0.000
862.21	-0.000
862.38	-0.000
862.55	-0.000
862.72	-0.000
862.89	-0.000
863.06	-0.000
863.23	-0.000
863.40	-0.000
863.58	-0.000
863.75	-0.000
863.92	-0.000
864.09	-0.000
864.26	-0.000
864.43	-0.000
864.60	-0.000
864.77	-0.000
864.94	-0.000
865.11	-0.000
865.29	-0.000
865.46	-0.000
865.63	-0.000
865.80	-0.000
865.97	-0.000
866.14	-0.000
866.31	-0.000
866.48	-0.000
866.65	-0.000
866.82	-0.000
866.99	-0.000
867.16	-0.000
867.34	-0.000
867.51	-0.000
867.68	-0.000
867.85	-0.000
868.02	-0.000
868.19	-0.000
868.36	-0.000
868.53	-0.000
868.70	-0.000
868.87	-0.000
869.04	-0.000
869.21	-0.000
869.38	-0.000
869.55	-0.000
869.72	-0.000
869.89	-0.000
870.06	-0.000
870.24	-0.000
870.41	-0.000
870.58	-0.000
870.75	-0.000
870.92	-0.000
871.09	-0.000
871.26	-0.000
871.43	-0.000
871.60	-0.000
871.77	-0.000
871.94	-0.000
872.11	-0.000
872.28	-0.000
872.45	-0.000
872.62	-0.000
872.79	-0.000
872.96	-0.000
873.13	-0.000
873.30	-0.000
873.47	-0.000
873.64	-0.000
873.81	-0.000
873.98	-0.000
874.15	-0.000
874.32	-0.000
874.49	-0.000
874.66	-0.000
874.83	-0.000
875.00	-0.000
875.17	-0.000
875.34	-0.000
875.51	-0.000
875.68	-0.000
875.85	-0.000
876.02	-0.000
876.19	-0.000
876.36	-0.000
876.53	-0.000
876.70	-0.000
876.87	-0.000
877.04	-0.000
877.21	-0.000
877.38	-0.000
877.55	-0.000
877.72	-0.000
877.89	-0.000
878.06	-0.000
878.23	-0.000
878.39	-0.000
878.56	-0.000
878.73	-0.000
878.90	-0.000
879.07	-0.000
879.24	-0.000
879.41	-0.000
879.58	-0.000
879.75	-0.000
879.92	-0.000
880.09	-0.000
880.26	-0.000
880.43	-0.000
880.60	-0.000
880.77	-0.000
880.94	-0.000
881.11	-0.000
881.27	-0.000
881.44	-0.000
881.61	-0.000
881.78	-0.000
881.95	-0.000
882.12	-0.000
882.29	-0.000
882.46	-0.000
882.63	-0.000
882.80	-0.000
882.97	-0.000
883.14	-0.000
883.30	-0.000
883.47	-0.000
883.64	-0.000
883.81	-0.000
883.98	-0.000
884.15	-0.000
884.32	-0.000
884.49	-0.000
884.66	-0.000
884.82	-0.000
884.99	-0.000
885.16	-0.000
885.33	-0.000
885.50	-0.000
885.67	-0.000
885.84	-0.000
886.01	-0.000
886.17	-0.000
886.34	-0.000
886.51	-0.000
886.68	-0.000
886.85	-0.000
887.02	-0.000
887.19	-0.000
887.36	-0.000
887.52	-0.000
887.69	-0.000
887.86	-0.000
888.03	-0.000
888.20	-0.000
888.37	-0.000
888.54	-0.000
888.70	-0.000
888.87	-0.000
889.04	-0.000
889.21	-0.000
889.38	-0.000
889.55	-0.000
889.71	-0.000
889.88	-0.000
890.05	-0.000
890.22	-0.000
890.39	-0.000
>>>>>End Processed Spectral Data<<<<<
