SpectraSuite Data File
++++++++++++++++++++++++++++++++++++
Date: Fri Jun 19 15:04:10 CEST 2015
User: introlabs
Dark Spectrum Present: Yes
Reference Spectrum Present: Yes
Number of Sampled Component Spectra: 1
Spectrometers: USB4H08886
Integration Time (usec): 745692 (USB4H08886)
Spectra Averaged: 5 (USB4H08886)
Boxcar Smoothing: 5 (USB4H08886)
Correct for Electrical Dark: Yes (USB4H08886)
Strobe/Lamp Enabled: No (USB4H08886)
Correct for Detector Non-linearity: Yes (USB4H08886)
Correct for Stray Light: Yes (USB4H08886)
Number of Pixels in Processed Spectrum: 3648
>>>>>Begin Processed Spectral Data<<<<<
178.14	-0.000
178.36	-0.000
178.57	-0.000
178.79	-0.000
179.01	-0.000
179.22	-0.000
179.44	-0.000
179.65	-0.000
179.87	-0.000
180.08	-0.000
180.30	-0.000
180.52	-0.000
180.73	-0.000
180.95	-0.000
181.16	-0.000
181.38	-0.000
181.59	-0.000
181.81	-0.000
182.03	-0.000
182.24	-0.000
182.46	-0.000
182.67	-0.000
182.89	-0.000
183.10	-0.000
183.32	-0.000
183.54	-0.000
183.75	-0.000
183.97	-0.000
184.18	-0.000
184.40	-0.000
184.61	-0.000
184.83	-0.000
185.04	-0.000
185.26	-0.000
185.48	-0.000
185.69	-0.000
185.91	-0.000
186.12	-0.000
186.34	-0.000
186.55	-0.000
186.77	-0.000
186.98	-0.000
187.20	-0.000
187.42	-0.000
187.63	-0.000
187.85	-0.000
188.06	-0.000
188.28	-0.000
188.49	-0.000
188.71	-0.000
188.92	-0.000
189.14	-0.000
189.36	-0.000
189.57	-0.000
189.79	-0.000
190.00	-0.000
190.22	-0.000
190.43	-0.000
190.65	-0.000
190.86	-0.000
191.08	-0.000
191.29	-0.000
191.51	-0.000
191.72	-0.000
191.94	-0.000
192.16	-0.000
192.37	-0.000
192.59	-0.000
192.80	-0.000
193.02	-0.000
193.23	-0.000
193.45	-0.000
193.66	-0.000
193.88	-0.000
194.09	-0.000
194.31	-0.000
194.52	-0.000
194.74	-0.000
194.95	-0.000
195.17	-0.000
195.38	-0.000
195.60	-0.000
195.81	-0.000
196.03	-0.000
196.25	-0.000
196.46	-0.000
196.68	-0.000
196.89	-0.000
197.11	-0.000
197.32	-0.000
197.54	-0.000
197.75	-0.000
197.97	-0.000
198.18	-0.000
198.40	-0.000
198.61	-0.000
198.83	-0.000
199.04	-0.000
199.26	-0.000
199.47	-0.000
199.69	-0.000
199.90	-0.000
200.12	-0.000
200.33	-0.000
200.55	-0.000
200.76	-0.000
200.98	-0.000
201.19	-0.000
201.41	-0.000
201.62	-0.000
201.84	-0.000
202.05	-0.000
202.27	-0.000
202.48	-0.000
202.70	-0.000
202.91	-0.000
203.13	-0.000
203.34	-0.000
203.56	-0.000
203.77	-0.000
203.99	-0.000
204.20	-0.000
204.42	-0.000
204.63	-0.000
204.85	-0.000
205.06	-0.000
205.28	-0.000
205.49	-0.000
205.71	-0.000
205.92	-0.000
206.14	-0.000
206.35	-0.000
206.56	-0.000
206.78	-0.000
206.99	-0.000
207.21	-0.000
207.42	-0.000
207.64	-0.000
207.85	-0.000
208.07	-0.000
208.28	-0.000
208.50	-0.000
208.71	-0.000
208.93	-0.000
209.14	-0.000
209.36	-0.000
209.57	-0.000
209.79	-0.000
210.00	-0.000
210.22	-0.000
210.43	-0.000
210.64	-0.000
210.86	-0.000
211.07	-0.000
211.29	-0.000
211.50	-0.000
211.72	-0.000
211.93	-0.000
212.15	-0.000
212.36	-0.000
212.58	-0.000
212.79	-0.000
213.01	-0.000
213.22	-0.000
213.43	-0.000
213.65	-0.000
213.86	-0.000
214.08	-0.000
214.29	-0.000
214.51	-0.000
214.72	-0.000
214.94	-0.000
215.15	-0.000
215.36	-0.000
215.58	-0.000
215.79	-0.000
216.01	-0.000
216.22	-0.000
216.44	-0.000
216.65	-0.000
216.87	-0.000
217.08	-0.000
217.29	-0.000
217.51	-0.000
217.72	-0.000
217.94	-0.000
218.15	-0.000
218.37	-0.000
218.58	-0.000
218.80	-0.000
219.01	-0.000
219.22	-0.000
219.44	-0.000
219.65	-0.000
219.87	-0.000
220.08	-0.000
220.30	-0.000
220.51	-0.000
220.72	-0.000
220.94	-0.000
221.15	-0.000
221.37	-0.000
221.58	-0.000
221.79	-0.000
222.01	-0.000
222.22	-0.000
222.44	-0.000
222.65	-0.000
222.87	-0.000
223.08	-0.000
223.29	-0.000
223.51	-0.000
223.72	-0.000
223.94	-0.000
224.15	-0.000
224.36	-0.000
224.58	-0.000
224.79	-0.000
225.01	-0.000
225.22	-0.000
225.44	-0.000
225.65	-0.000
225.86	-0.000
226.08	-0.000
226.29	-0.000
226.51	-0.000
226.72	-0.000
226.93	-0.000
227.15	-0.000
227.36	-0.000
227.58	-0.000
227.79	-0.000
228.00	-0.000
228.22	-0.000
228.43	-0.000
228.65	-0.000
228.86	-0.000
229.07	-0.000
229.29	-0.000
229.50	-0.000
229.72	-0.000
229.93	-0.000
230.14	-0.000
230.36	-0.000
230.57	-0.000
230.78	-0.000
231.00	-0.000
231.21	-0.000
231.43	-0.000
231.64	-0.000
231.85	-0.000
232.07	-0.000
232.28	-0.000
232.50	-0.000
232.71	-0.000
232.92	-0.000
233.14	-0.000
233.35	-0.000
233.56	-0.000
233.78	-0.000
233.99	-0.000
234.21	-0.000
234.42	-0.000
234.63	-0.000
234.85	-0.000
235.06	-0.000
235.27	-0.000
235.49	-0.000
235.70	-0.000
235.91	-0.000
236.13	-0.000
236.34	-0.000
236.56	-0.000
236.77	-0.000
236.98	-0.000
237.20	-0.000
237.41	-0.000
237.62	-0.000
237.84	-0.000
238.05	-0.000
238.26	-0.000
238.48	-0.000
238.69	-0.000
238.91	-0.000
239.12	-0.000
239.33	-0.000
239.55	-0.000
239.76	-0.000
239.97	-0.000
240.19	-0.000
240.40	-0.000
240.61	-0.000
240.83	-0.000
241.04	-0.000
241.25	-0.000
241.47	-0.000
241.68	-0.000
241.89	-0.000
242.11	-0.000
242.32	-0.000
242.53	-0.000
242.75	-0.000
242.96	-0.000
243.17	-0.000
243.39	-0.000
243.60	-0.000
243.81	-0.000
244.03	-0.000
244.24	-0.000
244.45	-0.000
244.67	-0.000
244.88	-0.000
245.09	-0.000
245.31	-0.000
245.52	-0.000
245.73	-0.000
245.95	-0.000
246.16	-0.000
246.37	-0.000
246.59	-0.000
246.80	-0.000
247.01	-0.000
247.23	-0.000
247.44	-0.000
247.65	-0.000
247.87	-0.000
248.08	-0.000
248.29	-0.000
248.51	-0.000
248.72	-0.000
248.93	-0.000
249.15	-0.000
249.36	-0.000
249.57	-0.000
249.78	-0.000
250.00	-0.000
250.21	-0.000
250.42	-0.000
250.64	-0.000
250.85	-0.000
251.06	-0.000
251.28	-0.000
251.49	-0.000
251.70	-0.000
251.92	-0.000
252.13	-0.000
252.34	-0.000
252.55	-0.000
252.77	-0.000
252.98	-0.000
253.19	-0.000
253.41	-0.000
253.62	-0.000
253.83	-0.000
254.05	-0.000
254.26	-0.000
254.47	-0.000
254.68	-0.000
254.90	-0.000
255.11	-0.000
255.32	-0.000
255.54	-0.000
255.75	-0.000
255.96	-0.000
256.17	-0.000
256.39	-0.000
256.60	-0.000
256.81	-0.000
257.03	-0.000
257.24	-0.000
257.45	-0.000
257.66	-0.000
257.88	-0.000
258.09	-0.000
258.30	-0.000
258.51	-0.000
258.73	-0.000
258.94	-0.000
259.15	-0.000
259.37	-0.000
259.58	-0.000
259.79	-0.000
260.00	-0.000
260.22	-0.000
260.43	-0.000
260.64	-0.000
260.85	-0.000
261.07	-0.000
261.28	-0.000
261.49	-0.000
261.71	-0.000
261.92	-0.000
262.13	-0.000
262.34	-0.000
262.56	-0.000
262.77	-0.000
262.98	-0.000
263.19	-0.000
263.41	-0.000
263.62	-0.000
263.83	-0.000
264.04	-0.000
264.26	-0.000
264.47	-0.000
264.68	-0.000
264.89	-0.000
265.11	-0.000
265.32	-0.000
265.53	-0.000
265.74	-0.000
265.96	-0.000
266.17	-0.000
266.38	-0.000
266.59	-0.000
266.81	-0.000
267.02	-0.000
267.23	-0.000
267.44	-0.000
267.65	-0.000
267.87	-0.000
268.08	-0.000
268.29	-0.000
268.50	-0.000
268.72	-0.000
268.93	-0.000
269.14	-0.000
269.35	-0.000
269.57	-0.000
269.78	-0.000
269.99	-0.000
270.20	-0.000
270.41	-0.000
270.63	-0.000
270.84	-0.000
271.05	-0.000
271.26	-0.000
271.48	-0.000
271.69	-0.000
271.90	-0.000
272.11	-0.000
272.32	-0.000
272.54	-0.000
272.75	-0.000
272.96	-0.000
273.17	-0.000
273.39	-0.000
273.60	-0.000
273.81	-0.000
274.02	-0.000
274.23	-0.000
274.45	-0.000
274.66	-0.000
274.87	-0.000
275.08	-0.000
275.29	-0.000
275.51	-0.000
275.72	-0.000
275.93	-0.000
276.14	-0.000
276.35	-0.000
276.57	-0.000
276.78	-0.000
276.99	-0.000
277.20	-0.000
277.41	-0.000
277.63	-0.000
277.84	-0.000
278.05	-0.000
278.26	-0.000
278.47	-0.000
278.69	-0.000
278.90	-0.000
279.11	-0.000
279.32	-0.000
279.53	-0.000
279.74	-0.000
279.96	-0.000
280.17	-0.000
280.38	-0.000
280.59	-0.000
280.80	-0.000
281.02	-0.000
281.23	-0.000
281.44	-0.000
281.65	-0.000
281.86	-0.000
282.07	-0.000
282.29	-0.000
282.50	-0.000
282.71	-0.000
282.92	-0.000
283.13	-0.000
283.35	-0.000
283.56	-0.000
283.77	-0.000
283.98	-0.000
284.19	-0.000
284.40	-0.000
284.62	-0.000
284.83	-0.000
285.04	-0.000
285.25	-0.000
285.46	-0.000
285.67	-0.000
285.88	-0.000
286.10	-0.000
286.31	-0.000
286.52	-0.000
286.73	-0.000
286.94	-0.000
287.15	-0.000
287.37	-0.000
287.58	-0.000
287.79	-0.000
288.00	-0.000
288.21	-0.000
288.42	-0.000
288.63	-0.000
288.85	-0.000
289.06	-0.000
289.27	-0.000
289.48	-0.000
289.69	-0.000
289.90	-0.000
290.11	-0.000
290.33	-0.000
290.54	-0.000
290.75	-0.000
290.96	-0.000
291.17	-0.000
291.38	-0.000
291.59	-0.000
291.81	-0.000
292.02	-0.000
292.23	-0.000
292.44	-0.000
292.65	-0.000
292.86	-0.000
293.07	-0.000
293.28	-0.000
293.50	-0.000
293.71	-0.000
293.92	-0.000
294.13	-0.000
294.34	-0.000
294.55	-0.000
294.76	-0.000
294.97	-0.000
295.19	-0.000
295.40	-0.000
295.61	-0.000
295.82	-0.000
296.03	-0.000
296.24	-0.000
296.45	2.124
296.66	1.769
296.87	1.784
297.09	1.873
297.30	2.079
297.51	1.710
297.72	1.680
297.93	1.766
298.14	1.737
298.35	1.693
298.56	1.663
298.77	1.790
298.99	1.756
299.20	1.733
299.41	1.707
299.62	1.651
299.83	1.648
300.04	1.592
300.25	1.584
300.46	1.620
300.67	1.589
300.88	1.541
301.10	1.546
301.31	1.621
301.52	1.555
301.73	1.497
301.94	1.507
302.15	1.513
302.36	1.467
302.57	1.410
302.78	1.419
302.99	1.458
303.20	1.480
303.41	1.393
303.63	1.377
303.84	1.384
304.05	1.381
304.26	1.321
304.47	1.329
304.68	1.331
304.89	1.319
305.10	1.279
305.31	1.263
305.52	1.304
305.73	1.300
305.94	1.260
306.15	1.252
306.37	1.274
306.58	1.283
306.79	1.253
307.00	1.275
307.21	1.315
307.42	1.308
307.63	1.278
307.84	1.245
308.05	1.279
308.26	1.281
308.47	1.259
308.68	1.255
308.89	1.252
309.10	1.248
309.31	1.212
309.52	1.202
309.73	1.220
309.95	1.213
310.16	1.184
310.37	1.173
310.58	1.189
310.79	1.188
311.00	1.184
311.21	1.186
311.42	1.189
311.63	1.181
311.84	1.164
312.05	1.159
312.26	1.179
312.47	1.191
312.68	1.166
312.89	1.148
313.10	1.156
313.31	1.130
313.52	1.133
313.73	1.133
313.94	1.136
314.15	1.118
314.36	1.099
314.57	1.093
314.78	1.080
314.99	1.078
315.21	1.068
315.42	1.073
315.63	1.085
315.84	1.064
316.05	1.052
316.26	1.061
316.47	1.080
316.68	1.077
316.89	1.059
317.10	1.078
317.31	1.080
317.52	1.082
317.73	1.061
317.94	1.060
318.15	1.101
318.36	1.101
318.57	1.083
318.78	1.071
318.99	1.104
319.20	1.100
319.41	1.069
319.62	1.072
319.83	1.083
320.04	1.076
320.25	1.063
320.46	1.030
320.67	1.031
320.88	1.027
321.09	1.015
321.30	0.999
321.51	1.015
321.72	1.013
321.93	0.998
322.14	0.992
322.35	1.020
322.56	1.022
322.77	1.010
322.98	1.020
323.19	1.029
323.40	1.036
323.61	1.017
323.82	1.012
324.03	1.017
324.24	1.015
324.45	1.003
324.66	0.984
324.87	0.980
325.08	0.980
325.29	0.963
325.50	0.954
325.71	0.958
325.92	0.965
326.13	0.952
326.34	0.953
326.55	0.959
326.76	0.957
326.97	0.948
327.18	0.943
327.39	0.967
327.60	0.967
327.80	0.968
328.01	0.967
328.22	0.967
328.43	0.970
328.64	0.958
328.85	0.964
329.06	0.966
329.27	0.965
329.48	0.960
329.69	0.941
329.90	0.951
330.11	0.944
330.32	0.936
330.53	0.931
330.74	0.929
330.95	0.928
331.16	0.912
331.37	0.920
331.58	0.920
331.79	0.919
332.00	0.911
332.21	0.905
332.42	0.910
332.63	0.901
332.83	0.897
333.04	0.900
333.25	0.912
333.46	0.911
333.67	0.897
333.88	0.900
334.09	0.911
334.30	0.909
334.51	0.900
334.72	0.894
334.93	0.898
335.14	0.896
335.35	0.888
335.56	0.883
335.77	0.893
335.98	0.892
336.18	0.886
336.39	0.878
336.60	0.881
336.81	0.881
337.02	0.881
337.23	0.886
337.44	0.888
337.65	0.891
337.86	0.882
338.07	0.874
338.28	0.879
338.49	0.876
338.70	0.870
338.91	0.875
339.11	0.881
339.32	0.878
339.53	0.866
339.74	0.865
339.95	0.860
340.16	0.858
340.37	0.851
340.58	0.849
340.79	0.854
341.00	0.853
341.21	0.843
341.41	0.843
341.62	0.844
341.83	0.843
342.04	0.839
342.25	0.850
342.46	0.854
342.67	0.852
342.88	0.846
343.09	0.843
343.30	0.851
343.50	0.854
343.71	0.845
343.92	0.844
344.13	0.850
344.34	0.849
344.55	0.833
344.76	0.832
344.97	0.837
345.18	0.835
345.38	0.834
345.59	0.827
345.80	0.827
346.01	0.826
346.22	0.820
346.43	0.814
346.64	0.823
346.85	0.823
347.06	0.815
347.26	0.814
347.47	0.819
347.68	0.814
347.89	0.811
348.10	0.805
348.31	0.811
348.52	0.811
348.73	0.808
348.93	0.804
349.14	0.806
349.35	0.806
349.56	0.801
349.77	0.796
349.98	0.801
350.19	0.799
350.39	0.796
350.60	0.791
350.81	0.806
351.02	0.805
351.23	0.801
351.44	0.804
351.65	0.807
351.86	0.805
352.06	0.805
352.27	0.805
352.48	0.806
352.69	0.806
352.90	0.801
353.11	0.788
353.31	0.795
353.52	0.791
353.73	0.782
353.94	0.782
354.15	0.787
354.36	0.786
354.57	0.777
354.77	0.779
354.98	0.778
355.19	0.777
355.40	0.777
355.61	0.783
355.82	0.786
356.02	0.786
356.23	0.780
356.44	0.782
356.65	0.786
356.86	0.787
357.07	0.780
357.27	0.783
357.48	0.787
357.69	0.782
357.90	0.767
358.11	0.765
358.32	0.767
358.52	0.770
358.73	0.760
358.94	0.763
359.15	0.767
359.36	0.767
359.56	0.762
359.77	0.758
359.98	0.765
360.19	0.765
360.40	0.761
360.61	0.763
360.81	0.761
361.02	0.761
361.23	0.753
361.44	0.752
361.65	0.754
361.85	0.754
362.06	0.752
362.27	0.754
362.48	0.753
362.69	0.756
362.89	0.750
363.10	0.751
363.31	0.755
363.52	0.758
363.73	0.753
363.93	0.753
364.14	0.754
364.35	0.756
364.56	0.745
364.77	0.748
364.97	0.750
365.18	0.750
365.39	0.745
365.60	0.742
365.81	0.743
366.01	0.743
366.22	0.739
366.43	0.739
366.64	0.740
366.84	0.746
367.05	0.743
367.26	0.742
367.47	0.744
367.68	0.744
367.88	0.741
368.09	0.739
368.30	0.740
368.51	0.740
368.71	0.739
368.92	0.743
369.13	0.742
369.34	0.740
369.55	0.740
369.75	0.740
369.96	0.746
370.17	0.747
370.38	0.744
370.58	0.744
370.79	0.749
371.00	0.748
371.21	0.740
371.41	0.745
371.62	0.749
371.83	0.745
372.04	0.742
372.24	0.736
372.45	0.737
372.66	0.736
372.87	0.734
373.07	0.731
373.28	0.731
373.49	0.734
373.70	0.724
373.90	0.723
374.11	0.732
374.32	0.732
374.53	0.731
374.73	0.731
374.94	0.735
375.15	0.735
375.36	0.732
375.56	0.741
375.77	0.742
375.98	0.742
376.19	0.741
376.39	0.733
376.60	0.737
376.81	0.737
377.02	0.736
377.22	0.735
377.43	0.735
377.64	0.735
377.84	0.726
378.05	0.731
378.26	0.737
378.47	0.736
378.67	0.733
378.88	0.731
379.09	0.731
379.30	0.730
379.50	0.728
379.71	0.729
379.92	0.732
380.12	0.731
380.33	0.723
380.54	0.720
380.75	0.726
380.95	0.726
381.16	0.725
381.37	0.725
381.57	0.727
381.78	0.728
381.99	0.728
382.20	0.727
382.40	0.730
382.61	0.730
382.82	0.727
383.02	0.721
383.23	0.723
383.44	0.723
383.64	0.722
383.85	0.724
384.06	0.726
384.27	0.725
384.47	0.723
384.68	0.724
384.89	0.730
385.09	0.730
385.30	0.730
385.51	0.728
385.71	0.731
385.92	0.732
386.13	0.731
386.33	0.733
386.54	0.733
386.75	0.732
386.95	0.728
387.16	0.724
387.37	0.725
387.58	0.725
387.78	0.724
387.99	0.722
388.20	0.723
388.40	0.720
388.61	0.717
388.82	0.721
389.02	0.723
389.23	0.723
389.44	0.722
389.64	0.722
389.85	0.734
390.06	0.733
390.26	0.733
390.47	0.732
390.68	0.735
390.88	0.733
391.09	0.728
391.30	0.727
391.50	0.727
391.71	0.726
391.92	0.723
392.12	0.716
392.33	0.716
392.53	0.716
392.74	0.716
392.95	0.715
393.15	0.718
393.36	0.720
393.57	0.718
393.77	0.722
393.98	0.723
394.19	0.723
394.39	0.722
394.60	0.724
394.81	0.726
395.01	0.725
395.22	0.724
395.43	0.724
395.63	0.729
395.84	0.730
396.04	0.726
396.25	0.729
396.46	0.731
396.66	0.728
396.87	0.725
397.08	0.722
397.28	0.724
397.49	0.726
397.69	0.722
397.90	0.717
398.11	0.719
398.31	0.719
398.52	0.715
398.73	0.717
398.93	0.716
399.14	0.716
399.34	0.715
399.55	0.715
399.76	0.715
399.96	0.716
400.17	0.714
400.37	0.713
400.58	0.720
400.79	0.722
400.99	0.719
401.20	0.725
401.41	0.728
401.61	0.729
401.82	0.735
402.02	0.736
402.23	0.737
402.44	0.737
402.64	0.737
402.85	0.731
403.05	0.730
403.26	0.729
403.47	0.722
403.67	0.721
403.88	0.721
404.08	0.715
404.29	0.712
404.50	0.712
404.70	0.713
404.91	0.711
405.11	0.708
405.32	0.709
405.52	0.709
405.73	0.710
405.94	0.708
406.14	0.711
406.35	0.712
406.55	0.713
406.76	0.710
406.97	0.711
407.17	0.714
407.38	0.714
407.58	0.712
407.79	0.715
407.99	0.718
408.20	0.718
408.41	0.714
408.61	0.713
408.82	0.713
409.02	0.713
409.23	0.711
409.43	0.711
409.64	0.712
409.84	0.711
410.05	0.708
410.26	0.706
410.46	0.706
410.67	0.706
410.87	0.707
411.08	0.709
411.28	0.710
411.49	0.712
411.69	0.710
411.90	0.711
412.11	0.713
412.31	0.714
412.52	0.712
412.72	0.713
412.93	0.713
413.13	0.712
413.34	0.708
413.54	0.709
413.75	0.711
413.95	0.710
414.16	0.707
414.37	0.709
414.57	0.709
414.78	0.712
414.98	0.710
415.19	0.711
415.39	0.708
415.60	0.711
415.80	0.710
416.01	0.708
416.21	0.710
416.42	0.710
416.62	0.705
416.83	0.706
417.03	0.705
417.24	0.705
417.44	0.702
417.65	0.702
417.86	0.702
418.06	0.701
418.27	0.700
418.47	0.702
418.68	0.703
418.88	0.704
419.09	0.702
419.29	0.703
419.50	0.704
419.70	0.705
419.91	0.703
420.11	0.701
420.32	0.703
420.52	0.702
420.73	0.700
420.93	0.700
421.14	0.701
421.34	0.700
421.55	0.696
421.75	0.695
421.96	0.696
422.16	0.696
422.37	0.695
422.57	0.692
422.78	0.694
422.98	0.691
423.19	0.689
423.39	0.688
423.60	0.691
423.80	0.693
424.01	0.691
424.21	0.693
424.42	0.694
424.62	0.694
424.83	0.693
425.03	0.694
425.23	0.696
425.44	0.696
425.64	0.696
425.85	0.694
426.05	0.695
426.26	0.696
426.46	0.693
426.67	0.692
426.87	0.697
427.08	0.697
427.28	0.694
427.49	0.695
427.69	0.695
427.90	0.694
428.10	0.691
428.31	0.691
428.51	0.692
428.71	0.692
428.92	0.694
429.12	0.691
429.33	0.692
429.53	0.696
429.74	0.701
429.94	0.701
430.15	0.701
430.35	0.701
430.56	0.698
430.76	0.697
430.96	0.697
431.17	0.694
431.37	0.691
431.58	0.690
431.78	0.686
431.99	0.678
432.19	0.680
432.40	0.682
432.60	0.683
432.80	0.685
433.01	0.683
433.21	0.684
433.42	0.686
433.62	0.686
433.83	0.686
434.03	0.688
434.23	0.691
434.44	0.690
434.64	0.688
434.85	0.693
435.05	0.694
435.26	0.693
435.46	0.692
435.66	0.691
435.87	0.690
436.07	0.691
436.28	0.687
436.48	0.685
436.69	0.683
436.89	0.683
437.09	0.677
437.30	0.676
437.50	0.676
437.71	0.689
437.91	0.688
438.11	0.689
438.32	0.693
438.52	0.693
438.73	0.692
438.93	0.691
439.13	0.690
439.34	0.694
439.54	0.691
439.75	0.691
439.95	0.681
440.15	0.686
440.36	0.684
440.56	0.682
440.77	0.682
440.97	0.682
441.17	0.681
441.38	0.683
441.58	0.679
441.79	0.679
441.99	0.678
442.19	0.676
442.40	0.673
442.60	0.673
442.81	0.671
443.01	0.672
443.21	0.672
443.42	0.672
443.62	0.670
443.82	0.671
444.03	0.672
444.23	0.672
444.44	0.673
444.64	0.672
444.84	0.672
445.05	0.672
445.25	0.670
445.45	0.671
445.66	0.673
445.86	0.671
446.06	0.673
446.27	0.672
446.47	0.675
446.68	0.673
446.88	0.671
447.08	0.671
447.29	0.672
447.49	0.672
447.69	0.671
447.90	0.670
448.10	0.673
448.30	0.670
448.51	0.671
448.71	0.669
448.91	0.670
449.12	0.670
449.32	0.671
449.52	0.670
449.73	0.674
449.93	0.673
450.14	0.675
450.34	0.674
450.54	0.676
450.75	0.673
450.95	0.673
451.15	0.672
451.36	0.675
451.56	0.672
451.76	0.671
451.97	0.668
452.17	0.668
452.37	0.666
452.58	0.663
452.78	0.663
452.98	0.665
453.19	0.665
453.39	0.665
453.59	0.663
453.79	0.664
454.00	0.665
454.20	0.663
454.40	0.664
454.61	0.666
454.81	0.666
455.01	0.664
455.22	0.666
455.42	0.668
455.62	0.666
455.83	0.666
456.03	0.668
456.23	0.669
456.44	0.670
456.64	0.669
456.84	0.668
457.04	0.668
457.25	0.668
457.45	0.664
457.65	0.663
457.86	0.664
458.06	0.662
458.26	0.658
458.47	0.657
458.67	0.659
458.87	0.659
459.07	0.657
459.28	0.659
459.48	0.661
459.68	0.661
459.89	0.661
460.09	0.660
460.29	0.661
460.49	0.662
460.70	0.662
460.90	0.661
461.10	0.661
461.31	0.661
461.51	0.658
461.71	0.660
461.91	0.662
462.12	0.661
462.32	0.661
462.52	0.661
462.72	0.664
462.93	0.664
463.13	0.663
463.33	0.664
463.53	0.666
463.74	0.665
463.94	0.661
464.14	0.661
464.35	0.662
464.55	0.662
464.75	0.660
464.95	0.658
465.16	0.659
465.36	0.658
465.56	0.657
465.76	0.655
465.97	0.656
466.17	0.657
466.37	0.654
466.57	0.656
466.78	0.656
466.98	0.656
467.18	0.654
467.38	0.653
467.59	0.654
467.79	0.655
467.99	0.654
468.19	0.655
468.39	0.658
468.60	0.658
468.80	0.656
469.00	0.658
469.20	0.659
469.41	0.659
469.61	0.659
469.81	0.660
470.01	0.660
470.22	0.661
470.42	0.659
470.62	0.657
470.82	0.659
471.02	0.659
471.23	0.656
471.43	0.657
471.63	0.659
471.83	0.658
472.04	0.656
472.24	0.655
472.44	0.659
472.64	0.659
472.84	0.658
473.05	0.657
473.25	0.659
473.45	0.658
473.65	0.657
473.85	0.657
474.06	0.659
474.26	0.659
474.46	0.660
474.66	0.656
474.86	0.656
475.07	0.656
475.27	0.654
475.47	0.652
475.67	0.652
475.87	0.654
476.08	0.651
476.28	0.652
476.48	0.654
476.68	0.652
476.88	0.651
477.09	0.652
477.29	0.653
477.49	0.653
477.69	0.652
477.89	0.653
478.09	0.652
478.30	0.655
478.50	0.652
478.70	0.651
478.90	0.651
479.10	0.654
479.31	0.655
479.51	0.653
479.71	0.654
479.91	0.654
480.11	0.653
480.31	0.653
480.52	0.651
480.72	0.652
480.92	0.650
481.12	0.649
481.32	0.646
481.52	0.644
481.72	0.645
481.93	0.648
482.13	0.648
482.33	0.648
482.53	0.646
482.73	0.647
482.93	0.649
483.14	0.648
483.34	0.648
483.54	0.649
483.74	0.648
483.94	0.647
484.14	0.644
484.34	0.643
484.55	0.644
484.75	0.644
484.95	0.642
485.15	0.641
485.35	0.642
485.55	0.641
485.75	0.640
485.96	0.640
486.16	0.642
486.36	0.641
486.56	0.639
486.76	0.639
486.96	0.640
487.16	0.639
487.36	0.637
487.57	0.636
487.77	0.637
487.97	0.637
488.17	0.635
488.37	0.634
488.57	0.634
488.77	0.635
488.97	0.633
489.18	0.633
489.38	0.636
489.58	0.637
489.78	0.636
489.98	0.635
490.18	0.636
490.38	0.637
490.58	0.636
490.78	0.636
490.98	0.638
491.19	0.639
491.39	0.638
491.59	0.636
491.79	0.639
491.99	0.639
492.19	0.639
492.39	0.642
492.59	0.641
492.79	0.643
492.99	0.643
493.20	0.643
493.40	0.643
493.60	0.645
493.80	0.643
494.00	0.641
494.20	0.642
494.40	0.641
494.60	0.638
494.80	0.642
495.00	0.642
495.20	0.640
495.40	0.639
495.61	0.641
495.81	0.640
496.01	0.644
496.21	0.645
496.41	0.644
496.61	0.645
496.81	0.644
497.01	0.639
497.21	0.639
497.41	0.639
497.61	0.639
497.81	0.636
498.01	0.636
498.21	0.634
498.41	0.632
498.61	0.633
498.82	0.634
499.02	0.636
499.22	0.636
499.42	0.636
499.62	0.637
499.82	0.638
500.02	0.639
500.22	0.638
500.42	0.640
500.62	0.641
500.82	0.641
501.02	0.639
501.22	0.639
501.42	0.639
501.62	0.641
501.82	0.640
502.02	0.640
502.22	0.640
502.42	0.642
502.62	0.639
502.82	0.639
503.02	0.640
503.22	0.639
503.42	0.637
503.63	0.637
503.83	0.635
504.03	0.634
504.23	0.632
504.43	0.633
504.63	0.634
504.83	0.633
505.03	0.633
505.23	0.634
505.43	0.636
505.63	0.636
505.83	0.636
506.03	0.638
506.23	0.640
506.43	0.640
506.63	0.639
506.83	0.638
507.03	0.640
507.23	0.641
507.43	0.638
507.63	0.639
507.83	0.640
508.03	0.640
508.23	0.639
508.43	0.638
508.63	0.640
508.83	0.640
509.03	0.641
509.23	0.640
509.43	0.641
509.63	0.641
509.83	0.640
510.03	0.642
510.23	0.644
510.43	0.645
510.63	0.646
510.83	0.645
511.03	0.647
511.23	0.644
511.43	0.644
511.63	0.646
511.83	0.648
512.03	0.648
512.22	0.644
512.42	0.643
512.62	0.644
512.82	0.643
513.02	0.642
513.22	0.642
513.42	0.643
513.62	0.646
513.82	0.644
514.02	0.644
514.22	0.645
514.42	0.645
514.62	0.645
514.82	0.645
515.02	0.647
515.22	0.651
515.42	0.649
515.62	0.652
515.82	0.651
516.02	0.652
516.22	0.652
516.42	0.653
516.62	0.654
516.82	0.655
517.01	0.654
517.21	0.653
517.41	0.657
517.61	0.657
517.81	0.654
518.01	0.653
518.21	0.653
518.41	0.652
518.61	0.651
518.81	0.651
519.01	0.652
519.21	0.652
519.41	0.651
519.61	0.645
519.81	0.648
520.00	0.648
520.20	0.649
520.40	0.651
520.60	0.652
520.80	0.652
521.00	0.652
521.20	0.653
521.40	0.657
521.60	0.658
521.80	0.657
522.00	0.657
522.20	0.660
522.39	0.659
522.59	0.656
522.79	0.657
522.99	0.660
523.19	0.658
523.39	0.655
523.59	0.654
523.79	0.657
523.99	0.659
524.19	0.658
524.38	0.656
524.58	0.658
524.78	0.659
524.98	0.657
525.18	0.658
525.38	0.660
525.58	0.660
525.78	0.657
525.98	0.656
526.18	0.656
526.37	0.656
526.57	0.658
526.77	0.657
526.97	0.657
527.17	0.657
527.37	0.654
527.57	0.656
527.77	0.657
527.96	0.658
528.16	0.657
528.36	0.657
528.56	0.658
528.76	0.656
528.96	0.655
529.16	0.657
529.36	0.661
529.55	0.661
529.75	0.658
529.95	0.658
530.15	0.659
530.35	0.662
530.55	0.660
530.75	0.660
530.94	0.662
531.14	0.662
531.34	0.660
531.54	0.658
531.74	0.661
531.94	0.664
532.13	0.662
532.33	0.665
532.53	0.663
532.73	0.663
532.93	0.661
533.13	0.662
533.33	0.662
533.52	0.663
533.72	0.666
533.92	0.664
534.12	0.662
534.32	0.662
534.52	0.661
534.71	0.662
534.91	0.665
535.11	0.668
535.31	0.666
535.51	0.668
535.71	0.669
535.90	0.666
536.10	0.667
536.30	0.670
536.50	0.670
536.70	0.670
536.89	0.668
537.09	0.667
537.29	0.668
537.49	0.669
537.69	0.668
537.89	0.669
538.08	0.668
538.28	0.666
538.48	0.667
538.68	0.668
538.88	0.669
539.07	0.670
539.27	0.668
539.47	0.667
539.67	0.666
539.87	0.668
540.06	0.665
540.26	0.666
540.46	0.668
540.66	0.665
540.86	0.663
541.05	0.663
541.25	0.664
541.45	0.664
541.65	0.663
541.84	0.664
542.04	0.665
542.24	0.666
542.44	0.665
542.64	0.666
542.83	0.669
543.03	0.669
543.23	0.667
543.43	0.668
543.62	0.669
543.82	0.669
544.02	0.669
544.22	0.669
544.42	0.673
544.61	0.673
544.81	0.670
545.01	0.669
545.21	0.672
545.40	0.672
545.60	0.670
545.80	0.673
546.00	0.673
546.19	0.672
546.39	0.671
546.59	0.669
546.79	0.670
546.98	0.671
547.18	0.670
547.38	0.670
547.58	0.673
547.77	0.674
547.97	0.670
548.17	0.672
548.37	0.671
548.56	0.672
548.76	0.671
548.96	0.672
549.16	0.674
549.35	0.673
549.55	0.671
549.75	0.671
549.95	0.674
550.14	0.674
550.34	0.673
550.54	0.678
550.73	0.682
550.93	0.682
551.13	0.679
551.33	0.679
551.52	0.680
551.72	0.681
551.92	0.678
552.12	0.679
552.31	0.680
552.51	0.680
552.71	0.676
552.90	0.676
553.10	0.677
553.30	0.676
553.50	0.676
553.69	0.677
553.89	0.678
554.09	0.678
554.28	0.675
554.48	0.676
554.68	0.678
554.87	0.678
555.07	0.675
555.27	0.675
555.47	0.676
555.66	0.676
555.86	0.674
556.06	0.676
556.25	0.678
556.45	0.685
556.65	0.683
556.84	0.685
557.04	0.688
557.24	0.690
557.43	0.690
557.63	0.693
557.83	0.695
558.02	0.697
558.22	0.701
558.42	0.701
558.61	0.694
558.81	0.695
559.01	0.692
559.21	0.692
559.40	0.693
559.60	0.692
559.80	0.689
559.99	0.691
560.19	0.692
560.39	0.686
560.58	0.683
560.78	0.683
560.97	0.687
561.17	0.685
561.37	0.683
561.56	0.683
561.76	0.685
561.96	0.684
562.15	0.681
562.35	0.683
562.55	0.684
562.74	0.684
562.94	0.683
563.14	0.681
563.33	0.682
563.53	0.682
563.73	0.680
563.92	0.680
564.12	0.683
564.31	0.685
564.51	0.683
564.71	0.685
564.90	0.688
565.10	0.688
565.30	0.690
565.49	0.691
565.69	0.693
565.89	0.694
566.08	0.691
566.28	0.693
566.47	0.696
566.67	0.694
566.87	0.691
567.06	0.693
567.26	0.700
567.46	0.696
567.65	0.696
567.85	0.697
568.04	0.701
568.24	0.700
568.44	0.697
568.63	0.695
568.83	0.697
569.02	0.696
569.22	0.691
569.42	0.688
569.61	0.689
569.81	0.688
570.00	0.686
570.20	0.687
570.40	0.688
570.59	0.688
570.79	0.685
570.98	0.684
571.18	0.685
571.38	0.684
571.57	0.681
571.77	0.680
571.96	0.683
572.16	0.680
572.35	0.675
572.55	0.676
572.75	0.674
572.94	0.674
573.14	0.673
573.33	0.673
573.53	0.674
573.73	0.673
573.92	0.671
574.12	0.669
574.31	0.672
574.51	0.673
574.70	0.670
574.90	0.672
575.09	0.674
575.29	0.674
575.49	0.671
575.68	0.672
575.88	0.673
576.07	0.674
576.27	0.672
576.46	0.671
576.66	0.670
576.86	0.669
577.05	0.667
577.25	0.665
577.44	0.667
577.64	0.666
577.83	0.664
578.03	0.666
578.22	0.665
578.42	0.665
578.61	0.663
578.81	0.664
579.00	0.665
579.20	0.664
579.40	0.663
579.59	0.662
579.79	0.663
579.98	0.662
580.18	0.662
580.37	0.662
580.57	0.664
580.76	0.668
580.96	0.667
581.15	0.667
581.35	0.669
581.54	0.669
581.74	0.668
581.93	0.670
582.13	0.671
582.32	0.668
582.52	0.666
582.71	0.666
582.91	0.661
583.10	0.661
583.30	0.660
583.49	0.658
583.69	0.662
583.88	0.663
584.08	0.662
584.27	0.665
584.47	0.668
584.66	0.669
584.86	0.668
585.05	0.670
585.25	0.673
585.44	0.672
585.64	0.671
585.83	0.667
586.03	0.667
586.22	0.665
586.42	0.661
586.61	0.663
586.81	0.665
587.00	0.665
587.20	0.662
587.39	0.662
587.59	0.664
587.78	0.666
587.98	0.667
588.17	0.668
588.37	0.670
588.56	0.672
588.76	0.668
588.95	0.668
589.15	0.672
589.34	0.675
589.54	0.673
589.73	0.674
589.92	0.677
590.12	0.677
590.31	0.675
590.51	0.681
590.70	0.682
590.90	0.683
591.09	0.681
591.29	0.679
591.48	0.679
591.68	0.681
591.87	0.679
592.06	0.678
592.26	0.681
592.45	0.680
592.65	0.674
592.84	0.673
593.04	0.676
593.23	0.677
593.43	0.675
593.62	0.674
593.81	0.674
594.01	0.673
594.20	0.671
594.40	0.669
594.59	0.671
594.79	0.672
594.98	0.670
595.17	0.669
595.37	0.670
595.56	0.673
595.76	0.673
595.95	0.674
596.14	0.677
596.34	0.678
596.53	0.677
596.73	0.679
596.92	0.681
597.12	0.684
597.31	0.684
597.50	0.683
597.70	0.685
597.89	0.684
598.09	0.681
598.28	0.683
598.47	0.685
598.67	0.684
598.86	0.679
599.06	0.681
599.25	0.681
599.44	0.678
599.64	0.676
599.83	0.673
600.03	0.675
600.22	0.676
600.41	0.676
600.61	0.673
600.80	0.675
601.00	0.676
601.19	0.673
601.38	0.671
601.58	0.674
601.77	0.676
601.96	0.678
602.16	0.678
602.35	0.687
602.55	0.684
602.74	0.686
602.93	0.687
603.13	0.692
603.32	0.694
603.51	0.694
603.71	0.697
603.90	0.699
604.09	0.699
604.29	0.697
604.48	0.691
604.68	0.693
604.87	0.691
605.06	0.688
605.26	0.684
605.45	0.685
605.64	0.683
605.84	0.679
606.03	0.678
606.22	0.676
606.42	0.676
606.61	0.672
606.80	0.672
607.00	0.673
607.19	0.674
607.38	0.672
607.58	0.673
607.77	0.676
607.96	0.675
608.16	0.673
608.35	0.678
608.54	0.681
608.74	0.684
608.93	0.689
609.12	0.691
609.32	0.694
609.51	0.698
609.70	0.696
609.90	0.698
610.09	0.702
610.28	0.708
610.48	0.702
610.67	0.703
610.86	0.704
611.06	0.699
611.25	0.697
611.44	0.697
611.64	0.697
611.83	0.700
612.02	0.697
612.21	0.696
612.41	0.695
612.60	0.694
612.79	0.690
612.99	0.690
613.18	0.691
613.37	0.688
613.57	0.686
613.76	0.688
613.95	0.685
614.14	0.684
614.34	0.682
614.53	0.682
614.72	0.685
614.92	0.685
615.11	0.682
615.30	0.680
615.49	0.682
615.69	0.684
615.88	0.681
616.07	0.682
616.26	0.684
616.46	0.684
616.65	0.681
616.84	0.680
617.04	0.682
617.23	0.685
617.42	0.686
617.61	0.689
617.81	0.690
618.00	0.692
618.19	0.691
618.38	0.695
618.58	0.699
618.77	0.700
618.96	0.699
619.15	0.701
619.35	0.703
619.54	0.704
619.73	0.700
619.92	0.701
620.12	0.705
620.31	0.705
620.50	0.699
620.69	0.699
620.89	0.703
621.08	0.703
621.27	0.703
621.46	0.702
621.66	0.705
621.85	0.705
622.04	0.702
622.23	0.703
622.43	0.704
622.62	0.704
622.81	0.704
623.00	0.703
623.19	0.707
623.39	0.706
623.58	0.704
623.77	0.702
623.96	0.704
624.16	0.704
624.35	0.699
624.54	0.702
624.73	0.705
624.92	0.702
625.12	0.700
625.31	0.700
625.50	0.703
625.69	0.704
625.88	0.700
626.08	0.700
626.27	0.701
626.46	0.701
626.65	0.697
626.84	0.697
627.04	0.701
627.23	0.701
627.42	0.697
627.61	0.699
627.80	0.702
628.00	0.701
628.19	0.699
628.38	0.702
628.57	0.705
628.76	0.705
628.96	0.703
629.15	0.704
629.34	0.707
629.53	0.708
629.72	0.702
629.91	0.703
630.11	0.707
630.30	0.707
630.49	0.711
630.68	0.711
630.87	0.714
631.06	0.716
631.26	0.711
631.45	0.712
631.64	0.719
631.83	0.722
632.02	0.719
632.21	0.719
632.41	0.725
632.60	0.720
632.79	0.718
632.98	0.719
633.17	0.720
633.36	0.722
633.55	0.718
633.75	0.715
633.94	0.717
634.13	0.717
634.32	0.715
634.51	0.709
634.70	0.711
634.89	0.711
635.09	0.707
635.28	0.708
635.47	0.708
635.66	0.712
635.85	0.707
636.04	0.708
636.23	0.712
636.43	0.713
636.62	0.713
636.81	0.712
637.00	0.714
637.19	0.718
637.38	0.715
637.57	0.714
637.76	0.715
637.95	0.716
638.15	0.713
638.34	0.710
638.53	0.712
638.72	0.714
638.91	0.711
639.10	0.709
639.29	0.709
639.48	0.710
639.67	0.710
639.87	0.709
640.06	0.714
640.25	0.714
640.44	0.714
640.63	0.714
640.82	0.715
641.01	0.716
641.20	0.716
641.39	0.717
641.58	0.719
641.78	0.717
641.97	0.714
642.16	0.728
642.35	0.729
642.54	0.728
642.73	0.723
642.92	0.722
643.11	0.725
643.30	0.726
643.49	0.720
643.68	0.722
643.87	0.724
644.06	0.724
644.25	0.704
644.45	0.706
644.64	0.707
644.83	0.708
645.02	0.704
645.21	0.704
645.40	0.704
645.59	0.704
645.78	0.699
645.97	0.701
646.16	0.702
646.35	0.703
646.54	0.701
646.73	0.703
646.92	0.704
647.11	0.704
647.30	0.701
647.49	0.703
647.68	0.703
647.88	0.702
648.07	0.695
648.26	0.698
648.45	0.699
648.64	0.695
648.83	0.693
649.02	0.695
649.21	0.704
649.40	0.703
649.59	0.698
649.78	0.699
649.97	0.713
650.16	0.713
650.35	0.706
650.54	0.709
650.73	0.717
650.92	0.714
651.11	0.706
651.30	0.704
651.49	0.709
651.68	0.709
651.87	0.707
652.06	0.696
652.25	0.698
652.44	0.703
652.63	0.702
652.82	0.703
653.01	0.704
653.20	0.703
653.39	0.692
653.58	0.690
653.77	0.689
653.96	0.685
654.15	0.677
654.34	0.675
654.53	0.670
654.72	0.663
654.91	0.653
655.10	0.648
655.29	0.646
655.48	0.644
655.67	0.638
655.86	0.635
656.05	0.633
656.24	0.633
656.43	0.628
656.62	0.627
656.81	0.626
657.00	0.624
657.19	0.621
657.38	0.620
657.57	0.619
657.76	0.621
657.95	0.619
658.14	0.622
658.33	0.624
658.51	0.628
658.70	0.628
658.89	0.629
659.08	0.639
659.27	0.647
659.46	0.646
659.65	0.653
659.84	0.656
660.03	0.660
660.22	0.660
660.41	0.665
660.60	0.664
660.79	0.667
660.98	0.673
661.17	0.672
661.36	0.671
661.55	0.673
661.74	0.670
661.92	0.673
662.11	0.675
662.30	0.674
662.49	0.667
662.68	0.667
662.87	0.670
663.06	0.664
663.25	0.665
663.44	0.665
663.63	0.666
663.82	0.665
664.01	0.660
664.20	0.659
664.38	0.661
664.57	0.662
664.76	0.660
664.95	0.661
665.14	0.665
665.33	0.661
665.52	0.668
665.71	0.671
665.90	0.670
666.09	0.673
666.28	0.671
666.46	0.671
666.65	0.672
666.84	0.670
667.03	0.664
667.22	0.662
667.41	0.664
667.60	0.654
667.79	0.647
667.98	0.649
668.16	0.649
668.35	0.649
668.54	0.644
668.73	0.644
668.92	0.646
669.11	0.646
669.30	0.640
669.49	0.636
669.67	0.638
669.86	0.640
670.05	0.638
670.24	0.636
670.43	0.633
670.62	0.632
670.81	0.628
671.00	0.629
671.18	0.629
671.37	0.628
671.56	0.627
671.75	0.625
671.94	0.623
672.13	0.621
672.32	0.616
672.50	0.615
672.69	0.615
672.88	0.615
673.07	0.610
673.26	0.612
673.45	0.613
673.63	0.613
673.82	0.610
674.01	0.611
674.20	0.610
674.39	0.610
674.58	0.610
674.76	0.610
674.95	0.609
675.14	0.609
675.33	0.605
675.52	0.603
675.71	0.603
675.89	0.602
676.08	0.598
676.27	0.598
676.46	0.600
676.65	0.599
676.84	0.599
677.02	0.600
677.21	0.603
677.40	0.602
677.59	0.600
677.78	0.601
677.96	0.603
678.15	0.602
678.34	0.601
678.53	0.602
678.72	0.601
678.90	0.598
679.09	0.594
679.28	0.590
679.47	0.590
679.66	0.589
679.84	0.586
680.03	0.583
680.22	0.581
680.41	0.583
680.60	0.579
680.78	0.578
680.97	0.580
681.16	0.581
681.35	0.580
681.53	0.578
681.72	0.579
681.91	0.581
682.10	0.580
682.29	0.583
682.47	0.581
682.66	0.581
682.85	0.579
683.04	0.578
683.22	0.578
683.41	0.580
683.60	0.579
683.79	0.580
683.97	0.580
684.16	0.579
684.35	0.575
684.54	0.576
684.72	0.576
684.91	0.576
685.10	0.573
685.29	0.574
685.47	0.571
685.66	0.570
685.85	0.567
686.04	0.565
686.22	0.567
686.41	0.569
686.60	0.567
686.79	0.570
686.97	0.571
687.16	0.573
687.35	0.571
687.54	0.574
687.72	0.577
687.91	0.577
688.10	0.579
688.29	0.579
688.47	0.577
688.66	0.577
688.85	0.573
689.03	0.570
689.22	0.575
689.41	0.575
689.60	0.571
689.78	0.569
689.97	0.570
690.16	0.567
690.34	0.563
690.53	0.563
690.72	0.563
690.91	0.561
691.09	0.559
691.28	0.553
691.47	0.551
691.65	0.550
691.84	0.547
692.03	0.546
692.21	0.544
692.40	0.543
692.59	0.541
692.77	0.540
692.96	0.541
693.15	0.542
693.34	0.539
693.52	0.539
693.71	0.539
693.90	0.542
694.08	0.542
694.27	0.543
694.46	0.552
694.64	0.553
694.83	0.553
695.02	0.551
695.20	0.551
695.39	0.551
695.58	0.551
695.76	0.552
695.95	0.550
696.14	0.550
696.32	0.547
696.51	0.538
696.70	0.538
696.88	0.538
697.07	0.537
697.26	0.538
697.44	0.540
697.63	0.539
697.81	0.537
698.00	0.537
698.19	0.536
698.37	0.535
698.56	0.536
698.75	0.535
698.93	0.535
699.12	0.535
699.31	0.534
699.49	0.533
699.68	0.534
699.87	0.536
700.05	0.536
700.24	0.535
700.42	0.537
700.61	0.536
700.80	0.534
700.98	0.535
701.17	0.536
701.36	0.535
701.54	0.534
701.73	0.535
701.91	0.532
702.10	0.532
702.29	0.530
702.47	0.529
702.66	0.531
702.84	0.532
703.03	0.531
703.22	0.532
703.40	0.532
703.59	0.533
703.77	0.533
703.96	0.533
704.15	0.534
704.33	0.534
704.52	0.533
704.70	0.532
704.89	0.532
705.08	0.530
705.26	0.526
705.45	0.526
705.63	0.526
705.82	0.523
706.00	0.522
706.19	0.521
706.38	0.521
706.56	0.520
706.75	0.519
706.93	0.517
707.12	0.519
707.30	0.519
707.49	0.516
707.68	0.514
707.86	0.513
708.05	0.513
708.23	0.511
708.42	0.511
708.60	0.514
708.79	0.514
708.98	0.512
709.16	0.511
709.35	0.514
709.53	0.518
709.72	0.517
709.90	0.519
710.09	0.521
710.27	0.523
710.46	0.526
710.64	0.524
710.83	0.526
711.02	0.528
711.20	0.527
711.39	0.525
711.57	0.522
711.76	0.524
711.94	0.522
712.13	0.522
712.31	0.522
712.50	0.518
712.68	0.515
712.87	0.516
713.05	0.516
713.24	0.517
713.42	0.516
713.61	0.517
713.79	0.518
713.98	0.518
714.16	0.518
714.35	0.518
714.54	0.519
714.72	0.520
714.91	0.518
715.09	0.524
715.28	0.527
715.46	0.527
715.65	0.524
715.83	0.524
716.02	0.526
716.20	0.522
716.39	0.522
716.57	0.522
716.76	0.524
716.94	0.524
717.12	0.516
717.31	0.517
717.49	0.521
717.68	0.523
717.86	0.522
718.05	0.524
718.23	0.527
718.42	0.529
718.60	0.530
718.79	0.539
718.97	0.541
719.16	0.541
719.34	0.539
719.53	0.538
719.71	0.537
719.90	0.538
720.08	0.535
720.27	0.536
720.45	0.536
720.63	0.534
720.82	0.528
721.00	0.530
721.19	0.533
721.37	0.532
721.56	0.533
721.74	0.536
721.93	0.545
722.11	0.552
722.30	0.552
722.48	0.556
722.66	0.557
722.85	0.557
723.03	0.557
723.22	0.556
723.40	0.559
723.59	0.559
723.77	0.562
723.95	0.555
724.14	0.556
724.32	0.557
724.51	0.557
724.69	0.558
724.88	0.558
725.06	0.556
725.24	0.557
725.43	0.558
725.61	0.559
725.80	0.554
725.98	0.553
726.16	0.549
726.35	0.555
726.53	0.553
726.72	0.553
726.90	0.562
727.09	0.563
727.27	0.569
727.45	0.567
727.64	0.576
727.82	0.585
728.01	0.588
728.19	0.587
728.37	0.593
728.56	0.597
728.74	0.604
728.92	0.592
729.11	0.594
729.29	0.592
729.48	0.596
729.66	0.587
729.84	0.586
730.03	0.589
730.21	0.589
730.40	0.579
730.58	0.580
730.76	0.578
730.95	0.581
731.13	0.582
731.31	0.595
731.50	0.602
731.68	0.605
731.86	0.601
732.05	0.615
732.23	0.620
732.42	0.623
732.60	0.628
732.78	0.634
732.97	0.652
733.15	0.657
733.33	0.645
733.52	0.652
733.70	0.661
733.88	0.670
734.07	0.657
734.25	0.683
734.43	0.692
734.62	0.696
734.80	0.691
734.98	0.681
735.17	0.688
735.35	0.696
735.53	0.685
735.72	0.689
735.90	0.713
736.08	0.732
736.27	0.709
736.45	0.716
736.63	0.726
736.82	0.735
737.00	0.735
737.18	0.745
737.37	0.772
737.55	0.795
737.73	0.791
737.92	0.788
738.10	0.785
738.28	0.803
738.46	0.791
738.65	0.805
738.83	0.824
739.01	0.878
739.20	0.869
739.38	0.853
739.56	0.843
739.75	0.847
739.93	0.816
740.11	0.838
740.29	0.834
740.48	0.840
740.66	0.819
740.84	0.813
741.03	0.775
741.21	0.788
741.39	0.771
741.57	0.784
741.76	0.797
741.94	0.803
742.12	0.772
742.31	0.779
742.49	0.797
742.67	0.820
742.85	0.834
743.04	0.841
743.22	0.846
743.40	0.896
743.58	0.879
743.77	0.895
743.95	0.925
744.13	0.974
744.31	0.960
744.50	0.956
744.68	0.949
744.86	0.927
745.04	0.939
745.23	0.996
745.41	0.981
745.59	0.984
745.77	0.953
745.96	0.942
746.14	0.946
746.32	0.943
746.50	0.930
746.69	0.916
746.87	0.925
747.05	0.907
747.23	0.840
747.42	0.824
747.60	0.849
747.78	0.853
747.96	0.883
748.14	0.841
748.33	0.864
748.51	0.859
748.69	0.853
748.87	0.876
749.06	0.874
749.24	0.871
749.42	0.858
749.60	0.837
749.78	0.846
749.97	0.802
750.15	0.800
750.33	0.805
750.51	0.827
750.69	0.830
750.88	0.837
751.06	0.845
751.24	0.874
751.42	0.865
751.60	0.863
751.79	0.926
751.97	0.970
752.15	0.966
752.33	0.933
752.51	0.993
752.69	1.009
752.88	0.977
753.06	1.018
753.24	0.994
753.42	1.029
753.60	1.179
753.78	1.049
753.97	1.064
754.15	1.085
754.33	1.109
754.51	0.997
754.69	0.986
754.87	1.014
755.06	0.951
755.24	0.955
755.42	0.968
755.60	0.873
755.78	0.881
755.96	0.831
756.15	0.826
756.33	0.831
756.51	0.851
756.69	0.836
756.87	0.803
757.05	0.817
757.23	0.801
757.42	0.768
757.60	0.768
757.78	0.759
757.96	0.758
758.14	0.745
758.32	0.728
758.50	0.738
758.69	0.738
758.87	0.733
759.05	0.738
759.23	0.745
759.41	0.746
759.59	0.737
759.77	0.759
759.95	0.784
760.13	0.832
760.32	0.835
760.50	0.828
760.68	0.849
760.86	0.851
761.04	0.826
761.22	0.832
761.40	0.876
761.58	0.880
761.76	0.850
761.95	0.832
762.13	0.787
762.31	0.788
762.49	0.762
762.67	0.779
762.85	0.786
763.03	0.782
763.21	0.767
763.39	0.750
763.57	0.752
763.75	0.750
763.94	0.737
764.12	0.739
764.30	0.761
764.48	0.765
764.66	0.732
764.84	0.732
765.02	0.765
765.20	0.770
765.38	0.753
765.56	0.760
765.74	0.796
765.92	0.796
766.10	0.803
766.28	0.799
766.46	0.822
766.65	0.822
766.83	0.813
767.01	0.798
767.19	0.802
767.37	0.800
767.55	0.787
767.73	0.765
767.91	0.766
768.09	0.757
768.27	0.745
768.45	0.735
768.63	0.742
768.81	0.741
768.99	0.717
769.17	0.742
769.35	0.755
769.53	0.755
769.71	0.741
769.89	0.751
770.07	0.750
770.25	0.734
770.43	0.715
770.61	0.736
770.79	0.740
770.97	0.749
771.15	0.717
771.33	0.720
771.51	0.721
771.69	0.731
771.87	0.739
772.05	0.747
772.24	0.752
772.42	0.761
772.60	0.740
772.78	0.794
772.96	0.818
773.14	0.817
773.32	0.799
773.49	0.804
773.67	0.802
773.85	0.783
774.03	0.775
774.21	0.804
774.39	0.817
774.57	0.840
774.75	0.773
774.93	0.768
775.11	0.787
775.29	0.794
775.47	0.793
775.65	0.800
775.83	0.816
776.01	0.836
776.19	0.795
776.37	0.795
776.55	0.793
776.73	0.791
776.91	0.787
777.09	0.772
777.27	0.769
777.45	0.760
777.63	0.739
777.81	0.736
777.99	0.723
778.17	0.721
778.35	0.700
778.53	0.689
778.71	0.694
778.89	0.682
779.07	0.674
779.24	0.676
779.42	0.677
779.60	0.691
779.78	0.686
779.96	0.690
780.14	0.697
780.32	0.714
780.50	0.700
780.68	0.699
780.86	0.694
781.04	0.708
781.22	0.713
781.40	0.723
781.58	0.716
781.75	0.710
781.93	0.696
782.11	0.695
782.29	0.683
782.47	0.682
782.65	0.671
782.83	0.694
783.01	0.686
783.19	0.679
783.37	0.666
783.55	0.670
783.72	0.688
783.90	0.696
784.08	0.692
784.26	0.704
784.44	0.723
784.62	0.727
784.80	0.699
784.98	0.706
785.16	0.711
785.33	0.726
785.51	0.712
785.69	0.699
785.87	0.699
786.05	0.710
786.23	0.706
786.41	0.703
786.59	0.709
786.77	0.709
786.94	0.698
787.12	0.702
787.30	0.702
787.48	0.701
787.66	0.691
787.84	0.690
788.02	0.679
788.19	0.676
788.37	0.662
788.55	0.663
788.73	0.663
788.91	0.656
789.09	0.641
789.27	0.631
789.44	0.641
789.62	0.644
789.80	0.652
789.98	0.675
790.16	0.662
790.34	0.660
790.51	0.649
790.69	0.666
790.87	0.672
791.05	0.672
791.23	0.667
791.41	0.667
791.58	0.675
791.76	0.656
791.94	0.631
792.12	0.640
792.30	0.641
792.48	0.638
792.65	0.632
792.83	0.637
793.01	0.643
793.19	0.641
793.37	0.627
793.54	0.624
793.72	0.635
793.90	0.631
794.08	0.622
794.26	0.623
794.43	0.632
794.61	0.615
794.79	0.603
794.97	0.601
795.15	0.605
795.32	0.610
795.50	0.599
795.68	0.593
795.86	0.596
796.04	0.597
796.21	0.592
796.39	0.590
796.57	0.604
796.75	0.613
796.92	0.615
797.10	0.620
797.28	0.621
797.46	0.625
797.64	0.626
797.81	0.635
797.99	0.639
798.17	0.644
798.35	0.638
798.52	0.641
798.70	0.636
798.88	0.646
799.06	0.646
799.23	0.648
799.41	0.654
799.59	0.648
799.77	0.638
799.94	0.646
800.12	0.655
800.30	0.671
800.48	0.671
800.65	0.671
800.83	0.660
801.01	0.655
801.19	0.653
801.36	0.651
801.54	0.653
801.72	0.662
801.90	0.650
802.07	0.645
802.25	0.631
802.43	0.616
802.60	0.613
802.78	0.620
802.96	0.622
803.14	0.618
803.31	0.617
803.49	0.618
803.67	0.613
803.84	0.616
804.02	0.609
804.20	0.612
804.38	0.617
804.55	0.616
804.73	0.602
804.91	0.602
805.08	0.612
805.26	0.608
805.44	0.671
805.61	0.675
805.79	0.676
805.97	0.676
806.15	0.668
806.32	0.663
806.50	0.668
806.68	0.668
806.85	0.660
807.03	0.652
807.21	0.667
807.38	0.602
807.56	0.593
807.74	0.601
807.91	0.606
808.09	0.609
808.27	0.627
808.44	0.652
808.62	0.658
808.80	0.661
808.97	0.655
809.15	0.650
809.33	0.665
809.50	0.672
809.68	0.660
809.86	0.667
810.03	0.697
810.21	0.677
810.39	0.661
810.56	0.667
810.74	0.690
810.91	0.757
811.09	0.747
811.27	0.767
811.44	0.771
811.62	0.772
811.80	0.756
811.97	0.727
812.15	0.727
812.33	0.721
812.50	0.709
812.68	0.696
812.85	0.645
813.03	0.647
813.21	0.617
813.38	0.611
813.56	0.614
813.74	0.624
813.91	0.633
814.09	0.662
814.26	0.656
814.44	0.659
814.62	0.652
814.79	0.655
814.97	0.659
815.14	0.665
815.32	0.667
815.50	0.683
815.67	0.684
815.85	0.674
816.02	0.665
816.20	0.672
816.38	0.684
816.55	0.688
816.73	0.688
816.90	0.697
817.08	0.725
817.26	0.732
817.43	0.714
817.61	0.736
817.78	0.752
817.96	0.730
818.13	0.721
818.31	0.722
818.49	0.734
818.66	0.726
818.84	0.714
819.01	0.694
819.19	0.698
819.36	0.700
819.54	0.672
819.71	0.711
819.89	0.725
820.07	0.739
820.24	0.736
820.42	0.737
820.59	0.753
820.77	0.770
820.94	0.763
821.12	0.780
821.29	0.793
821.47	0.797
821.64	0.740
821.82	0.752
822.00	0.748
822.17	0.742
822.35	0.736
822.52	0.741
822.70	0.733
822.87	0.739
823.05	0.717
823.22	0.727
823.40	0.751
823.57	0.769
823.75	0.749
823.92	0.770
824.10	0.790
824.27	0.824
824.45	0.810
824.62	0.863
824.80	0.880
824.97	0.897
825.15	0.891
825.32	0.905
825.50	0.909
825.67	0.923
825.85	0.902
826.02	0.916
826.20	0.935
826.37	1.047
826.55	0.972
826.72	1.139
826.90	1.193
827.07	1.229
827.25	1.175
827.42	1.303
827.60	1.403
827.77	1.526
827.95	1.481
828.12	1.560
828.30	1.314
828.47	1.409
828.65	1.130
828.82	1.175
829.00	1.222
829.17	1.282
829.34	1.275
829.52	1.303
829.69	-0.000
829.87	-0.000
830.04	-0.000
830.22	-0.000
830.39	-0.000
830.57	-0.000
830.74	-0.000
830.92	-0.000
831.09	-0.000
831.26	-0.000
831.44	-0.000
831.61	-0.000
831.79	-0.000
831.96	-0.000
832.14	-0.000
832.31	-0.000
832.49	-0.000
832.66	-0.000
832.83	-0.000
833.01	-0.000
833.18	-0.000
833.36	-0.000
833.53	-0.000
833.70	-0.000
833.88	-0.000
834.05	-0.000
834.23	-0.000
834.40	-0.000
834.58	-0.000
834.75	-0.000
834.92	-0.000
835.10	-0.000
835.27	-0.000
835.45	-0.000
835.62	-0.000
835.79	-0.000
835.97	-0.000
836.14	-0.000
836.32	-0.000
836.49	-0.000
836.66	-0.000
836.84	-0.000
837.01	-0.000
837.18	-0.000
837.36	-0.000
837.53	-0.000
837.71	-0.000
837.88	-0.000
838.05	-0.000
838.23	-0.000
838.40	-0.000
838.58	-0.000
838.75	-0.000
838.92	-0.000
839.10	-0.000
839.27	-0.000
839.44	-0.000
839.62	-0.000
839.79	-0.000
839.96	-0.000
840.14	-0.000
840.31	-0.000
840.48	-0.000
840.66	-0.000
840.83	-0.000
841.01	-0.000
841.18	-0.000
841.35	-0.000
841.53	-0.000
841.70	-0.000
841.87	-0.000
842.05	-0.000
842.22	-0.000
842.39	-0.000
842.57	-0.000
842.74	-0.000
842.91	-0.000
843.09	-0.000
843.26	-0.000
843.43	-0.000
843.60	-0.000
843.78	-0.000
843.95	-0.000
844.12	-0.000
844.30	-0.000
844.47	-0.000
844.64	-0.000
844.82	-0.000
844.99	-0.000
845.16	-0.000
845.34	-0.000
845.51	-0.000
845.68	-0.000
845.85	-0.000
846.03	-0.000
846.20	-0.000
846.37	-0.000
846.55	-0.000
846.72	-0.000
846.89	-0.000
847.06	-0.000
847.24	-0.000
847.41	-0.000
847.58	-0.000
847.76	-0.000
847.93	-0.000
848.10	-0.000
848.27	-0.000
848.45	-0.000
848.62	-0.000
848.79	-0.000
848.97	-0.000
849.14	-0.000
849.31	-0.000
849.48	-0.000
849.66	-0.000
849.83	-0.000
850.00	-0.000
850.17	-0.000
850.35	-0.000
850.52	-0.000
850.69	-0.000
850.86	-0.000
851.04	-0.000
851.21	-0.000
851.38	-0.000
851.55	-0.000
851.72	-0.000
851.90	-0.000
852.07	-0.000
852.24	-0.000
852.41	-0.000
852.59	-0.000
852.76	-0.000
852.93	-0.000
853.10	-0.000
853.28	-0.000
853.45	-0.000
853.62	-0.000
853.79	-0.000
853.96	-0.000
854.14	-0.000
854.31	-0.000
854.48	-0.000
854.65	-0.000
854.82	-0.000
855.00	-0.000
855.17	-0.000
855.34	-0.000
855.51	-0.000
855.68	-0.000
855.86	-0.000
856.03	-0.000
856.20	-0.000
856.37	-0.000
856.54	-0.000
856.72	-0.000
856.89	-0.000
857.06	-0.000
857.23	-0.000
857.40	-0.000
857.57	-0.000
857.75	-0.000
857.92	-0.000
858.09	-0.000
858.26	-0.000
858.43	-0.000
858.60	-0.000
858.78	-0.000
858.95	-0.000
859.12	-0.000
859.29	-0.000
859.46	-0.000
859.63	-0.000
859.81	-0.000
859.98	-0.000
860.15	-0.000
860.32	-0.000
860.49	-0.000
860.66	-0.000
860.83	-0.000
861.01	-0.000
861.18	-0.000
861.35	-0.000
861.52	-0.000
861.69	-0.000
861.86	-0.000
862.03	-0.000
862.21	-0.000
862.38	-0.000
862.55	-0.000
862.72	-0.000
862.89	-0.000
863.06	-0.000
863.23	-0.000
863.40	-0.000
863.58	-0.000
863.75	-0.000
863.92	-0.000
864.09	-0.000
864.26	-0.000
864.43	-0.000
864.60	-0.000
864.77	-0.000
864.94	-0.000
865.11	-0.000
865.29	-0.000
865.46	-0.000
865.63	-0.000
865.80	-0.000
865.97	-0.000
866.14	-0.000
866.31	-0.000
866.48	-0.000
866.65	-0.000
866.82	-0.000
866.99	-0.000
867.16	-0.000
867.34	-0.000
867.51	-0.000
867.68	-0.000
867.85	-0.000
868.02	-0.000
868.19	-0.000
868.36	-0.000
868.53	-0.000
868.70	-0.000
868.87	-0.000
869.04	-0.000
869.21	-0.000
869.38	-0.000
869.55	-0.000
869.72	-0.000
869.89	-0.000
870.06	-0.000
870.24	-0.000
870.41	-0.000
870.58	-0.000
870.75	-0.000
870.92	-0.000
871.09	-0.000
871.26	-0.000
871.43	-0.000
871.60	-0.000
871.77	-0.000
871.94	-0.000
872.11	-0.000
872.28	-0.000
872.45	-0.000
872.62	-0.000
872.79	-0.000
872.96	-0.000
873.13	-0.000
873.30	-0.000
873.47	-0.000
873.64	-0.000
873.81	-0.000
873.98	-0.000
874.15	-0.000
874.32	-0.000
874.49	-0.000
874.66	-0.000
874.83	-0.000
875.00	-0.000
875.17	-0.000
875.34	-0.000
875.51	-0.000
875.68	-0.000
875.85	-0.000
876.02	-0.000
876.19	-0.000
876.36	-0.000
876.53	-0.000
876.70	-0.000
876.87	-0.000
877.04	-0.000
877.21	-0.000
877.38	-0.000
877.55	-0.000
877.72	-0.000
877.89	-0.000
878.06	-0.000
878.23	-0.000
878.39	-0.000
878.56	-0.000
878.73	-0.000
878.90	-0.000
879.07	-0.000
879.24	-0.000
879.41	-0.000
879.58	-0.000
879.75	-0.000
879.92	-0.000
880.09	-0.000
880.26	-0.000
880.43	-0.000
880.60	-0.000
880.77	-0.000
880.94	-0.000
881.11	-0.000
881.27	-0.000
881.44	-0.000
881.61	-0.000
881.78	-0.000
881.95	-0.000
882.12	-0.000
882.29	-0.000
882.46	-0.000
882.63	-0.000
882.80	-0.000
882.97	-0.000
883.14	-0.000
883.30	-0.000
883.47	-0.000
883.64	-0.000
883.81	-0.000
883.98	-0.000
884.15	-0.000
884.32	-0.000
884.49	-0.000
884.66	-0.000
884.82	-0.000
884.99	-0.000
885.16	-0.000
885.33	-0.000
885.50	-0.000
885.67	-0.000
885.84	-0.000
886.01	-0.000
886.17	-0.000
886.34	-0.000
886.51	-0.000
886.68	-0.000
886.85	-0.000
887.02	-0.000
887.19	-0.000
887.36	-0.000
887.52	-0.000
887.69	-0.000
887.86	-0.000
888.03	-0.000
888.20	-0.000
888.37	-0.000
888.54	-0.000
888.70	-0.000
888.87	-0.000
889.04	-0.000
889.21	-0.000
889.38	-0.000
889.55	-0.000
889.71	-0.000
889.88	-0.000
890.05	-0.000
890.22	-0.000
890.39	-0.000
>>>>>End Processed Spectral Data<<<<<
