SpectraSuite Data File
++++++++++++++++++++++++++++++++++++
Date: Fri Jun 19 12:31:08 CEST 2015
User: introlabs
Dark Spectrum Present: Yes
Reference Spectrum Present: Yes
Number of Sampled Component Spectra: 1
Spectrometers: USB4H08886
Integration Time (usec): 745692 (USB4H08886)
Spectra Averaged: 5 (USB4H08886)
Boxcar Smoothing: 5 (USB4H08886)
Correct for Electrical Dark: Yes (USB4H08886)
Strobe/Lamp Enabled: No (USB4H08886)
Correct for Detector Non-linearity: Yes (USB4H08886)
Correct for Stray Light: Yes (USB4H08886)
Number of Pixels in Processed Spectrum: 3648
>>>>>Begin Processed Spectral Data<<<<<
178.14	-0.000
178.36	-0.000
178.57	-0.000
178.79	-0.000
179.01	-0.000
179.22	-0.000
179.44	-0.000
179.65	-0.000
179.87	-0.000
180.08	-0.000
180.30	-0.000
180.52	-0.000
180.73	-0.000
180.95	-0.000
181.16	-0.000
181.38	-0.000
181.59	-0.000
181.81	-0.000
182.03	-0.000
182.24	-0.000
182.46	-0.000
182.67	-0.000
182.89	-0.000
183.10	-0.000
183.32	-0.000
183.54	-0.000
183.75	-0.000
183.97	-0.000
184.18	-0.000
184.40	-0.000
184.61	-0.000
184.83	-0.000
185.04	-0.000
185.26	-0.000
185.48	-0.000
185.69	-0.000
185.91	-0.000
186.12	-0.000
186.34	-0.000
186.55	-0.000
186.77	-0.000
186.98	-0.000
187.20	-0.000
187.42	-0.000
187.63	-0.000
187.85	-0.000
188.06	-0.000
188.28	-0.000
188.49	-0.000
188.71	-0.000
188.92	-0.000
189.14	-0.000
189.36	-0.000
189.57	-0.000
189.79	-0.000
190.00	-0.000
190.22	-0.000
190.43	-0.000
190.65	-0.000
190.86	-0.000
191.08	-0.000
191.29	-0.000
191.51	-0.000
191.72	-0.000
191.94	-0.000
192.16	-0.000
192.37	-0.000
192.59	-0.000
192.80	-0.000
193.02	-0.000
193.23	-0.000
193.45	-0.000
193.66	-0.000
193.88	-0.000
194.09	-0.000
194.31	-0.000
194.52	-0.000
194.74	-0.000
194.95	-0.000
195.17	-0.000
195.38	-0.000
195.60	-0.000
195.81	-0.000
196.03	-0.000
196.25	-0.000
196.46	-0.000
196.68	-0.000
196.89	-0.000
197.11	-0.000
197.32	-0.000
197.54	-0.000
197.75	-0.000
197.97	-0.000
198.18	-0.000
198.40	-0.000
198.61	-0.000
198.83	-0.000
199.04	-0.000
199.26	-0.000
199.47	-0.000
199.69	-0.000
199.90	-0.000
200.12	-0.000
200.33	-0.000
200.55	-0.000
200.76	-0.000
200.98	-0.000
201.19	-0.000
201.41	-0.000
201.62	-0.000
201.84	-0.000
202.05	-0.000
202.27	-0.000
202.48	-0.000
202.70	-0.000
202.91	-0.000
203.13	-0.000
203.34	-0.000
203.56	-0.000
203.77	-0.000
203.99	-0.000
204.20	-0.000
204.42	-0.000
204.63	-0.000
204.85	-0.000
205.06	-0.000
205.28	-0.000
205.49	-0.000
205.71	-0.000
205.92	-0.000
206.14	-0.000
206.35	-0.000
206.56	-0.000
206.78	-0.000
206.99	-0.000
207.21	-0.000
207.42	-0.000
207.64	-0.000
207.85	-0.000
208.07	-0.000
208.28	-0.000
208.50	-0.000
208.71	-0.000
208.93	-0.000
209.14	-0.000
209.36	-0.000
209.57	-0.000
209.79	-0.000
210.00	-0.000
210.22	-0.000
210.43	-0.000
210.64	-0.000
210.86	-0.000
211.07	-0.000
211.29	-0.000
211.50	-0.000
211.72	-0.000
211.93	-0.000
212.15	-0.000
212.36	-0.000
212.58	-0.000
212.79	-0.000
213.01	-0.000
213.22	-0.000
213.43	-0.000
213.65	-0.000
213.86	-0.000
214.08	-0.000
214.29	-0.000
214.51	-0.000
214.72	-0.000
214.94	-0.000
215.15	-0.000
215.36	-0.000
215.58	-0.000
215.79	-0.000
216.01	-0.000
216.22	-0.000
216.44	-0.000
216.65	-0.000
216.87	-0.000
217.08	-0.000
217.29	-0.000
217.51	-0.000
217.72	-0.000
217.94	-0.000
218.15	-0.000
218.37	-0.000
218.58	-0.000
218.80	-0.000
219.01	-0.000
219.22	-0.000
219.44	-0.000
219.65	-0.000
219.87	-0.000
220.08	-0.000
220.30	-0.000
220.51	-0.000
220.72	-0.000
220.94	-0.000
221.15	-0.000
221.37	-0.000
221.58	-0.000
221.79	-0.000
222.01	-0.000
222.22	-0.000
222.44	-0.000
222.65	-0.000
222.87	-0.000
223.08	-0.000
223.29	-0.000
223.51	-0.000
223.72	-0.000
223.94	-0.000
224.15	-0.000
224.36	-0.000
224.58	-0.000
224.79	-0.000
225.01	-0.000
225.22	-0.000
225.44	-0.000
225.65	-0.000
225.86	-0.000
226.08	-0.000
226.29	-0.000
226.51	-0.000
226.72	-0.000
226.93	-0.000
227.15	-0.000
227.36	-0.000
227.58	-0.000
227.79	-0.000
228.00	-0.000
228.22	-0.000
228.43	-0.000
228.65	-0.000
228.86	-0.000
229.07	-0.000
229.29	-0.000
229.50	-0.000
229.72	-0.000
229.93	-0.000
230.14	-0.000
230.36	-0.000
230.57	-0.000
230.78	-0.000
231.00	-0.000
231.21	-0.000
231.43	-0.000
231.64	-0.000
231.85	-0.000
232.07	-0.000
232.28	-0.000
232.50	-0.000
232.71	-0.000
232.92	-0.000
233.14	-0.000
233.35	-0.000
233.56	-0.000
233.78	-0.000
233.99	-0.000
234.21	-0.000
234.42	-0.000
234.63	-0.000
234.85	-0.000
235.06	-0.000
235.27	-0.000
235.49	-0.000
235.70	-0.000
235.91	-0.000
236.13	-0.000
236.34	-0.000
236.56	-0.000
236.77	-0.000
236.98	-0.000
237.20	-0.000
237.41	-0.000
237.62	-0.000
237.84	-0.000
238.05	-0.000
238.26	-0.000
238.48	-0.000
238.69	-0.000
238.91	-0.000
239.12	-0.000
239.33	-0.000
239.55	-0.000
239.76	-0.000
239.97	-0.000
240.19	-0.000
240.40	-0.000
240.61	-0.000
240.83	-0.000
241.04	-0.000
241.25	-0.000
241.47	-0.000
241.68	-0.000
241.89	-0.000
242.11	-0.000
242.32	-0.000
242.53	-0.000
242.75	-0.000
242.96	-0.000
243.17	-0.000
243.39	-0.000
243.60	-0.000
243.81	-0.000
244.03	-0.000
244.24	-0.000
244.45	-0.000
244.67	-0.000
244.88	-0.000
245.09	-0.000
245.31	-0.000
245.52	-0.000
245.73	-0.000
245.95	-0.000
246.16	-0.000
246.37	-0.000
246.59	-0.000
246.80	-0.000
247.01	-0.000
247.23	-0.000
247.44	-0.000
247.65	-0.000
247.87	-0.000
248.08	-0.000
248.29	-0.000
248.51	-0.000
248.72	-0.000
248.93	-0.000
249.15	-0.000
249.36	-0.000
249.57	-0.000
249.78	-0.000
250.00	-0.000
250.21	-0.000
250.42	-0.000
250.64	-0.000
250.85	-0.000
251.06	-0.000
251.28	-0.000
251.49	-0.000
251.70	-0.000
251.92	-0.000
252.13	-0.000
252.34	-0.000
252.55	-0.000
252.77	-0.000
252.98	-0.000
253.19	-0.000
253.41	-0.000
253.62	-0.000
253.83	-0.000
254.05	-0.000
254.26	-0.000
254.47	-0.000
254.68	-0.000
254.90	-0.000
255.11	-0.000
255.32	-0.000
255.54	-0.000
255.75	-0.000
255.96	-0.000
256.17	-0.000
256.39	-0.000
256.60	-0.000
256.81	-0.000
257.03	-0.000
257.24	-0.000
257.45	-0.000
257.66	-0.000
257.88	-0.000
258.09	-0.000
258.30	-0.000
258.51	-0.000
258.73	-0.000
258.94	-0.000
259.15	-0.000
259.37	-0.000
259.58	-0.000
259.79	-0.000
260.00	-0.000
260.22	-0.000
260.43	-0.000
260.64	-0.000
260.85	-0.000
261.07	-0.000
261.28	-0.000
261.49	-0.000
261.71	-0.000
261.92	-0.000
262.13	-0.000
262.34	-0.000
262.56	-0.000
262.77	-0.000
262.98	-0.000
263.19	-0.000
263.41	-0.000
263.62	-0.000
263.83	-0.000
264.04	-0.000
264.26	-0.000
264.47	-0.000
264.68	-0.000
264.89	-0.000
265.11	-0.000
265.32	-0.000
265.53	-0.000
265.74	-0.000
265.96	-0.000
266.17	-0.000
266.38	-0.000
266.59	-0.000
266.81	-0.000
267.02	-0.000
267.23	-0.000
267.44	-0.000
267.65	-0.000
267.87	-0.000
268.08	-0.000
268.29	-0.000
268.50	-0.000
268.72	-0.000
268.93	-0.000
269.14	-0.000
269.35	-0.000
269.57	-0.000
269.78	-0.000
269.99	-0.000
270.20	-0.000
270.41	-0.000
270.63	-0.000
270.84	-0.000
271.05	-0.000
271.26	-0.000
271.48	-0.000
271.69	-0.000
271.90	-0.000
272.11	-0.000
272.32	-0.000
272.54	-0.000
272.75	-0.000
272.96	-0.000
273.17	-0.000
273.39	-0.000
273.60	-0.000
273.81	-0.000
274.02	-0.000
274.23	-0.000
274.45	-0.000
274.66	-0.000
274.87	-0.000
275.08	-0.000
275.29	-0.000
275.51	-0.000
275.72	-0.000
275.93	-0.000
276.14	-0.000
276.35	-0.000
276.57	-0.000
276.78	-0.000
276.99	-0.000
277.20	-0.000
277.41	-0.000
277.63	-0.000
277.84	-0.000
278.05	-0.000
278.26	-0.000
278.47	-0.000
278.69	-0.000
278.90	-0.000
279.11	-0.000
279.32	-0.000
279.53	-0.000
279.74	-0.000
279.96	-0.000
280.17	-0.000
280.38	-0.000
280.59	-0.000
280.80	-0.000
281.02	-0.000
281.23	-0.000
281.44	-0.000
281.65	-0.000
281.86	-0.000
282.07	-0.000
282.29	-0.000
282.50	-0.000
282.71	-0.000
282.92	-0.000
283.13	-0.000
283.35	-0.000
283.56	-0.000
283.77	-0.000
283.98	-0.000
284.19	-0.000
284.40	-0.000
284.62	-0.000
284.83	-0.000
285.04	-0.000
285.25	-0.000
285.46	-0.000
285.67	-0.000
285.88	-0.000
286.10	-0.000
286.31	-0.000
286.52	-0.000
286.73	-0.000
286.94	-0.000
287.15	-0.000
287.37	-0.000
287.58	-0.000
287.79	-0.000
288.00	-0.000
288.21	-0.000
288.42	-0.000
288.63	-0.000
288.85	-0.000
289.06	-0.000
289.27	-0.000
289.48	-0.000
289.69	-0.000
289.90	-0.000
290.11	-0.000
290.33	-0.000
290.54	-0.000
290.75	-0.000
290.96	-0.000
291.17	-0.000
291.38	-0.000
291.59	-0.000
291.81	-0.000
292.02	-0.000
292.23	-0.000
292.44	-0.000
292.65	2.437
292.86	-0.000
293.07	-0.000
293.28	2.093
293.50	2.290
293.71	-0.000
293.92	2.748
294.13	-0.000
294.34	-0.000
294.55	-0.000
294.76	-0.000
294.97	2.354
295.19	2.757
295.40	-0.000
295.61	-0.000
295.82	2.154
296.03	1.925
296.24	2.033
296.45	1.693
296.66	1.506
296.87	1.523
297.09	1.575
297.30	1.676
297.51	1.478
297.72	1.443
297.93	1.512
298.14	1.489
298.35	1.444
298.56	1.422
298.77	1.501
298.99	1.481
299.20	1.446
299.41	1.436
299.62	1.419
299.83	1.415
300.04	1.368
300.25	1.357
300.46	1.391
300.67	1.375
300.88	1.335
301.10	1.331
301.31	1.388
301.52	1.346
301.73	1.300
301.94	1.297
302.15	1.313
302.36	1.282
302.57	1.231
302.78	1.237
302.99	1.271
303.20	1.281
303.41	1.220
303.63	1.208
303.84	1.215
304.05	1.212
304.26	1.166
304.47	1.169
304.68	1.175
304.89	1.169
305.10	1.134
305.31	1.125
305.52	1.159
305.73	1.153
305.94	1.119
306.15	1.115
306.37	1.135
306.58	1.141
306.79	1.114
307.00	1.130
307.21	1.162
307.42	1.156
307.63	1.126
307.84	1.100
308.05	1.133
308.26	1.132
308.47	1.110
308.68	1.107
308.89	1.108
309.10	1.105
309.31	1.071
309.52	1.067
309.73	1.079
309.95	1.073
310.16	1.051
310.37	1.041
310.58	1.058
310.79	1.059
311.00	1.052
311.21	1.056
311.42	1.059
311.63	1.055
311.84	1.037
312.05	1.036
312.26	1.057
312.47	1.064
312.68	1.042
312.89	1.029
313.10	1.036
313.31	1.015
313.52	1.013
313.73	1.014
313.94	1.020
314.15	1.005
314.36	0.988
314.57	0.981
314.78	0.973
314.99	0.968
315.21	0.957
315.42	0.959
315.63	0.972
315.84	0.954
316.05	0.941
316.26	0.948
316.47	0.964
316.68	0.961
316.89	0.944
317.10	0.961
317.31	0.968
317.52	0.969
317.73	0.950
317.94	0.948
318.15	0.985
318.36	0.983
318.57	0.966
318.78	0.957
318.99	0.988
319.20	0.984
319.41	0.955
319.62	0.956
319.83	0.966
320.04	0.964
320.25	0.951
320.46	0.923
320.67	0.929
320.88	0.925
321.09	0.913
321.30	0.900
321.51	0.915
321.72	0.913
321.93	0.897
322.14	0.893
322.35	0.916
322.56	0.918
322.77	0.906
322.98	0.915
323.19	0.924
323.40	0.928
323.61	0.909
323.82	0.903
324.03	0.908
324.24	0.907
324.45	0.895
324.66	0.879
324.87	0.878
325.08	0.877
325.29	0.859
325.50	0.852
325.71	0.858
325.92	0.865
326.13	0.853
326.34	0.853
326.55	0.861
326.76	0.860
326.97	0.849
327.18	0.845
327.39	0.869
327.60	0.870
327.80	0.868
328.01	0.868
328.22	0.869
328.43	0.873
328.64	0.863
328.85	0.867
329.06	0.870
329.27	0.869
329.48	0.864
329.69	0.848
329.90	0.858
330.11	0.852
330.32	0.845
330.53	0.839
330.74	0.841
330.95	0.839
331.16	0.825
331.37	0.830
331.58	0.832
331.79	0.831
332.00	0.822
332.21	0.816
332.42	0.822
332.63	0.815
332.83	0.809
333.04	0.811
333.25	0.822
333.46	0.821
333.67	0.809
333.88	0.812
334.09	0.822
334.30	0.819
334.51	0.810
334.72	0.806
334.93	0.808
335.14	0.807
335.35	0.801
335.56	0.797
335.77	0.806
335.98	0.805
336.18	0.797
336.39	0.792
336.60	0.796
336.81	0.794
337.02	0.793
337.23	0.797
337.44	0.801
337.65	0.801
337.86	0.791
338.07	0.787
338.28	0.792
338.49	0.789
338.70	0.782
338.91	0.789
339.11	0.796
339.32	0.792
339.53	0.781
339.74	0.778
339.95	0.777
340.16	0.775
340.37	0.767
340.58	0.766
340.79	0.771
341.00	0.771
341.21	0.761
341.41	0.762
341.62	0.763
341.83	0.765
342.04	0.760
342.25	0.769
342.46	0.774
342.67	0.774
342.88	0.766
343.09	0.766
343.30	0.773
343.50	0.776
343.71	0.767
343.92	0.767
344.13	0.772
344.34	0.771
344.55	0.756
344.76	0.756
344.97	0.761
345.18	0.761
345.38	0.756
345.59	0.751
345.80	0.752
346.01	0.750
346.22	0.745
346.43	0.741
346.64	0.749
346.85	0.748
347.06	0.741
347.26	0.742
347.47	0.747
347.68	0.744
347.89	0.740
348.10	0.735
348.31	0.743
348.52	0.742
348.73	0.739
348.93	0.736
349.14	0.739
349.35	0.738
349.56	0.732
349.77	0.726
349.98	0.732
350.19	0.730
350.39	0.725
350.60	0.720
350.81	0.736
351.02	0.735
351.23	0.730
351.44	0.733
351.65	0.736
351.86	0.734
352.06	0.733
352.27	0.734
352.48	0.736
352.69	0.736
352.90	0.731
353.11	0.719
353.31	0.726
353.52	0.722
353.73	0.715
353.94	0.716
354.15	0.722
354.36	0.723
354.57	0.714
354.77	0.716
354.98	0.716
355.19	0.716
355.40	0.716
355.61	0.721
355.82	0.726
356.02	0.726
356.23	0.719
356.44	0.721
356.65	0.725
356.86	0.726
357.07	0.720
357.27	0.725
357.48	0.727
357.69	0.723
357.90	0.708
358.11	0.706
358.32	0.711
358.52	0.713
358.73	0.703
358.94	0.705
359.15	0.711
359.36	0.711
359.56	0.705
359.77	0.703
359.98	0.710
360.19	0.710
360.40	0.705
360.61	0.705
360.81	0.706
361.02	0.706
361.23	0.698
361.44	0.697
361.65	0.699
361.85	0.699
362.06	0.697
362.27	0.698
362.48	0.700
362.69	0.702
362.89	0.696
363.10	0.697
363.31	0.702
363.52	0.705
363.73	0.701
363.93	0.701
364.14	0.704
364.35	0.705
364.56	0.696
364.77	0.698
364.97	0.701
365.18	0.702
365.39	0.697
365.60	0.694
365.81	0.695
366.01	0.694
366.22	0.691
366.43	0.690
366.64	0.692
366.84	0.698
367.05	0.693
367.26	0.693
367.47	0.695
367.68	0.695
367.88	0.692
368.09	0.691
368.30	0.694
368.51	0.695
368.71	0.694
368.92	0.698
369.13	0.697
369.34	0.697
369.55	0.695
369.75	0.695
369.96	0.702
370.17	0.702
370.38	0.698
370.58	0.697
370.79	0.702
371.00	0.700
371.21	0.691
371.41	0.696
371.62	0.701
371.83	0.697
372.04	0.695
372.24	0.687
372.45	0.690
372.66	0.690
372.87	0.686
373.07	0.684
373.28	0.686
373.49	0.689
373.70	0.679
373.90	0.679
374.11	0.689
374.32	0.688
374.53	0.687
374.73	0.687
374.94	0.691
375.15	0.690
375.36	0.687
375.56	0.695
375.77	0.696
375.98	0.696
376.19	0.693
376.39	0.687
376.60	0.691
376.81	0.691
377.02	0.688
377.22	0.687
377.43	0.688
377.64	0.687
377.84	0.678
378.05	0.682
378.26	0.689
378.47	0.688
378.67	0.683
378.88	0.680
379.09	0.682
379.30	0.682
379.50	0.679
379.71	0.681
379.92	0.685
380.12	0.685
380.33	0.676
380.54	0.672
380.75	0.679
380.95	0.680
381.16	0.677
381.37	0.678
381.57	0.680
381.78	0.681
381.99	0.679
382.20	0.679
382.40	0.682
382.61	0.682
382.82	0.678
383.02	0.672
383.23	0.675
383.44	0.675
383.64	0.672
383.85	0.674
384.06	0.677
384.27	0.675
384.47	0.672
384.68	0.672
384.89	0.678
385.09	0.678
385.30	0.677
385.51	0.676
385.71	0.680
385.92	0.680
386.13	0.678
386.33	0.680
386.54	0.681
386.75	0.680
386.95	0.675
387.16	0.671
387.37	0.674
387.58	0.674
387.78	0.672
387.99	0.670
388.20	0.673
388.40	0.670
388.61	0.666
388.82	0.668
389.02	0.672
389.23	0.673
389.44	0.670
389.64	0.670
389.85	0.681
390.06	0.681
390.26	0.681
390.47	0.680
390.68	0.681
390.88	0.679
391.09	0.676
391.30	0.674
391.50	0.674
391.71	0.673
391.92	0.671
392.12	0.663
392.33	0.664
392.53	0.663
392.74	0.662
392.95	0.663
393.15	0.666
393.36	0.667
393.57	0.665
393.77	0.668
393.98	0.670
394.19	0.669
394.39	0.668
394.60	0.670
394.81	0.672
395.01	0.670
395.22	0.667
395.43	0.668
395.63	0.672
395.84	0.673
396.04	0.668
396.25	0.670
396.46	0.672
396.66	0.670
396.87	0.666
397.08	0.664
397.28	0.666
397.49	0.667
397.69	0.663
397.90	0.658
398.11	0.660
398.31	0.661
398.52	0.657
398.73	0.658
398.93	0.658
399.14	0.657
399.34	0.654
399.55	0.656
399.76	0.656
399.96	0.657
400.17	0.654
400.37	0.653
400.58	0.659
400.79	0.661
400.99	0.659
401.20	0.664
401.41	0.667
401.61	0.668
401.82	0.672
402.02	0.672
402.23	0.673
402.44	0.672
402.64	0.672
402.85	0.666
403.05	0.665
403.26	0.664
403.47	0.657
403.67	0.656
403.88	0.658
404.08	0.652
404.29	0.650
404.50	0.650
404.70	0.651
404.91	0.650
405.11	0.646
405.32	0.646
405.52	0.647
405.73	0.647
405.94	0.645
406.14	0.646
406.35	0.649
406.55	0.648
406.76	0.645
406.97	0.646
407.17	0.648
407.38	0.648
407.58	0.645
407.79	0.648
407.99	0.651
408.20	0.651
408.41	0.647
408.61	0.645
408.82	0.647
409.02	0.647
409.23	0.644
409.43	0.643
409.64	0.645
409.84	0.644
410.05	0.640
410.26	0.639
410.46	0.638
410.67	0.637
410.87	0.638
411.08	0.640
411.28	0.641
411.49	0.643
411.69	0.641
411.90	0.642
412.11	0.644
412.31	0.646
412.52	0.644
412.72	0.645
412.93	0.646
413.13	0.645
413.34	0.641
413.54	0.642
413.75	0.644
413.95	0.643
414.16	0.640
414.37	0.643
414.57	0.643
414.78	0.646
414.98	0.644
415.19	0.645
415.39	0.644
415.60	0.646
415.80	0.645
416.01	0.644
416.21	0.647
416.42	0.647
416.62	0.642
416.83	0.642
417.03	0.643
417.24	0.643
417.44	0.640
417.65	0.639
417.86	0.640
418.06	0.637
418.27	0.635
418.47	0.636
418.68	0.637
418.88	0.638
419.09	0.635
419.29	0.636
419.50	0.636
419.70	0.636
419.91	0.634
420.11	0.633
420.32	0.636
420.52	0.636
420.73	0.635
420.93	0.635
421.14	0.637
421.34	0.636
421.55	0.632
421.75	0.633
421.96	0.635
422.16	0.636
422.37	0.634
422.57	0.632
422.78	0.634
422.98	0.631
423.19	0.628
423.39	0.627
423.60	0.631
423.80	0.632
424.01	0.630
424.21	0.632
424.42	0.633
424.62	0.633
424.83	0.632
425.03	0.632
425.23	0.635
425.44	0.636
425.64	0.635
425.85	0.635
426.05	0.636
426.26	0.637
426.46	0.633
426.67	0.633
426.87	0.638
427.08	0.638
427.28	0.635
427.49	0.636
427.69	0.637
427.90	0.637
428.10	0.633
428.31	0.633
428.51	0.635
428.71	0.634
428.92	0.635
429.12	0.633
429.33	0.634
429.53	0.638
429.74	0.641
429.94	0.641
430.15	0.641
430.35	0.641
430.56	0.638
430.76	0.638
430.96	0.640
431.17	0.638
431.37	0.634
431.58	0.632
431.78	0.631
431.99	0.624
432.19	0.626
432.40	0.628
432.60	0.629
432.80	0.632
433.01	0.630
433.21	0.630
433.42	0.632
433.62	0.632
433.83	0.632
434.03	0.634
434.23	0.637
434.44	0.636
434.64	0.633
434.85	0.638
435.05	0.639
435.26	0.639
435.46	0.638
435.66	0.637
435.87	0.638
436.07	0.639
436.28	0.634
436.48	0.632
436.69	0.632
436.89	0.632
437.09	0.626
437.30	0.625
437.50	0.627
437.71	0.638
437.91	0.637
438.11	0.638
438.32	0.643
438.52	0.643
438.73	0.642
438.93	0.640
439.13	0.641
439.34	0.644
439.54	0.642
439.75	0.641
439.95	0.632
440.15	0.636
440.36	0.634
440.56	0.632
440.77	0.634
440.97	0.635
441.17	0.633
441.38	0.634
441.58	0.632
441.79	0.632
441.99	0.630
442.19	0.630
442.40	0.628
442.60	0.628
442.81	0.625
443.01	0.625
443.21	0.626
443.42	0.625
443.62	0.624
443.82	0.624
444.03	0.626
444.23	0.626
444.44	0.626
444.64	0.625
444.84	0.627
445.05	0.627
445.25	0.625
445.45	0.625
445.66	0.628
445.86	0.627
446.06	0.628
446.27	0.628
446.47	0.631
446.68	0.629
446.88	0.629
447.08	0.628
447.29	0.630
447.49	0.630
447.69	0.630
447.90	0.629
448.10	0.633
448.30	0.630
448.51	0.630
448.71	0.628
448.91	0.631
449.12	0.630
449.32	0.631
449.52	0.630
449.73	0.634
449.93	0.633
450.14	0.634
450.34	0.634
450.54	0.637
450.75	0.635
450.95	0.634
451.15	0.634
451.36	0.637
451.56	0.634
451.76	0.633
451.97	0.631
452.17	0.633
452.37	0.631
452.58	0.627
452.78	0.627
452.98	0.629
453.19	0.629
453.39	0.629
453.59	0.628
453.79	0.629
454.00	0.630
454.20	0.628
454.40	0.629
454.61	0.631
454.81	0.632
455.01	0.630
455.22	0.631
455.42	0.633
455.62	0.631
455.83	0.630
456.03	0.633
456.23	0.634
456.44	0.635
456.64	0.633
456.84	0.633
457.04	0.634
457.25	0.634
457.45	0.630
457.65	0.629
457.86	0.630
458.06	0.629
458.26	0.624
458.47	0.624
458.67	0.626
458.87	0.626
459.07	0.623
459.28	0.625
459.48	0.627
459.68	0.627
459.89	0.626
460.09	0.626
460.29	0.627
460.49	0.628
460.70	0.627
460.90	0.627
461.10	0.629
461.31	0.629
461.51	0.625
461.71	0.627
461.91	0.629
462.12	0.629
462.32	0.627
462.52	0.628
462.72	0.631
462.93	0.632
463.13	0.630
463.33	0.631
463.53	0.633
463.74	0.632
463.94	0.628
464.14	0.628
464.35	0.630
464.55	0.631
464.75	0.628
464.95	0.626
465.16	0.628
465.36	0.627
465.56	0.626
465.76	0.625
465.97	0.626
466.17	0.626
466.37	0.624
466.57	0.626
466.78	0.626
466.98	0.627
467.18	0.625
467.38	0.624
467.59	0.626
467.79	0.627
467.99	0.626
468.19	0.627
468.39	0.631
468.60	0.631
468.80	0.629
469.00	0.630
469.20	0.632
469.41	0.631
469.61	0.630
469.81	0.630
470.01	0.631
470.22	0.631
470.42	0.629
470.62	0.627
470.82	0.628
471.02	0.627
471.23	0.625
471.43	0.625
471.63	0.628
471.83	0.627
472.04	0.625
472.24	0.623
472.44	0.629
472.64	0.628
472.84	0.626
473.05	0.627
473.25	0.629
473.45	0.628
473.65	0.626
473.85	0.627
474.06	0.630
474.26	0.629
474.46	0.630
474.66	0.627
474.86	0.628
475.07	0.628
475.27	0.626
475.47	0.624
475.67	0.625
475.87	0.627
476.08	0.624
476.28	0.624
476.48	0.626
476.68	0.625
476.88	0.622
477.09	0.624
477.29	0.626
477.49	0.626
477.69	0.625
477.89	0.625
478.09	0.624
478.30	0.627
478.50	0.624
478.70	0.624
478.90	0.624
479.10	0.627
479.31	0.626
479.51	0.625
479.71	0.626
479.91	0.626
480.11	0.625
480.31	0.625
480.52	0.625
480.72	0.625
480.92	0.623
481.12	0.623
481.32	0.621
481.52	0.619
481.72	0.619
481.93	0.622
482.13	0.622
482.33	0.622
482.53	0.620
482.73	0.620
482.93	0.622
483.14	0.621
483.34	0.621
483.54	0.621
483.74	0.621
483.94	0.620
484.14	0.616
484.34	0.617
484.55	0.618
484.75	0.618
484.95	0.616
485.15	0.615
485.35	0.616
485.55	0.615
485.75	0.613
485.96	0.614
486.16	0.616
486.36	0.615
486.56	0.613
486.76	0.613
486.96	0.614
487.16	0.613
487.36	0.612
487.57	0.611
487.77	0.613
487.97	0.613
488.17	0.611
488.37	0.611
488.57	0.611
488.77	0.612
488.97	0.610
489.18	0.609
489.38	0.612
489.58	0.612
489.78	0.611
489.98	0.611
490.18	0.611
490.38	0.611
490.58	0.610
490.78	0.610
490.98	0.612
491.19	0.612
491.39	0.611
491.59	0.609
491.79	0.613
491.99	0.613
492.19	0.613
492.39	0.616
492.59	0.616
492.79	0.618
492.99	0.618
493.20	0.619
493.40	0.619
493.60	0.621
493.80	0.620
494.00	0.618
494.20	0.619
494.40	0.619
494.60	0.616
494.80	0.620
495.00	0.620
495.20	0.618
495.40	0.616
495.61	0.618
495.81	0.618
496.01	0.621
496.21	0.622
496.41	0.621
496.61	0.622
496.81	0.621
497.01	0.616
497.21	0.615
497.41	0.617
497.61	0.616
497.81	0.614
498.01	0.614
498.21	0.612
498.41	0.610
498.61	0.610
498.82	0.611
499.02	0.613
499.22	0.614
499.42	0.612
499.62	0.613
499.82	0.615
500.02	0.616
500.22	0.614
500.42	0.617
500.62	0.618
500.82	0.618
501.02	0.616
501.22	0.616
501.42	0.616
501.62	0.618
501.82	0.617
502.02	0.617
502.22	0.618
502.42	0.620
502.62	0.617
502.82	0.617
503.02	0.618
503.22	0.618
503.42	0.616
503.63	0.616
503.83	0.615
504.03	0.613
504.23	0.611
504.43	0.612
504.63	0.613
504.83	0.612
505.03	0.611
505.23	0.613
505.43	0.615
505.63	0.615
505.83	0.615
506.03	0.617
506.23	0.619
506.43	0.620
506.63	0.618
506.83	0.617
507.03	0.620
507.23	0.621
507.43	0.618
507.63	0.618
507.83	0.619
508.03	0.619
508.23	0.618
508.43	0.616
508.63	0.618
508.83	0.619
509.03	0.620
509.23	0.619
509.43	0.621
509.63	0.621
509.83	0.619
510.03	0.622
510.23	0.624
510.43	0.625
510.63	0.626
510.83	0.626
511.03	0.627
511.23	0.624
511.43	0.624
511.63	0.625
511.83	0.627
512.03	0.627
512.22	0.624
512.42	0.623
512.62	0.625
512.82	0.624
513.02	0.623
513.22	0.623
513.42	0.625
513.62	0.628
513.82	0.626
514.02	0.625
514.22	0.627
514.42	0.627
514.62	0.627
514.82	0.627
515.02	0.629
515.22	0.632
515.42	0.631
515.62	0.633
515.82	0.632
516.02	0.634
516.22	0.633
516.42	0.634
516.62	0.636
516.82	0.637
517.01	0.635
517.21	0.634
517.41	0.638
517.61	0.638
517.81	0.634
518.01	0.633
518.21	0.633
518.41	0.633
518.61	0.631
518.81	0.632
519.01	0.633
519.21	0.633
519.41	0.632
519.61	0.627
519.81	0.629
520.00	0.629
520.20	0.629
520.40	0.632
520.60	0.633
520.80	0.633
521.00	0.633
521.20	0.634
521.40	0.640
521.60	0.640
521.80	0.638
522.00	0.639
522.20	0.642
522.39	0.641
522.59	0.637
522.79	0.639
522.99	0.642
523.19	0.640
523.39	0.637
523.59	0.635
523.79	0.639
523.99	0.641
524.19	0.640
524.38	0.639
524.58	0.640
524.78	0.641
524.98	0.639
525.18	0.641
525.38	0.643
525.58	0.644
525.78	0.641
525.98	0.639
526.18	0.639
526.37	0.639
526.57	0.640
526.77	0.640
526.97	0.640
527.17	0.640
527.37	0.636
527.57	0.639
527.77	0.641
527.96	0.641
528.16	0.640
528.36	0.641
528.56	0.643
528.76	0.640
528.96	0.639
529.16	0.640
529.36	0.644
529.55	0.644
529.75	0.640
529.95	0.640
530.15	0.642
530.35	0.645
530.55	0.642
530.75	0.643
530.94	0.646
531.14	0.646
531.34	0.644
531.54	0.642
531.74	0.646
531.94	0.649
532.13	0.647
532.33	0.648
532.53	0.647
532.73	0.646
532.93	0.644
533.13	0.646
533.33	0.646
533.52	0.646
533.72	0.650
533.92	0.647
534.12	0.645
534.32	0.645
534.52	0.643
534.71	0.645
534.91	0.649
535.11	0.650
535.31	0.647
535.51	0.649
535.71	0.652
535.90	0.649
536.10	0.650
536.30	0.652
536.50	0.654
536.70	0.654
536.89	0.652
537.09	0.651
537.29	0.653
537.49	0.654
537.69	0.652
537.89	0.652
538.08	0.651
538.28	0.650
538.48	0.650
538.68	0.651
538.88	0.653
539.07	0.653
539.27	0.651
539.47	0.650
539.67	0.651
539.87	0.652
540.06	0.649
540.26	0.651
540.46	0.654
540.66	0.650
540.86	0.648
541.05	0.648
541.25	0.650
541.45	0.650
541.65	0.649
541.84	0.651
542.04	0.652
542.24	0.653
542.44	0.651
542.64	0.651
542.83	0.655
543.03	0.655
543.23	0.653
543.43	0.653
543.62	0.655
543.82	0.655
544.02	0.653
544.22	0.653
544.42	0.657
544.61	0.656
544.81	0.654
545.01	0.652
545.21	0.655
545.40	0.655
545.60	0.653
545.80	0.656
546.00	0.656
546.19	0.656
546.39	0.654
546.59	0.652
546.79	0.654
546.98	0.653
547.18	0.652
547.38	0.654
547.58	0.657
547.77	0.657
547.97	0.653
548.17	0.655
548.37	0.656
548.56	0.656
548.76	0.656
548.96	0.657
549.16	0.661
549.35	0.661
549.55	0.658
549.75	0.659
549.95	0.663
550.14	0.663
550.34	0.661
550.54	0.666
550.73	0.670
550.93	0.671
551.13	0.667
551.33	0.665
551.52	0.667
551.72	0.668
551.92	0.665
552.12	0.665
552.31	0.666
552.51	0.665
552.71	0.660
552.90	0.660
553.10	0.661
553.30	0.660
553.50	0.659
553.69	0.661
553.89	0.661
554.09	0.662
554.28	0.659
554.48	0.661
554.68	0.663
554.87	0.663
555.07	0.660
555.27	0.661
555.47	0.664
555.66	0.664
555.86	0.662
556.06	0.664
556.25	0.666
556.45	0.674
556.65	0.671
556.84	0.674
557.04	0.678
557.24	0.680
557.43	0.679
557.63	0.682
557.83	0.684
558.02	0.685
558.22	0.688
558.42	0.688
558.61	0.682
558.81	0.682
559.01	0.677
559.21	0.677
559.40	0.678
559.60	0.678
559.80	0.673
559.99	0.675
560.19	0.678
560.39	0.671
560.58	0.668
560.78	0.668
560.97	0.672
561.17	0.671
561.37	0.668
561.56	0.669
561.76	0.671
561.96	0.671
562.15	0.668
562.35	0.670
562.55	0.672
562.74	0.672
562.94	0.671
563.14	0.669
563.33	0.671
563.53	0.671
563.73	0.668
563.92	0.669
564.12	0.673
564.31	0.675
564.51	0.672
564.71	0.674
564.90	0.678
565.10	0.679
565.30	0.681
565.49	0.682
565.69	0.684
565.89	0.685
566.08	0.681
566.28	0.682
566.47	0.685
566.67	0.682
566.87	0.679
567.06	0.680
567.26	0.686
567.46	0.681
567.65	0.680
567.85	0.681
568.04	0.685
568.24	0.684
568.44	0.680
568.63	0.679
568.83	0.681
569.02	0.680
569.22	0.674
569.42	0.671
569.61	0.674
569.81	0.672
570.00	0.670
570.20	0.671
570.40	0.673
570.59	0.673
570.79	0.671
570.98	0.669
571.18	0.671
571.38	0.670
571.57	0.667
571.77	0.665
571.96	0.669
572.16	0.666
572.35	0.661
572.55	0.662
572.75	0.660
572.94	0.660
573.14	0.658
573.33	0.658
573.53	0.660
573.73	0.659
573.92	0.657
574.12	0.655
574.31	0.658
574.51	0.658
574.70	0.655
574.90	0.656
575.09	0.659
575.29	0.660
575.49	0.656
575.68	0.657
575.88	0.659
576.07	0.661
576.27	0.658
576.46	0.657
576.66	0.657
576.86	0.657
577.05	0.654
577.25	0.652
577.44	0.653
577.64	0.653
577.83	0.651
578.03	0.652
578.22	0.651
578.42	0.650
578.61	0.647
578.81	0.649
579.00	0.650
579.20	0.649
579.40	0.648
579.59	0.647
579.79	0.648
579.98	0.647
580.18	0.646
580.37	0.647
580.57	0.650
580.76	0.655
580.96	0.652
581.15	0.653
581.35	0.656
581.54	0.655
581.74	0.654
581.93	0.655
582.13	0.657
582.32	0.655
582.52	0.653
582.71	0.652
582.91	0.649
583.10	0.650
583.30	0.648
583.49	0.647
583.69	0.652
583.88	0.654
584.08	0.653
584.27	0.655
584.47	0.658
584.66	0.658
584.86	0.657
585.05	0.658
585.25	0.661
585.44	0.660
585.64	0.659
585.83	0.655
586.03	0.656
586.22	0.655
586.42	0.651
586.61	0.653
586.81	0.656
587.00	0.657
587.20	0.654
587.39	0.655
587.59	0.658
587.78	0.659
587.98	0.660
588.17	0.661
588.37	0.663
588.56	0.665
588.76	0.660
588.95	0.660
589.15	0.664
589.34	0.666
589.54	0.664
589.73	0.664
589.92	0.667
590.12	0.666
590.31	0.664
590.51	0.669
590.70	0.670
590.90	0.671
591.09	0.668
591.29	0.667
591.48	0.667
591.68	0.668
591.87	0.666
592.06	0.666
592.26	0.668
592.45	0.667
592.65	0.661
592.84	0.661
593.04	0.664
593.23	0.666
593.43	0.664
593.62	0.664
593.81	0.665
594.01	0.664
594.20	0.662
594.40	0.662
594.59	0.665
594.79	0.666
594.98	0.664
595.17	0.663
595.37	0.664
595.56	0.665
595.76	0.663
595.95	0.664
596.14	0.667
596.34	0.668
596.53	0.665
596.73	0.665
596.92	0.666
597.12	0.669
597.31	0.667
597.50	0.667
597.70	0.670
597.89	0.670
598.09	0.666
598.28	0.668
598.47	0.671
598.67	0.670
598.86	0.667
599.06	0.669
599.25	0.669
599.44	0.668
599.64	0.665
599.83	0.662
600.03	0.666
600.22	0.667
600.41	0.667
600.61	0.665
600.80	0.668
601.00	0.669
601.19	0.664
601.38	0.663
601.58	0.667
601.77	0.668
601.96	0.670
602.16	0.669
602.35	0.679
602.55	0.676
602.74	0.675
602.93	0.677
603.13	0.682
603.32	0.683
603.51	0.681
603.71	0.684
603.90	0.686
604.09	0.686
604.29	0.683
604.48	0.677
604.68	0.679
604.87	0.678
605.06	0.673
605.26	0.670
605.45	0.671
605.64	0.671
605.84	0.666
606.03	0.665
606.22	0.665
606.42	0.664
606.61	0.660
606.80	0.660
607.00	0.663
607.19	0.664
607.38	0.661
607.58	0.663
607.77	0.666
607.96	0.667
608.16	0.665
608.35	0.670
608.54	0.674
608.74	0.677
608.93	0.682
609.12	0.684
609.32	0.688
609.51	0.692
609.70	0.690
609.90	0.692
610.09	0.697
610.28	0.702
610.48	0.693
610.67	0.694
610.86	0.695
611.06	0.689
611.25	0.687
611.44	0.687
611.64	0.688
611.83	0.690
612.02	0.686
612.21	0.684
612.41	0.683
612.60	0.683
612.79	0.678
612.99	0.679
613.18	0.682
613.37	0.679
613.57	0.676
613.76	0.677
613.95	0.675
614.14	0.676
614.34	0.673
614.53	0.674
614.72	0.679
614.92	0.679
615.11	0.675
615.30	0.672
615.49	0.675
615.69	0.678
615.88	0.674
616.07	0.677
616.26	0.680
616.46	0.681
616.65	0.677
616.84	0.675
617.04	0.678
617.23	0.682
617.42	0.681
617.61	0.685
617.81	0.686
618.00	0.687
618.19	0.684
618.38	0.688
618.58	0.692
618.77	0.693
618.96	0.692
619.15	0.694
619.35	0.695
619.54	0.696
619.73	0.689
619.92	0.692
620.12	0.696
620.31	0.696
620.50	0.690
620.69	0.690
620.89	0.694
621.08	0.694
621.27	0.693
621.46	0.693
621.66	0.698
621.85	0.698
622.04	0.693
622.23	0.695
622.43	0.696
622.62	0.696
622.81	0.695
623.00	0.695
623.19	0.700
623.39	0.699
623.58	0.695
623.77	0.694
623.96	0.697
624.16	0.698
624.35	0.692
624.54	0.695
624.73	0.700
624.92	0.697
625.12	0.694
625.31	0.695
625.50	0.700
625.69	0.701
625.88	0.695
626.08	0.695
626.27	0.698
626.46	0.699
626.65	0.695
626.84	0.695
627.04	0.701
627.23	0.701
627.42	0.695
627.61	0.696
627.80	0.700
628.00	0.701
628.19	0.698
628.38	0.702
628.57	0.705
628.76	0.706
628.96	0.702
629.15	0.703
629.34	0.708
629.53	0.708
629.72	0.702
629.91	0.702
630.11	0.708
630.30	0.708
630.49	0.709
630.68	0.710
630.87	0.715
631.06	0.717
631.26	0.710
631.45	0.712
631.64	0.721
631.83	0.725
632.02	0.722
632.21	0.721
632.41	0.729
632.60	0.724
632.79	0.721
632.98	0.721
633.17	0.722
633.36	0.724
633.55	0.718
633.75	0.715
633.94	0.718
634.13	0.718
634.32	0.714
634.51	0.708
634.70	0.712
634.89	0.711
635.09	0.707
635.28	0.709
635.47	0.711
635.66	0.715
635.85	0.709
636.04	0.711
636.23	0.717
636.43	0.718
636.62	0.716
636.81	0.714
637.00	0.719
637.19	0.721
637.38	0.717
637.57	0.716
637.76	0.719
637.95	0.720
638.15	0.716
638.34	0.712
638.53	0.717
638.72	0.719
638.91	0.715
639.10	0.712
639.29	0.713
639.48	0.714
639.67	0.713
639.87	0.711
640.06	0.718
640.25	0.718
640.44	0.718
640.63	0.717
640.82	0.721
641.01	0.722
641.20	0.720
641.39	0.723
641.58	0.726
641.78	0.725
641.97	0.719
642.16	0.733
642.35	0.735
642.54	0.733
642.73	0.728
642.92	0.726
643.11	0.731
643.30	0.730
643.49	0.724
643.68	0.727
643.87	0.729
644.06	0.730
644.25	0.709
644.45	0.712
644.64	0.715
644.83	0.715
645.02	0.710
645.21	0.709
645.40	0.712
645.59	0.711
645.78	0.704
645.97	0.706
646.16	0.707
646.35	0.706
646.54	0.703
646.73	0.705
646.92	0.707
647.11	0.707
647.30	0.702
647.49	0.704
647.68	0.706
647.88	0.703
648.07	0.696
648.26	0.699
648.45	0.703
648.64	0.697
648.83	0.693
649.02	0.695
649.21	0.707
649.40	0.705
649.59	0.699
649.78	0.700
649.97	0.716
650.16	0.716
650.35	0.709
650.54	0.710
650.73	0.721
650.92	0.718
651.11	0.710
651.30	0.707
651.49	0.713
651.68	0.713
651.87	0.709
652.06	0.698
652.25	0.701
652.44	0.701
652.63	0.695
652.82	0.692
653.01	0.692
653.20	0.689
653.39	0.675
653.58	0.672
653.77	0.673
653.96	0.668
654.15	0.660
654.34	0.659
654.53	0.655
654.72	0.651
654.91	0.643
655.10	0.640
655.29	0.639
655.48	0.638
655.67	0.633
655.86	0.630
656.05	0.629
656.24	0.628
656.43	0.623
656.62	0.623
656.81	0.625
657.00	0.624
657.19	0.623
657.38	0.624
657.57	0.625
657.76	0.628
657.95	0.626
658.14	0.631
658.33	0.635
658.51	0.641
658.70	0.641
658.89	0.642
659.08	0.650
659.27	0.656
659.46	0.654
659.65	0.660
659.84	0.663
660.03	0.666
660.22	0.666
660.41	0.669
660.60	0.669
660.79	0.671
660.98	0.676
661.17	0.675
661.36	0.674
661.55	0.675
661.74	0.671
661.92	0.674
662.11	0.678
662.30	0.675
662.49	0.667
662.68	0.667
662.87	0.672
663.06	0.666
663.25	0.666
663.44	0.666
663.63	0.669
663.82	0.667
664.01	0.661
664.20	0.660
664.38	0.663
664.57	0.664
664.76	0.663
664.95	0.663
665.14	0.669
665.33	0.664
665.52	0.671
665.71	0.675
665.90	0.675
666.09	0.676
666.28	0.673
666.46	0.672
666.65	0.674
666.84	0.670
667.03	0.664
667.22	0.662
667.41	0.666
667.60	0.655
667.79	0.647
667.98	0.649
668.16	0.651
668.35	0.650
668.54	0.645
668.73	0.646
668.92	0.649
669.11	0.647
669.30	0.640
669.49	0.636
669.67	0.639
669.86	0.641
670.05	0.637
670.24	0.634
670.43	0.632
670.62	0.631
670.81	0.625
671.00	0.627
671.18	0.627
671.37	0.626
671.56	0.624
671.75	0.622
671.94	0.621
672.13	0.618
672.32	0.613
672.50	0.613
672.69	0.614
672.88	0.615
673.07	0.609
673.26	0.612
673.45	0.614
673.63	0.614
673.82	0.609
674.01	0.610
674.20	0.611
674.39	0.610
674.58	0.609
674.76	0.609
674.95	0.608
675.14	0.607
675.33	0.602
675.52	0.600
675.71	0.601
675.89	0.600
676.08	0.596
676.27	0.595
676.46	0.597
676.65	0.597
676.84	0.596
677.02	0.598
677.21	0.601
677.40	0.600
677.59	0.597
677.78	0.598
677.96	0.601
678.15	0.600
678.34	0.598
678.53	0.598
678.72	0.599
678.90	0.595
679.09	0.590
679.28	0.588
679.47	0.588
679.66	0.588
679.84	0.584
680.03	0.581
680.22	0.581
680.41	0.582
680.60	0.578
680.78	0.577
680.97	0.581
681.16	0.581
681.35	0.579
681.53	0.578
681.72	0.580
681.91	0.582
682.10	0.580
682.29	0.584
682.47	0.581
682.66	0.581
682.85	0.578
683.04	0.576
683.22	0.576
683.41	0.578
683.60	0.576
683.79	0.577
683.97	0.577
684.16	0.576
684.35	0.571
684.54	0.573
684.72	0.574
684.91	0.575
685.10	0.573
685.29	0.574
685.47	0.572
685.66	0.571
685.85	0.567
686.04	0.566
686.22	0.570
686.41	0.572
686.60	0.569
686.79	0.571
686.97	0.573
687.16	0.574
687.35	0.571
687.54	0.575
687.72	0.580
687.91	0.579
688.10	0.580
688.29	0.580
688.47	0.578
688.66	0.577
688.85	0.573
689.03	0.570
689.22	0.576
689.41	0.575
689.60	0.569
689.78	0.566
689.97	0.567
690.16	0.564
690.34	0.560
690.53	0.560
690.72	0.561
690.91	0.559
691.09	0.556
691.28	0.550
691.47	0.549
691.65	0.548
691.84	0.545
692.03	0.545
692.21	0.543
692.40	0.543
692.59	0.541
692.77	0.540
692.96	0.542
693.15	0.543
693.34	0.540
693.52	0.541
693.71	0.541
693.90	0.542
694.08	0.542
694.27	0.543
694.46	0.553
694.64	0.554
694.83	0.552
695.02	0.551
695.20	0.551
695.39	0.551
695.58	0.550
695.76	0.551
695.95	0.550
696.14	0.550
696.32	0.547
696.51	0.538
696.70	0.538
696.88	0.540
697.07	0.538
697.26	0.539
697.44	0.540
697.63	0.540
697.81	0.536
698.00	0.537
698.19	0.537
698.37	0.537
698.56	0.537
698.75	0.537
698.93	0.536
699.12	0.536
699.31	0.534
699.49	0.533
699.68	0.535
699.87	0.537
700.05	0.537
700.24	0.536
700.42	0.538
700.61	0.537
700.80	0.534
700.98	0.534
701.17	0.537
701.36	0.536
701.54	0.534
701.73	0.536
701.91	0.534
702.10	0.534
702.29	0.531
702.47	0.530
702.66	0.532
702.84	0.534
703.03	0.531
703.22	0.533
703.40	0.533
703.59	0.535
703.77	0.534
703.96	0.535
704.15	0.536
704.33	0.536
704.52	0.536
704.70	0.535
704.89	0.534
705.08	0.532
705.26	0.528
705.45	0.527
705.63	0.527
705.82	0.523
706.00	0.521
706.19	0.521
706.38	0.520
706.56	0.519
706.75	0.516
706.93	0.515
707.12	0.518
707.30	0.518
707.49	0.515
707.68	0.513
707.86	0.513
708.05	0.513
708.23	0.510
708.42	0.511
708.60	0.514
708.79	0.515
708.98	0.513
709.16	0.513
709.35	0.516
709.53	0.520
709.72	0.519
709.90	0.521
710.09	0.523
710.27	0.525
710.46	0.529
710.64	0.526
710.83	0.528
711.02	0.529
711.20	0.527
711.39	0.525
711.57	0.522
711.76	0.523
711.94	0.520
712.13	0.521
712.31	0.522
712.50	0.517
712.68	0.514
712.87	0.515
713.05	0.515
713.24	0.515
713.42	0.514
713.61	0.515
713.79	0.516
713.98	0.516
714.16	0.516
714.35	0.515
714.54	0.517
714.72	0.517
714.91	0.513
715.09	0.521
715.28	0.525
715.46	0.525
715.65	0.522
715.83	0.523
716.02	0.526
716.20	0.523
716.39	0.522
716.57	0.523
716.76	0.526
716.94	0.527
717.12	0.518
717.31	0.519
717.49	0.522
717.68	0.523
717.86	0.522
718.05	0.524
718.23	0.527
718.42	0.530
718.60	0.529
718.79	0.537
718.97	0.540
719.16	0.541
719.34	0.538
719.53	0.539
719.71	0.539
719.90	0.541
720.08	0.537
720.27	0.537
720.45	0.538
720.63	0.537
720.82	0.531
721.00	0.535
721.19	0.539
721.37	0.539
721.56	0.538
721.74	0.542
721.93	0.551
722.11	0.557
722.30	0.555
722.48	0.559
722.66	0.561
722.85	0.560
723.03	0.558
723.22	0.556
723.40	0.560
723.59	0.560
723.77	0.561
723.95	0.555
724.14	0.559
724.32	0.561
724.51	0.559
724.69	0.561
724.88	0.562
725.06	0.560
725.24	0.560
725.43	0.561
725.61	0.565
725.80	0.560
725.98	0.556
726.16	0.552
726.35	0.560
726.53	0.558
726.72	0.555
726.90	0.565
727.09	0.567
727.27	0.573
727.45	0.569
727.64	0.576
727.82	0.586
728.01	0.589
728.19	0.586
728.37	0.590
728.56	0.596
728.74	0.602
728.92	0.588
729.11	0.589
729.29	0.590
729.48	0.593
729.66	0.582
729.84	0.582
730.03	0.587
730.21	0.589
730.40	0.578
730.58	0.579
730.76	0.581
730.95	0.585
731.13	0.584
731.31	0.597
731.50	0.607
731.68	0.610
731.86	0.604
732.05	0.619
732.23	0.624
732.42	0.626
732.60	0.629
732.78	0.633
732.97	0.653
733.15	0.659
733.33	0.644
733.52	0.651
733.70	0.665
733.88	0.674
734.07	0.657
734.25	0.683
734.43	0.695
734.62	0.697
734.80	0.691
734.98	0.681
735.17	0.691
735.35	0.699
735.53	0.686
735.72	0.688
735.90	0.713
736.08	0.733
736.27	0.707
736.45	0.717
736.63	0.735
736.82	0.746
737.00	0.745
737.18	0.757
737.37	0.793
737.55	0.817
737.73	0.812
737.92	0.817
738.10	0.816
738.28	0.838
738.46	0.822
738.65	0.834
738.83	0.860
739.01	0.918
739.20	0.901
739.38	0.883
739.56	0.879
739.75	0.882
739.93	0.840
740.11	0.869
740.29	0.874
740.48	0.880
740.66	0.853
740.84	0.846
741.03	0.814
741.21	0.829
741.39	0.805
741.57	0.818
741.76	0.841
741.94	0.848
742.12	0.806
742.31	0.810
742.49	0.836
742.67	0.863
742.85	0.873
743.04	0.872
743.22	0.887
743.40	0.943
743.58	0.915
743.77	0.934
743.95	0.980
744.13	1.035
744.31	1.011
744.50	1.005
744.68	1.017
744.86	0.992
745.04	1.008
745.23	1.083
745.41	1.076
745.59	1.081
745.77	1.032
745.96	1.017
746.14	1.034
746.32	1.029
746.50	1.013
746.69	0.988
746.87	1.009
747.05	0.986
747.23	0.897
747.42	0.882
747.60	0.926
747.78	0.926
747.96	0.950
748.14	0.899
748.33	0.938
748.51	0.933
748.69	0.923
748.87	0.954
749.06	0.964
749.24	0.960
749.42	0.934
749.60	0.909
749.78	0.936
749.97	0.887
750.15	0.877
750.33	0.878
750.51	0.913
750.69	0.917
750.88	0.915
751.06	0.926
751.24	0.963
751.42	0.952
751.60	0.936
751.79	1.013
751.97	1.068
752.15	1.069
752.33	1.020
752.51	1.089
752.69	1.117
752.88	1.072
753.06	1.117
753.24	1.086
753.42	1.147
753.60	1.370
753.78	1.159
753.97	1.190
754.15	1.223
754.33	1.263
754.51	1.096
754.69	1.075
754.87	1.126
755.06	1.034
755.24	1.032
755.42	1.036
755.60	0.928
755.78	0.941
755.96	0.873
756.15	0.879
756.33	0.892
756.51	0.914
756.69	0.892
756.87	0.851
757.05	0.881
757.23	0.861
757.42	0.821
757.60	0.821
757.78	0.809
757.96	0.809
758.14	0.785
758.32	0.769
758.50	0.786
758.69	0.787
758.87	0.778
759.05	0.780
759.23	0.798
759.41	0.801
759.59	0.787
759.77	0.818
759.95	0.850
760.13	0.905
760.32	0.899
760.50	0.893
760.68	0.926
760.86	0.927
761.04	0.891
761.22	0.893
761.40	0.953
761.58	0.955
761.76	0.909
761.95	0.892
762.13	0.845
762.31	0.845
762.49	0.808
762.67	0.824
762.85	0.842
763.03	0.836
763.21	0.810
763.39	0.791
763.57	0.798
763.75	0.794
763.94	0.775
764.12	0.773
764.30	0.804
764.48	0.808
764.66	0.766
764.84	0.763
765.02	0.808
765.20	0.815
765.38	0.790
765.56	0.796
765.74	0.847
765.92	0.849
766.10	0.855
766.28	0.847
766.46	0.883
766.65	0.885
766.83	0.868
767.01	0.850
767.19	0.865
767.37	0.866
767.55	0.845
767.73	0.820
767.91	0.825
768.09	0.815
768.27	0.800
768.45	0.791
768.63	0.796
768.81	0.799
768.99	0.767
769.17	0.794
769.35	0.813
769.53	0.813
769.71	0.789
769.89	0.801
770.07	0.810
770.25	0.790
770.43	0.762
770.61	0.790
770.79	0.801
770.97	0.812
771.15	0.773
771.33	0.778
771.51	0.785
771.69	0.798
771.87	0.800
772.05	0.808
772.24	0.822
772.42	0.830
772.60	0.803
772.78	0.868
772.96	0.904
773.14	0.895
773.32	0.866
773.49	0.877
773.67	0.878
773.85	0.856
774.03	0.836
774.21	0.875
774.39	0.896
774.57	0.923
774.75	0.835
774.93	0.829
775.11	0.862
775.29	0.869
775.47	0.863
775.65	0.877
775.83	0.904
776.01	0.932
776.19	0.869
776.37	0.872
776.55	0.874
776.73	0.874
776.91	0.866
777.09	0.844
777.27	0.847
777.45	0.833
777.63	0.803
777.81	0.798
777.99	0.788
778.17	0.785
778.35	0.757
778.53	0.747
778.71	0.755
778.89	0.742
779.07	0.730
779.24	0.733
779.42	0.739
779.60	0.757
779.78	0.748
779.96	0.756
780.14	0.771
780.32	0.791
780.50	0.766
780.68	0.769
780.86	0.763
781.04	0.782
781.22	0.784
781.40	0.796
781.58	0.790
781.75	0.783
781.93	0.759
782.11	0.759
782.29	0.748
782.47	0.749
782.65	0.730
782.83	0.760
783.01	0.757
783.19	0.751
783.37	0.732
783.55	0.735
783.72	0.760
783.90	0.772
784.08	0.760
784.26	0.772
784.44	0.794
784.62	0.798
784.80	0.757
784.98	0.760
785.16	0.765
785.33	0.781
785.51	0.761
785.69	0.744
785.87	0.746
786.05	0.758
786.23	0.751
786.41	0.750
786.59	0.760
786.77	0.761
786.94	0.745
787.12	0.751
787.30	0.755
787.48	0.751
787.66	0.735
787.84	0.736
788.02	0.728
788.19	0.725
788.37	0.707
788.55	0.708
788.73	0.710
788.91	0.703
789.09	0.683
789.27	0.672
789.44	0.686
789.62	0.694
789.80	0.701
789.98	0.729
790.16	0.718
790.34	0.713
790.51	0.700
790.69	0.721
790.87	0.730
791.05	0.728
791.23	0.716
791.41	0.720
791.58	0.731
791.76	0.705
791.94	0.668
792.12	0.679
792.30	0.683
792.48	0.679
792.65	0.671
792.83	0.679
793.01	0.689
793.19	0.687
793.37	0.668
793.54	0.663
793.72	0.679
793.90	0.677
794.08	0.663
794.26	0.665
794.43	0.676
794.61	0.658
794.79	0.644
794.97	0.644
795.15	0.652
795.32	0.658
795.50	0.645
795.68	0.639
795.86	0.646
796.04	0.648
796.21	0.641
796.39	0.640
796.57	0.658
796.75	0.666
796.92	0.664
797.10	0.669
797.28	0.673
797.46	0.676
797.64	0.678
797.81	0.687
797.99	0.692
798.17	0.694
798.35	0.686
798.52	0.688
798.70	0.685
798.88	0.695
799.06	0.692
799.23	0.694
799.41	0.706
799.59	0.697
799.77	0.684
799.94	0.696
800.12	0.710
800.30	0.728
800.48	0.724
800.65	0.724
800.83	0.715
801.01	0.707
801.19	0.705
801.36	0.701
801.54	0.707
801.72	0.716
801.90	0.697
802.07	0.691
802.25	0.679
802.43	0.662
802.60	0.656
802.78	0.662
802.96	0.667
803.14	0.661
803.31	0.656
803.49	0.656
803.67	0.654
803.84	0.660
804.02	0.649
804.20	0.653
804.38	0.660
804.55	0.660
804.73	0.644
804.91	0.647
805.08	0.662
805.26	0.658
805.44	0.716
805.61	0.721
805.79	0.723
805.97	0.725
806.15	0.713
806.32	0.707
806.50	0.716
806.68	0.715
806.85	0.702
807.03	0.693
807.21	0.716
807.38	0.651
807.56	0.636
807.74	0.646
807.91	0.654
808.09	0.657
808.27	0.674
808.44	0.702
808.62	0.718
808.80	0.718
808.97	0.708
809.15	0.699
809.33	0.720
809.50	0.728
809.68	0.710
809.86	0.718
810.03	0.758
810.21	0.735
810.39	0.714
810.56	0.719
810.74	0.750
810.91	0.833
811.09	0.816
811.27	0.837
811.44	0.846
811.62	0.850
811.80	0.826
811.97	0.790
812.15	0.790
812.33	0.783
812.50	0.762
812.68	0.749
812.85	0.693
813.03	0.696
813.21	0.662
813.38	0.654
813.56	0.660
813.74	0.673
813.91	0.679
814.09	0.713
814.26	0.712
814.44	0.716
814.62	0.702
814.79	0.705
814.97	0.714
815.14	0.717
815.32	0.720
815.50	0.738
815.67	0.742
815.85	0.731
816.02	0.717
816.20	0.723
816.38	0.742
816.55	0.750
816.73	0.746
816.90	0.757
817.08	0.797
817.26	0.803
817.43	0.777
817.61	0.805
817.78	0.833
817.96	0.808
818.13	0.793
818.31	0.798
818.49	0.813
818.66	0.801
818.84	0.782
819.01	0.757
819.19	0.766
819.36	0.769
819.54	0.733
819.71	0.778
819.89	0.799
820.07	0.814
820.24	0.800
820.42	0.801
820.59	0.828
820.77	0.855
820.94	0.838
821.12	0.858
821.29	0.881
821.47	0.882
821.64	0.806
821.82	0.821
822.00	0.822
822.17	0.819
822.35	0.807
822.52	0.807
822.70	0.798
822.87	0.813
823.05	0.787
823.22	0.799
823.40	0.839
823.57	0.868
823.75	0.839
823.92	0.870
824.10	0.901
824.27	0.955
824.45	0.936
824.62	1.020
824.80	1.045
824.97	1.068
825.15	1.047
825.32	1.062
825.50	1.069
825.67	1.085
825.85	1.049
826.02	1.079
826.20	1.117
826.37	1.326
826.55	1.179
826.72	1.558
826.90	1.835
827.07	2.125
827.25	1.789
827.42	-0.000
827.60	-0.000
827.77	-0.000
827.95	-0.000
828.12	-0.000
828.30	-0.000
828.47	-0.000
828.65	1.801
828.82	2.063
829.00	-0.000
829.17	-0.000
829.34	-0.000
829.52	-0.000
829.69	-0.000
829.87	-0.000
830.04	-0.000
830.22	-0.000
830.39	-0.000
830.57	-0.000
830.74	-0.000
830.92	-0.000
831.09	-0.000
831.26	-0.000
831.44	-0.000
831.61	-0.000
831.79	-0.000
831.96	-0.000
832.14	-0.000
832.31	-0.000
832.49	-0.000
832.66	-0.000
832.83	-0.000
833.01	-0.000
833.18	-0.000
833.36	-0.000
833.53	-0.000
833.70	-0.000
833.88	-0.000
834.05	-0.000
834.23	-0.000
834.40	-0.000
834.58	-0.000
834.75	-0.000
834.92	-0.000
835.10	-0.000
835.27	-0.000
835.45	-0.000
835.62	-0.000
835.79	-0.000
835.97	-0.000
836.14	-0.000
836.32	-0.000
836.49	-0.000
836.66	-0.000
836.84	-0.000
837.01	-0.000
837.18	-0.000
837.36	-0.000
837.53	-0.000
837.71	-0.000
837.88	-0.000
838.05	-0.000
838.23	-0.000
838.40	-0.000
838.58	-0.000
838.75	-0.000
838.92	-0.000
839.10	-0.000
839.27	-0.000
839.44	-0.000
839.62	-0.000
839.79	-0.000
839.96	-0.000
840.14	-0.000
840.31	-0.000
840.48	-0.000
840.66	-0.000
840.83	-0.000
841.01	-0.000
841.18	-0.000
841.35	-0.000
841.53	-0.000
841.70	-0.000
841.87	-0.000
842.05	-0.000
842.22	-0.000
842.39	-0.000
842.57	-0.000
842.74	-0.000
842.91	-0.000
843.09	-0.000
843.26	-0.000
843.43	-0.000
843.60	-0.000
843.78	-0.000
843.95	-0.000
844.12	-0.000
844.30	-0.000
844.47	-0.000
844.64	-0.000
844.82	-0.000
844.99	-0.000
845.16	-0.000
845.34	-0.000
845.51	-0.000
845.68	-0.000
845.85	-0.000
846.03	-0.000
846.20	-0.000
846.37	-0.000
846.55	-0.000
846.72	-0.000
846.89	-0.000
847.06	-0.000
847.24	-0.000
847.41	-0.000
847.58	-0.000
847.76	-0.000
847.93	-0.000
848.10	-0.000
848.27	-0.000
848.45	-0.000
848.62	-0.000
848.79	-0.000
848.97	-0.000
849.14	-0.000
849.31	-0.000
849.48	-0.000
849.66	-0.000
849.83	-0.000
850.00	-0.000
850.17	-0.000
850.35	-0.000
850.52	-0.000
850.69	-0.000
850.86	-0.000
851.04	-0.000
851.21	-0.000
851.38	-0.000
851.55	-0.000
851.72	-0.000
851.90	-0.000
852.07	-0.000
852.24	-0.000
852.41	-0.000
852.59	-0.000
852.76	-0.000
852.93	-0.000
853.10	-0.000
853.28	-0.000
853.45	-0.000
853.62	-0.000
853.79	-0.000
853.96	-0.000
854.14	-0.000
854.31	-0.000
854.48	-0.000
854.65	-0.000
854.82	-0.000
855.00	-0.000
855.17	-0.000
855.34	-0.000
855.51	-0.000
855.68	-0.000
855.86	-0.000
856.03	-0.000
856.20	-0.000
856.37	-0.000
856.54	-0.000
856.72	-0.000
856.89	-0.000
857.06	-0.000
857.23	-0.000
857.40	-0.000
857.57	-0.000
857.75	-0.000
857.92	-0.000
858.09	-0.000
858.26	-0.000
858.43	-0.000
858.60	-0.000
858.78	-0.000
858.95	-0.000
859.12	-0.000
859.29	-0.000
859.46	-0.000
859.63	-0.000
859.81	-0.000
859.98	-0.000
860.15	-0.000
860.32	-0.000
860.49	-0.000
860.66	-0.000
860.83	-0.000
861.01	-0.000
861.18	-0.000
861.35	-0.000
861.52	-0.000
861.69	-0.000
861.86	-0.000
862.03	-0.000
862.21	-0.000
862.38	-0.000
862.55	-0.000
862.72	-0.000
862.89	-0.000
863.06	-0.000
863.23	-0.000
863.40	-0.000
863.58	-0.000
863.75	-0.000
863.92	-0.000
864.09	-0.000
864.26	-0.000
864.43	-0.000
864.60	-0.000
864.77	-0.000
864.94	-0.000
865.11	-0.000
865.29	-0.000
865.46	-0.000
865.63	-0.000
865.80	-0.000
865.97	-0.000
866.14	-0.000
866.31	-0.000
866.48	-0.000
866.65	-0.000
866.82	-0.000
866.99	-0.000
867.16	-0.000
867.34	-0.000
867.51	-0.000
867.68	-0.000
867.85	-0.000
868.02	-0.000
868.19	-0.000
868.36	-0.000
868.53	-0.000
868.70	-0.000
868.87	-0.000
869.04	-0.000
869.21	-0.000
869.38	-0.000
869.55	-0.000
869.72	-0.000
869.89	-0.000
870.06	-0.000
870.24	-0.000
870.41	-0.000
870.58	-0.000
870.75	-0.000
870.92	-0.000
871.09	-0.000
871.26	-0.000
871.43	-0.000
871.60	-0.000
871.77	-0.000
871.94	-0.000
872.11	-0.000
872.28	-0.000
872.45	-0.000
872.62	-0.000
872.79	-0.000
872.96	-0.000
873.13	-0.000
873.30	-0.000
873.47	-0.000
873.64	-0.000
873.81	-0.000
873.98	-0.000
874.15	-0.000
874.32	-0.000
874.49	-0.000
874.66	-0.000
874.83	-0.000
875.00	-0.000
875.17	-0.000
875.34	-0.000
875.51	-0.000
875.68	-0.000
875.85	-0.000
876.02	-0.000
876.19	-0.000
876.36	-0.000
876.53	-0.000
876.70	-0.000
876.87	-0.000
877.04	-0.000
877.21	-0.000
877.38	-0.000
877.55	-0.000
877.72	-0.000
877.89	-0.000
878.06	-0.000
878.23	-0.000
878.39	-0.000
878.56	-0.000
878.73	-0.000
878.90	-0.000
879.07	-0.000
879.24	-0.000
879.41	-0.000
879.58	-0.000
879.75	-0.000
879.92	-0.000
880.09	-0.000
880.26	-0.000
880.43	-0.000
880.60	-0.000
880.77	-0.000
880.94	-0.000
881.11	-0.000
881.27	-0.000
881.44	-0.000
881.61	-0.000
881.78	-0.000
881.95	-0.000
882.12	-0.000
882.29	-0.000
882.46	-0.000
882.63	-0.000
882.80	-0.000
882.97	-0.000
883.14	-0.000
883.30	-0.000
883.47	-0.000
883.64	-0.000
883.81	-0.000
883.98	-0.000
884.15	-0.000
884.32	-0.000
884.49	-0.000
884.66	-0.000
884.82	-0.000
884.99	-0.000
885.16	-0.000
885.33	-0.000
885.50	-0.000
885.67	-0.000
885.84	-0.000
886.01	-0.000
886.17	-0.000
886.34	-0.000
886.51	-0.000
886.68	-0.000
886.85	-0.000
887.02	-0.000
887.19	-0.000
887.36	-0.000
887.52	-0.000
887.69	-0.000
887.86	-0.000
888.03	-0.000
888.20	-0.000
888.37	-0.000
888.54	-0.000
888.70	-0.000
888.87	-0.000
889.04	-0.000
889.21	-0.000
889.38	-0.000
889.55	-0.000
889.71	-0.000
889.88	-0.000
890.05	-0.000
890.22	-0.000
890.39	-0.000
>>>>>End Processed Spectral Data<<<<<
