SpectraSuite Data File
++++++++++++++++++++++++++++++++++++
Date: Fri Jun 19 14:42:09 CEST 2015
User: introlabs
Dark Spectrum Present: Yes
Reference Spectrum Present: Yes
Number of Sampled Component Spectra: 1
Spectrometers: USB4H08886
Integration Time (usec): 745692 (USB4H08886)
Spectra Averaged: 5 (USB4H08886)
Boxcar Smoothing: 5 (USB4H08886)
Correct for Electrical Dark: Yes (USB4H08886)
Strobe/Lamp Enabled: No (USB4H08886)
Correct for Detector Non-linearity: Yes (USB4H08886)
Correct for Stray Light: Yes (USB4H08886)
Number of Pixels in Processed Spectrum: 3648
>>>>>Begin Processed Spectral Data<<<<<
178.14	-0.000
178.36	-0.000
178.57	-0.000
178.79	-0.000
179.01	-0.000
179.22	-0.000
179.44	-0.000
179.65	-0.000
179.87	-0.000
180.08	-0.000
180.30	-0.000
180.52	-0.000
180.73	-0.000
180.95	-0.000
181.16	-0.000
181.38	-0.000
181.59	-0.000
181.81	-0.000
182.03	-0.000
182.24	-0.000
182.46	-0.000
182.67	-0.000
182.89	-0.000
183.10	-0.000
183.32	-0.000
183.54	-0.000
183.75	-0.000
183.97	-0.000
184.18	-0.000
184.40	-0.000
184.61	-0.000
184.83	-0.000
185.04	-0.000
185.26	-0.000
185.48	-0.000
185.69	-0.000
185.91	-0.000
186.12	-0.000
186.34	-0.000
186.55	-0.000
186.77	-0.000
186.98	-0.000
187.20	-0.000
187.42	-0.000
187.63	-0.000
187.85	-0.000
188.06	-0.000
188.28	-0.000
188.49	-0.000
188.71	-0.000
188.92	-0.000
189.14	-0.000
189.36	-0.000
189.57	-0.000
189.79	-0.000
190.00	-0.000
190.22	-0.000
190.43	-0.000
190.65	-0.000
190.86	-0.000
191.08	-0.000
191.29	-0.000
191.51	-0.000
191.72	-0.000
191.94	-0.000
192.16	-0.000
192.37	-0.000
192.59	-0.000
192.80	-0.000
193.02	-0.000
193.23	-0.000
193.45	-0.000
193.66	-0.000
193.88	-0.000
194.09	-0.000
194.31	-0.000
194.52	-0.000
194.74	-0.000
194.95	-0.000
195.17	-0.000
195.38	-0.000
195.60	-0.000
195.81	-0.000
196.03	-0.000
196.25	-0.000
196.46	-0.000
196.68	-0.000
196.89	-0.000
197.11	-0.000
197.32	-0.000
197.54	-0.000
197.75	-0.000
197.97	-0.000
198.18	-0.000
198.40	-0.000
198.61	-0.000
198.83	-0.000
199.04	-0.000
199.26	-0.000
199.47	-0.000
199.69	-0.000
199.90	-0.000
200.12	-0.000
200.33	-0.000
200.55	-0.000
200.76	-0.000
200.98	-0.000
201.19	-0.000
201.41	-0.000
201.62	-0.000
201.84	-0.000
202.05	-0.000
202.27	-0.000
202.48	-0.000
202.70	-0.000
202.91	-0.000
203.13	-0.000
203.34	-0.000
203.56	-0.000
203.77	-0.000
203.99	-0.000
204.20	-0.000
204.42	-0.000
204.63	-0.000
204.85	-0.000
205.06	-0.000
205.28	-0.000
205.49	-0.000
205.71	-0.000
205.92	-0.000
206.14	-0.000
206.35	-0.000
206.56	-0.000
206.78	-0.000
206.99	-0.000
207.21	-0.000
207.42	-0.000
207.64	-0.000
207.85	-0.000
208.07	-0.000
208.28	-0.000
208.50	-0.000
208.71	-0.000
208.93	-0.000
209.14	-0.000
209.36	-0.000
209.57	-0.000
209.79	-0.000
210.00	-0.000
210.22	-0.000
210.43	-0.000
210.64	-0.000
210.86	-0.000
211.07	-0.000
211.29	-0.000
211.50	-0.000
211.72	-0.000
211.93	-0.000
212.15	-0.000
212.36	-0.000
212.58	-0.000
212.79	-0.000
213.01	-0.000
213.22	-0.000
213.43	-0.000
213.65	-0.000
213.86	-0.000
214.08	-0.000
214.29	-0.000
214.51	-0.000
214.72	-0.000
214.94	-0.000
215.15	-0.000
215.36	-0.000
215.58	-0.000
215.79	-0.000
216.01	-0.000
216.22	-0.000
216.44	-0.000
216.65	-0.000
216.87	-0.000
217.08	-0.000
217.29	-0.000
217.51	-0.000
217.72	-0.000
217.94	-0.000
218.15	-0.000
218.37	-0.000
218.58	-0.000
218.80	-0.000
219.01	-0.000
219.22	-0.000
219.44	-0.000
219.65	-0.000
219.87	-0.000
220.08	-0.000
220.30	-0.000
220.51	-0.000
220.72	-0.000
220.94	-0.000
221.15	-0.000
221.37	-0.000
221.58	-0.000
221.79	-0.000
222.01	-0.000
222.22	-0.000
222.44	-0.000
222.65	-0.000
222.87	-0.000
223.08	-0.000
223.29	-0.000
223.51	-0.000
223.72	-0.000
223.94	-0.000
224.15	-0.000
224.36	-0.000
224.58	-0.000
224.79	-0.000
225.01	-0.000
225.22	-0.000
225.44	-0.000
225.65	-0.000
225.86	-0.000
226.08	-0.000
226.29	-0.000
226.51	-0.000
226.72	-0.000
226.93	-0.000
227.15	-0.000
227.36	-0.000
227.58	-0.000
227.79	-0.000
228.00	-0.000
228.22	-0.000
228.43	-0.000
228.65	-0.000
228.86	-0.000
229.07	-0.000
229.29	-0.000
229.50	-0.000
229.72	-0.000
229.93	-0.000
230.14	-0.000
230.36	-0.000
230.57	-0.000
230.78	-0.000
231.00	-0.000
231.21	-0.000
231.43	-0.000
231.64	-0.000
231.85	-0.000
232.07	-0.000
232.28	-0.000
232.50	-0.000
232.71	-0.000
232.92	-0.000
233.14	-0.000
233.35	-0.000
233.56	-0.000
233.78	-0.000
233.99	-0.000
234.21	-0.000
234.42	-0.000
234.63	-0.000
234.85	-0.000
235.06	-0.000
235.27	-0.000
235.49	-0.000
235.70	-0.000
235.91	-0.000
236.13	-0.000
236.34	-0.000
236.56	-0.000
236.77	-0.000
236.98	-0.000
237.20	-0.000
237.41	-0.000
237.62	-0.000
237.84	-0.000
238.05	-0.000
238.26	-0.000
238.48	-0.000
238.69	-0.000
238.91	-0.000
239.12	-0.000
239.33	-0.000
239.55	-0.000
239.76	-0.000
239.97	-0.000
240.19	-0.000
240.40	-0.000
240.61	-0.000
240.83	-0.000
241.04	-0.000
241.25	-0.000
241.47	-0.000
241.68	-0.000
241.89	-0.000
242.11	-0.000
242.32	-0.000
242.53	-0.000
242.75	-0.000
242.96	-0.000
243.17	-0.000
243.39	-0.000
243.60	-0.000
243.81	-0.000
244.03	-0.000
244.24	-0.000
244.45	-0.000
244.67	-0.000
244.88	-0.000
245.09	-0.000
245.31	-0.000
245.52	-0.000
245.73	-0.000
245.95	-0.000
246.16	-0.000
246.37	-0.000
246.59	-0.000
246.80	-0.000
247.01	-0.000
247.23	-0.000
247.44	-0.000
247.65	-0.000
247.87	-0.000
248.08	-0.000
248.29	-0.000
248.51	-0.000
248.72	-0.000
248.93	-0.000
249.15	-0.000
249.36	-0.000
249.57	-0.000
249.78	-0.000
250.00	-0.000
250.21	-0.000
250.42	-0.000
250.64	-0.000
250.85	-0.000
251.06	-0.000
251.28	-0.000
251.49	-0.000
251.70	-0.000
251.92	-0.000
252.13	-0.000
252.34	-0.000
252.55	-0.000
252.77	-0.000
252.98	-0.000
253.19	-0.000
253.41	-0.000
253.62	-0.000
253.83	-0.000
254.05	-0.000
254.26	-0.000
254.47	-0.000
254.68	-0.000
254.90	-0.000
255.11	-0.000
255.32	-0.000
255.54	-0.000
255.75	-0.000
255.96	-0.000
256.17	-0.000
256.39	-0.000
256.60	-0.000
256.81	-0.000
257.03	-0.000
257.24	-0.000
257.45	-0.000
257.66	-0.000
257.88	-0.000
258.09	-0.000
258.30	-0.000
258.51	-0.000
258.73	-0.000
258.94	-0.000
259.15	-0.000
259.37	-0.000
259.58	-0.000
259.79	-0.000
260.00	-0.000
260.22	-0.000
260.43	-0.000
260.64	-0.000
260.85	-0.000
261.07	-0.000
261.28	-0.000
261.49	-0.000
261.71	-0.000
261.92	-0.000
262.13	-0.000
262.34	-0.000
262.56	-0.000
262.77	-0.000
262.98	-0.000
263.19	-0.000
263.41	-0.000
263.62	-0.000
263.83	-0.000
264.04	-0.000
264.26	-0.000
264.47	-0.000
264.68	-0.000
264.89	-0.000
265.11	-0.000
265.32	-0.000
265.53	-0.000
265.74	-0.000
265.96	-0.000
266.17	-0.000
266.38	-0.000
266.59	-0.000
266.81	-0.000
267.02	-0.000
267.23	-0.000
267.44	-0.000
267.65	-0.000
267.87	-0.000
268.08	-0.000
268.29	-0.000
268.50	-0.000
268.72	-0.000
268.93	-0.000
269.14	-0.000
269.35	-0.000
269.57	-0.000
269.78	-0.000
269.99	-0.000
270.20	-0.000
270.41	-0.000
270.63	-0.000
270.84	-0.000
271.05	-0.000
271.26	-0.000
271.48	-0.000
271.69	-0.000
271.90	-0.000
272.11	-0.000
272.32	-0.000
272.54	-0.000
272.75	-0.000
272.96	-0.000
273.17	-0.000
273.39	-0.000
273.60	-0.000
273.81	-0.000
274.02	-0.000
274.23	-0.000
274.45	-0.000
274.66	-0.000
274.87	-0.000
275.08	-0.000
275.29	-0.000
275.51	-0.000
275.72	-0.000
275.93	-0.000
276.14	-0.000
276.35	-0.000
276.57	-0.000
276.78	-0.000
276.99	-0.000
277.20	-0.000
277.41	-0.000
277.63	-0.000
277.84	-0.000
278.05	-0.000
278.26	-0.000
278.47	-0.000
278.69	-0.000
278.90	-0.000
279.11	-0.000
279.32	-0.000
279.53	-0.000
279.74	-0.000
279.96	-0.000
280.17	-0.000
280.38	-0.000
280.59	-0.000
280.80	-0.000
281.02	-0.000
281.23	-0.000
281.44	-0.000
281.65	-0.000
281.86	-0.000
282.07	-0.000
282.29	-0.000
282.50	-0.000
282.71	-0.000
282.92	-0.000
283.13	-0.000
283.35	-0.000
283.56	-0.000
283.77	-0.000
283.98	-0.000
284.19	-0.000
284.40	-0.000
284.62	-0.000
284.83	-0.000
285.04	-0.000
285.25	-0.000
285.46	-0.000
285.67	-0.000
285.88	-0.000
286.10	-0.000
286.31	-0.000
286.52	-0.000
286.73	-0.000
286.94	-0.000
287.15	-0.000
287.37	-0.000
287.58	-0.000
287.79	-0.000
288.00	-0.000
288.21	-0.000
288.42	-0.000
288.63	-0.000
288.85	-0.000
289.06	-0.000
289.27	-0.000
289.48	-0.000
289.69	-0.000
289.90	-0.000
290.11	-0.000
290.33	-0.000
290.54	-0.000
290.75	-0.000
290.96	-0.000
291.17	-0.000
291.38	-0.000
291.59	-0.000
291.81	-0.000
292.02	-0.000
292.23	-0.000
292.44	-0.000
292.65	-0.000
292.86	-0.000
293.07	-0.000
293.28	-0.000
293.50	-0.000
293.71	-0.000
293.92	-0.000
294.13	-0.000
294.34	-0.000
294.55	-0.000
294.76	-0.000
294.97	-0.000
295.19	-0.000
295.40	-0.000
295.61	-0.000
295.82	-0.000
296.03	-0.000
296.24	-0.000
296.45	2.406
296.66	1.860
296.87	1.894
297.09	1.975
297.30	2.226
297.51	1.750
297.72	1.717
297.93	1.823
298.14	1.787
298.35	1.730
298.56	1.705
298.77	1.858
298.99	1.814
299.20	1.774
299.41	1.761
299.62	1.728
299.83	1.714
300.04	1.632
300.25	1.632
300.46	1.674
300.67	1.642
300.88	1.582
301.10	1.582
301.31	1.667
301.52	1.603
301.73	1.536
301.94	1.536
302.15	1.554
302.36	1.508
302.57	1.436
302.78	1.448
302.99	1.499
303.20	1.522
303.41	1.425
303.63	1.407
303.84	1.416
304.05	1.415
304.26	1.354
304.47	1.368
304.68	1.367
304.89	1.359
305.10	1.316
305.31	1.297
305.52	1.344
305.73	1.335
305.94	1.291
306.15	1.285
306.37	1.308
306.58	1.314
306.79	1.277
307.00	1.306
307.21	1.349
307.42	1.340
307.63	1.304
307.84	1.268
308.05	1.310
308.26	1.310
308.47	1.282
308.68	1.275
308.89	1.275
309.10	1.271
309.31	1.228
309.52	1.219
309.73	1.233
309.95	1.227
310.16	1.198
310.37	1.186
310.58	1.206
310.79	1.203
311.00	1.200
311.21	1.200
311.42	1.202
311.63	1.196
311.84	1.173
312.05	1.173
312.26	1.196
312.47	1.209
312.68	1.182
312.89	1.165
313.10	1.171
313.31	1.143
313.52	1.147
313.73	1.149
313.94	1.153
314.15	1.137
314.36	1.116
314.57	1.110
314.78	1.099
314.99	1.094
315.21	1.082
315.42	1.088
315.63	1.103
315.84	1.079
316.05	1.064
316.26	1.072
316.47	1.090
316.68	1.087
316.89	1.064
317.10	1.084
317.31	1.090
317.52	1.091
317.73	1.071
317.94	1.069
318.15	1.112
318.36	1.110
318.57	1.091
318.78	1.080
318.99	1.117
319.20	1.114
319.41	1.079
319.62	1.082
319.83	1.095
320.04	1.089
320.25	1.075
320.46	1.043
320.67	1.048
320.88	1.044
321.09	1.030
321.30	1.014
321.51	1.029
321.72	1.027
321.93	1.008
322.14	1.001
322.35	1.028
322.56	1.030
322.77	1.018
322.98	1.029
323.19	1.038
323.40	1.045
323.61	1.023
323.82	1.019
324.03	1.027
324.24	1.025
324.45	1.012
324.66	0.992
324.87	0.986
325.08	0.985
325.29	0.964
325.50	0.957
325.71	0.961
325.92	0.967
326.13	0.953
326.34	0.951
326.55	0.959
326.76	0.959
326.97	0.949
327.18	0.944
327.39	0.970
327.60	0.973
327.80	0.973
328.01	0.972
328.22	0.974
328.43	0.977
328.64	0.966
328.85	0.972
329.06	0.975
329.27	0.975
329.48	0.970
329.69	0.950
329.90	0.961
330.11	0.953
330.32	0.945
330.53	0.938
330.74	0.937
330.95	0.935
331.16	0.920
331.37	0.927
331.58	0.927
331.79	0.926
332.00	0.917
332.21	0.909
332.42	0.914
332.63	0.906
332.83	0.902
333.04	0.905
333.25	0.918
333.46	0.916
333.67	0.901
333.88	0.904
334.09	0.914
334.30	0.912
334.51	0.905
334.72	0.900
334.93	0.903
335.14	0.901
335.35	0.893
335.56	0.888
335.77	0.897
335.98	0.896
336.18	0.889
336.39	0.882
336.60	0.885
336.81	0.882
337.02	0.881
337.23	0.886
337.44	0.891
337.65	0.893
337.86	0.882
338.07	0.877
338.28	0.881
338.49	0.879
338.70	0.871
338.91	0.878
339.11	0.886
339.32	0.881
339.53	0.869
339.74	0.865
339.95	0.862
340.16	0.860
340.37	0.852
340.58	0.852
340.79	0.856
341.00	0.857
341.21	0.845
341.41	0.846
341.62	0.848
341.83	0.848
342.04	0.844
342.25	0.854
342.46	0.858
342.67	0.857
342.88	0.848
343.09	0.847
343.30	0.855
343.50	0.858
343.71	0.847
343.92	0.846
344.13	0.851
344.34	0.850
344.55	0.834
344.76	0.833
344.97	0.838
345.18	0.837
345.38	0.834
345.59	0.828
345.80	0.828
346.01	0.827
346.22	0.822
346.43	0.816
346.64	0.825
346.85	0.824
347.06	0.817
347.26	0.817
347.47	0.821
347.68	0.815
347.89	0.812
348.10	0.807
348.31	0.811
348.52	0.812
348.73	0.809
348.93	0.806
349.14	0.810
349.35	0.809
349.56	0.804
349.77	0.799
349.98	0.806
350.19	0.802
350.39	0.798
350.60	0.795
350.81	0.810
351.02	0.809
351.23	0.804
351.44	0.805
351.65	0.808
351.86	0.805
352.06	0.805
352.27	0.805
352.48	0.807
352.69	0.807
352.90	0.800
353.11	0.787
353.31	0.794
353.52	0.790
353.73	0.782
353.94	0.783
354.15	0.789
354.36	0.788
354.57	0.779
354.77	0.782
354.98	0.781
355.19	0.781
355.40	0.780
355.61	0.786
355.82	0.790
356.02	0.789
356.23	0.783
356.44	0.784
356.65	0.788
356.86	0.788
357.07	0.781
357.27	0.784
357.48	0.786
357.69	0.783
357.90	0.768
358.11	0.765
358.32	0.769
358.52	0.772
358.73	0.762
358.94	0.763
359.15	0.768
359.36	0.767
359.56	0.763
359.77	0.760
359.98	0.766
360.19	0.765
360.40	0.762
360.61	0.762
360.81	0.760
361.02	0.761
361.23	0.753
361.44	0.752
361.65	0.753
361.85	0.753
362.06	0.751
362.27	0.754
362.48	0.754
362.69	0.756
362.89	0.750
363.10	0.751
363.31	0.756
363.52	0.760
363.73	0.754
363.93	0.754
364.14	0.756
364.35	0.758
364.56	0.748
364.77	0.750
364.97	0.752
365.18	0.752
365.39	0.747
365.60	0.744
365.81	0.745
366.01	0.745
366.22	0.741
366.43	0.740
366.64	0.742
366.84	0.747
367.05	0.744
367.26	0.744
367.47	0.746
367.68	0.746
367.88	0.743
368.09	0.741
368.30	0.743
368.51	0.744
368.71	0.743
368.92	0.748
369.13	0.746
369.34	0.745
369.55	0.743
369.75	0.743
369.96	0.751
370.17	0.751
370.38	0.747
370.58	0.747
370.79	0.752
371.00	0.750
371.21	0.741
371.41	0.747
371.62	0.750
371.83	0.746
372.04	0.744
372.24	0.737
372.45	0.738
372.66	0.737
372.87	0.734
373.07	0.730
373.28	0.730
373.49	0.734
373.70	0.723
373.90	0.723
374.11	0.732
374.32	0.731
374.53	0.730
374.73	0.730
374.94	0.732
375.15	0.733
375.36	0.731
375.56	0.741
375.77	0.740
375.98	0.742
376.19	0.739
376.39	0.733
376.60	0.736
376.81	0.736
377.02	0.734
377.22	0.733
377.43	0.732
377.64	0.733
377.84	0.723
378.05	0.728
378.26	0.733
378.47	0.733
378.67	0.729
378.88	0.727
379.09	0.728
379.30	0.729
379.50	0.726
379.71	0.729
379.92	0.732
380.12	0.731
380.33	0.722
380.54	0.718
380.75	0.725
380.95	0.726
381.16	0.723
381.37	0.724
381.57	0.725
381.78	0.726
381.99	0.725
382.20	0.724
382.40	0.728
382.61	0.729
382.82	0.726
383.02	0.719
383.23	0.722
383.44	0.723
383.64	0.721
383.85	0.724
384.06	0.726
384.27	0.725
384.47	0.723
384.68	0.723
384.89	0.729
385.09	0.728
385.30	0.727
385.51	0.726
385.71	0.728
385.92	0.728
386.13	0.727
386.33	0.729
386.54	0.730
386.75	0.729
386.95	0.726
387.16	0.721
387.37	0.724
387.58	0.724
387.78	0.722
387.99	0.720
388.20	0.723
388.40	0.719
388.61	0.715
388.82	0.718
389.02	0.721
389.23	0.720
389.44	0.719
389.64	0.720
389.85	0.730
390.06	0.730
390.26	0.731
390.47	0.730
390.68	0.732
390.88	0.730
391.09	0.726
391.30	0.725
391.50	0.725
391.71	0.724
391.92	0.721
392.12	0.713
392.33	0.713
392.53	0.713
392.74	0.713
392.95	0.713
393.15	0.716
393.36	0.718
393.57	0.716
393.77	0.719
393.98	0.721
394.19	0.721
394.39	0.721
394.60	0.722
394.81	0.724
395.01	0.722
395.22	0.720
395.43	0.721
395.63	0.725
395.84	0.726
396.04	0.723
396.25	0.724
396.46	0.727
396.66	0.725
396.87	0.722
397.08	0.720
397.28	0.722
397.49	0.723
397.69	0.719
397.90	0.714
398.11	0.716
398.31	0.716
398.52	0.712
398.73	0.714
398.93	0.713
399.14	0.712
399.34	0.711
399.55	0.713
399.76	0.713
399.96	0.715
400.17	0.713
400.37	0.711
400.58	0.719
400.79	0.720
400.99	0.718
401.20	0.724
401.41	0.726
401.61	0.727
401.82	0.731
402.02	0.731
402.23	0.732
402.44	0.731
402.64	0.732
402.85	0.726
403.05	0.725
403.26	0.723
403.47	0.717
403.67	0.716
403.88	0.717
404.08	0.710
404.29	0.709
404.50	0.708
404.70	0.710
404.91	0.708
405.11	0.706
405.32	0.707
405.52	0.707
405.73	0.707
405.94	0.705
406.14	0.708
406.35	0.710
406.55	0.710
406.76	0.707
406.97	0.707
407.17	0.709
407.38	0.709
407.58	0.707
407.79	0.709
407.99	0.712
408.20	0.713
408.41	0.709
408.61	0.707
408.82	0.709
409.02	0.709
409.23	0.707
409.43	0.706
409.64	0.707
409.84	0.707
410.05	0.704
410.26	0.703
410.46	0.702
410.67	0.701
410.87	0.702
411.08	0.703
411.28	0.705
411.49	0.707
411.69	0.704
411.90	0.705
412.11	0.707
412.31	0.707
412.52	0.706
412.72	0.708
412.93	0.709
413.13	0.708
413.34	0.705
413.54	0.706
413.75	0.708
413.95	0.708
414.16	0.705
414.37	0.708
414.57	0.708
414.78	0.710
414.98	0.707
415.19	0.708
415.39	0.706
415.60	0.708
415.80	0.707
416.01	0.705
416.21	0.707
416.42	0.707
416.62	0.702
416.83	0.703
417.03	0.702
417.24	0.703
417.44	0.700
417.65	0.699
417.86	0.700
418.06	0.697
418.27	0.695
418.47	0.697
418.68	0.697
418.88	0.698
419.09	0.695
419.29	0.696
419.50	0.697
419.70	0.697
419.91	0.695
420.11	0.693
420.32	0.696
420.52	0.695
420.73	0.694
420.93	0.695
421.14	0.698
421.34	0.696
421.55	0.693
421.75	0.692
421.96	0.693
422.16	0.693
422.37	0.692
422.57	0.690
422.78	0.691
422.98	0.687
423.19	0.685
423.39	0.683
423.60	0.687
423.80	0.689
424.01	0.687
424.21	0.689
424.42	0.690
424.62	0.690
424.83	0.689
425.03	0.690
425.23	0.692
425.44	0.692
425.64	0.692
425.85	0.691
426.05	0.691
426.26	0.692
426.46	0.688
426.67	0.688
426.87	0.692
427.08	0.693
427.28	0.690
427.49	0.691
427.69	0.692
427.90	0.691
428.10	0.688
428.31	0.688
428.51	0.690
428.71	0.690
428.92	0.691
429.12	0.688
429.33	0.689
429.53	0.693
429.74	0.697
429.94	0.698
430.15	0.697
430.35	0.697
430.56	0.694
430.76	0.693
430.96	0.694
431.17	0.690
431.37	0.687
431.58	0.685
431.78	0.682
431.99	0.674
432.19	0.676
432.40	0.677
432.60	0.678
432.80	0.680
433.01	0.678
433.21	0.679
433.42	0.681
433.62	0.681
433.83	0.681
434.03	0.683
434.23	0.687
434.44	0.686
434.64	0.684
434.85	0.689
435.05	0.690
435.26	0.691
435.46	0.689
435.66	0.689
435.87	0.689
436.07	0.689
436.28	0.684
436.48	0.682
436.69	0.681
436.89	0.681
437.09	0.675
437.30	0.674
437.50	0.673
437.71	0.685
437.91	0.684
438.11	0.685
438.32	0.689
438.52	0.690
438.73	0.688
438.93	0.686
439.13	0.686
439.34	0.690
439.54	0.687
439.75	0.688
439.95	0.678
440.15	0.682
440.36	0.681
440.56	0.678
440.77	0.679
440.97	0.679
441.17	0.678
441.38	0.679
441.58	0.676
441.79	0.676
441.99	0.674
442.19	0.673
442.40	0.671
442.60	0.670
442.81	0.668
443.01	0.669
443.21	0.669
443.42	0.669
443.62	0.668
443.82	0.667
444.03	0.669
444.23	0.669
444.44	0.669
444.64	0.668
444.84	0.669
445.05	0.669
445.25	0.666
445.45	0.666
445.66	0.669
445.86	0.667
446.06	0.669
446.27	0.668
446.47	0.671
446.68	0.670
446.88	0.669
447.08	0.668
447.29	0.670
447.49	0.670
447.69	0.670
447.90	0.669
448.10	0.672
448.30	0.670
448.51	0.671
448.71	0.669
448.91	0.672
449.12	0.670
449.32	0.672
449.52	0.670
449.73	0.674
449.93	0.672
450.14	0.673
450.34	0.672
450.54	0.674
450.75	0.671
450.95	0.670
451.15	0.668
451.36	0.671
451.56	0.668
451.76	0.667
451.97	0.664
452.17	0.665
452.37	0.663
452.58	0.660
452.78	0.660
452.98	0.662
453.19	0.662
453.39	0.662
453.59	0.661
453.79	0.662
454.00	0.662
454.20	0.661
454.40	0.662
454.61	0.664
454.81	0.665
455.01	0.663
455.22	0.664
455.42	0.666
455.62	0.664
455.83	0.663
456.03	0.667
456.23	0.667
456.44	0.668
456.64	0.667
456.84	0.666
457.04	0.667
457.25	0.666
457.45	0.662
457.65	0.661
457.86	0.662
458.06	0.660
458.26	0.656
458.47	0.655
458.67	0.657
458.87	0.657
459.07	0.655
459.28	0.657
459.48	0.659
459.68	0.659
459.89	0.658
460.09	0.657
460.29	0.658
460.49	0.660
460.70	0.659
460.90	0.658
461.10	0.659
461.31	0.658
461.51	0.655
461.71	0.656
461.91	0.658
462.12	0.658
462.32	0.657
462.52	0.658
462.72	0.661
462.93	0.661
463.13	0.659
463.33	0.661
463.53	0.663
463.74	0.662
463.94	0.658
464.14	0.658
464.35	0.660
464.55	0.660
464.75	0.658
464.95	0.655
465.16	0.657
465.36	0.656
465.56	0.655
465.76	0.653
465.97	0.654
466.17	0.655
466.37	0.653
466.57	0.654
466.78	0.655
466.98	0.655
467.18	0.653
467.38	0.652
467.59	0.654
467.79	0.656
467.99	0.655
468.19	0.657
468.39	0.659
468.60	0.659
468.80	0.657
469.00	0.658
469.20	0.659
469.41	0.659
469.61	0.658
469.81	0.658
470.01	0.657
470.22	0.658
470.42	0.656
470.62	0.654
470.82	0.656
471.02	0.655
471.23	0.653
471.43	0.653
471.63	0.656
471.83	0.656
472.04	0.654
472.24	0.653
472.44	0.658
472.64	0.659
472.84	0.657
473.05	0.656
473.25	0.659
473.45	0.658
473.65	0.657
473.85	0.657
474.06	0.659
474.26	0.658
474.46	0.659
474.66	0.655
474.86	0.656
475.07	0.655
475.27	0.654
475.47	0.651
475.67	0.652
475.87	0.653
476.08	0.649
476.28	0.650
476.48	0.651
476.68	0.650
476.88	0.648
477.09	0.649
477.29	0.651
477.49	0.651
477.69	0.650
477.89	0.650
478.09	0.649
478.30	0.652
478.50	0.649
478.70	0.648
478.90	0.649
479.10	0.652
479.31	0.652
479.51	0.650
479.71	0.652
479.91	0.652
480.11	0.651
480.31	0.651
480.52	0.650
480.72	0.650
480.92	0.649
481.12	0.648
481.32	0.646
481.52	0.644
481.72	0.644
481.93	0.647
482.13	0.648
482.33	0.647
482.53	0.646
482.73	0.646
482.93	0.647
483.14	0.647
483.34	0.646
483.54	0.647
483.74	0.646
483.94	0.646
484.14	0.642
484.34	0.642
484.55	0.642
484.75	0.642
484.95	0.640
485.15	0.639
485.35	0.640
485.55	0.639
485.75	0.637
485.96	0.637
486.16	0.638
486.36	0.638
486.56	0.636
486.76	0.636
486.96	0.637
487.16	0.636
487.36	0.634
487.57	0.634
487.77	0.636
487.97	0.636
488.17	0.634
488.37	0.633
488.57	0.634
488.77	0.634
488.97	0.632
489.18	0.632
489.38	0.634
489.58	0.635
489.78	0.634
489.98	0.633
490.18	0.634
490.38	0.634
490.58	0.633
490.78	0.633
490.98	0.635
491.19	0.635
491.39	0.634
491.59	0.633
491.79	0.636
491.99	0.636
492.19	0.637
492.39	0.640
492.59	0.640
492.79	0.642
492.99	0.642
493.20	0.642
493.40	0.643
493.60	0.644
493.80	0.643
494.00	0.640
494.20	0.641
494.40	0.640
494.60	0.638
494.80	0.642
495.00	0.641
495.20	0.639
495.40	0.638
495.61	0.640
495.81	0.640
496.01	0.643
496.21	0.644
496.41	0.643
496.61	0.644
496.81	0.643
497.01	0.638
497.21	0.638
497.41	0.639
497.61	0.638
497.81	0.635
498.01	0.635
498.21	0.633
498.41	0.631
498.61	0.631
498.82	0.633
499.02	0.635
499.22	0.636
499.42	0.635
499.62	0.636
499.82	0.637
500.02	0.638
500.22	0.637
500.42	0.639
500.62	0.639
500.82	0.639
501.02	0.637
501.22	0.637
501.42	0.637
501.62	0.639
501.82	0.638
502.02	0.639
502.22	0.638
502.42	0.640
502.62	0.638
502.82	0.638
503.02	0.639
503.22	0.638
503.42	0.636
503.63	0.636
503.83	0.634
504.03	0.632
504.23	0.631
504.43	0.631
504.63	0.632
504.83	0.632
505.03	0.631
505.23	0.632
505.43	0.634
505.63	0.635
505.83	0.635
506.03	0.636
506.23	0.639
506.43	0.639
506.63	0.638
506.83	0.636
507.03	0.638
507.23	0.639
507.43	0.636
507.63	0.637
507.83	0.637
508.03	0.638
508.23	0.637
508.43	0.635
508.63	0.637
508.83	0.638
509.03	0.639
509.23	0.639
509.43	0.639
509.63	0.640
509.83	0.638
510.03	0.641
510.23	0.642
510.43	0.643
510.63	0.644
510.83	0.644
511.03	0.645
511.23	0.642
511.43	0.642
511.63	0.644
511.83	0.646
512.03	0.646
512.22	0.642
512.42	0.643
512.62	0.643
512.82	0.643
513.02	0.641
513.22	0.641
513.42	0.643
513.62	0.645
513.82	0.643
514.02	0.643
514.22	0.645
514.42	0.645
514.62	0.645
514.82	0.645
515.02	0.647
515.22	0.650
515.42	0.649
515.62	0.651
515.82	0.650
516.02	0.651
516.22	0.651
516.42	0.651
516.62	0.653
516.82	0.655
517.01	0.653
517.21	0.653
517.41	0.657
517.61	0.657
517.81	0.653
518.01	0.652
518.21	0.652
518.41	0.651
518.61	0.650
518.81	0.650
519.01	0.650
519.21	0.651
519.41	0.650
519.61	0.644
519.81	0.647
520.00	0.647
520.20	0.647
520.40	0.650
520.60	0.651
520.80	0.651
521.00	0.651
521.20	0.652
521.40	0.657
521.60	0.657
521.80	0.656
522.00	0.656
522.20	0.659
522.39	0.659
522.59	0.655
522.79	0.657
522.99	0.659
523.19	0.657
523.39	0.655
523.59	0.652
523.79	0.656
523.99	0.658
524.19	0.657
524.38	0.656
524.58	0.657
524.78	0.657
524.98	0.655
525.18	0.657
525.38	0.659
525.58	0.659
525.78	0.657
525.98	0.654
526.18	0.654
526.37	0.653
526.57	0.655
526.77	0.655
526.97	0.656
527.17	0.657
527.37	0.653
527.57	0.655
527.77	0.657
527.96	0.657
528.16	0.656
528.36	0.657
528.56	0.659
528.76	0.656
528.96	0.655
529.16	0.656
529.36	0.659
529.55	0.659
529.75	0.656
529.95	0.656
530.15	0.658
530.35	0.661
530.55	0.658
530.75	0.658
530.94	0.661
531.14	0.662
531.34	0.661
531.54	0.658
531.74	0.661
531.94	0.664
532.13	0.662
532.33	0.664
532.53	0.663
532.73	0.663
532.93	0.661
533.13	0.662
533.33	0.661
533.52	0.662
533.72	0.666
533.92	0.664
534.12	0.662
534.32	0.662
534.52	0.661
534.71	0.662
534.91	0.664
535.11	0.666
535.31	0.664
535.51	0.666
535.71	0.668
535.90	0.665
536.10	0.666
536.30	0.668
536.50	0.669
536.70	0.669
536.89	0.667
537.09	0.666
537.29	0.668
537.49	0.669
537.69	0.667
537.89	0.667
538.08	0.667
538.28	0.665
538.48	0.665
538.68	0.667
538.88	0.669
539.07	0.668
539.27	0.667
539.47	0.666
539.67	0.666
539.87	0.667
540.06	0.665
540.26	0.666
540.46	0.669
540.66	0.666
540.86	0.663
541.05	0.664
541.25	0.666
541.45	0.666
541.65	0.664
541.84	0.665
542.04	0.666
542.24	0.666
542.44	0.665
542.64	0.666
542.83	0.670
543.03	0.670
543.23	0.666
543.43	0.667
543.62	0.669
543.82	0.669
544.02	0.668
544.22	0.668
544.42	0.672
544.61	0.672
544.81	0.669
545.01	0.667
545.21	0.670
545.40	0.671
545.60	0.669
545.80	0.672
546.00	0.672
546.19	0.671
546.39	0.671
546.59	0.668
546.79	0.669
546.98	0.670
547.18	0.669
547.38	0.669
547.58	0.672
547.77	0.672
547.97	0.668
548.17	0.669
548.37	0.670
548.56	0.670
548.76	0.670
548.96	0.672
549.16	0.674
549.35	0.674
549.55	0.672
549.75	0.672
549.95	0.675
550.14	0.675
550.34	0.674
550.54	0.678
550.73	0.682
550.93	0.683
551.13	0.680
551.33	0.678
551.52	0.679
551.72	0.679
551.92	0.677
552.12	0.677
552.31	0.678
552.51	0.678
552.71	0.673
552.90	0.673
553.10	0.674
553.30	0.675
553.50	0.674
553.69	0.676
553.89	0.677
554.09	0.677
554.28	0.674
554.48	0.675
554.68	0.677
554.87	0.678
555.07	0.673
555.27	0.672
555.47	0.674
555.66	0.674
555.86	0.672
556.06	0.674
556.25	0.676
556.45	0.684
556.65	0.682
556.84	0.685
557.04	0.688
557.24	0.690
557.43	0.690
557.63	0.694
557.83	0.696
558.02	0.696
558.22	0.700
558.42	0.700
558.61	0.693
558.81	0.694
559.01	0.690
559.21	0.690
559.40	0.691
559.60	0.691
559.80	0.686
559.99	0.687
560.19	0.689
560.39	0.684
560.58	0.682
560.78	0.681
560.97	0.685
561.17	0.683
561.37	0.681
561.56	0.682
561.76	0.684
561.96	0.683
562.15	0.681
562.35	0.683
562.55	0.684
562.74	0.684
562.94	0.683
563.14	0.681
563.33	0.683
563.53	0.683
563.73	0.680
563.92	0.682
564.12	0.685
564.31	0.687
564.51	0.685
564.71	0.686
564.90	0.689
565.10	0.690
565.30	0.692
565.49	0.693
565.69	0.695
565.89	0.695
566.08	0.692
566.28	0.694
566.47	0.696
566.67	0.695
566.87	0.692
567.06	0.693
567.26	0.699
567.46	0.696
567.65	0.695
567.85	0.696
568.04	0.699
568.24	0.699
568.44	0.695
568.63	0.693
568.83	0.695
569.02	0.693
569.22	0.689
569.42	0.685
569.61	0.687
569.81	0.685
570.00	0.683
570.20	0.685
570.40	0.686
570.59	0.686
570.79	0.684
570.98	0.682
571.18	0.684
571.38	0.683
571.57	0.680
571.77	0.678
571.96	0.682
572.16	0.680
572.35	0.674
572.55	0.676
572.75	0.674
572.94	0.673
573.14	0.672
573.33	0.672
573.53	0.673
573.73	0.673
573.92	0.671
574.12	0.669
574.31	0.671
574.51	0.672
574.70	0.669
574.90	0.670
575.09	0.673
575.29	0.673
575.49	0.670
575.68	0.671
575.88	0.672
576.07	0.673
576.27	0.671
576.46	0.669
576.66	0.668
576.86	0.668
577.05	0.665
577.25	0.664
577.44	0.666
577.64	0.665
577.83	0.664
578.03	0.665
578.22	0.665
578.42	0.664
578.61	0.663
578.81	0.663
579.00	0.664
579.20	0.664
579.40	0.662
579.59	0.661
579.79	0.661
579.98	0.661
580.18	0.660
580.37	0.660
580.57	0.663
580.76	0.667
580.96	0.666
581.15	0.667
581.35	0.669
581.54	0.668
581.74	0.668
581.93	0.669
582.13	0.670
582.32	0.667
582.52	0.666
582.71	0.665
582.91	0.661
583.10	0.660
583.30	0.659
583.49	0.658
583.69	0.662
583.88	0.663
584.08	0.662
584.27	0.664
584.47	0.667
584.66	0.668
584.86	0.667
585.05	0.669
585.25	0.672
585.44	0.671
585.64	0.669
585.83	0.666
586.03	0.667
586.22	0.665
586.42	0.662
586.61	0.663
586.81	0.665
587.00	0.665
587.20	0.662
587.39	0.662
587.59	0.664
587.78	0.665
587.98	0.666
588.17	0.667
588.37	0.669
588.56	0.671
588.76	0.667
588.95	0.668
589.15	0.672
589.34	0.674
589.54	0.672
589.73	0.673
589.92	0.677
590.12	0.677
590.31	0.675
590.51	0.680
590.70	0.681
590.90	0.682
591.09	0.680
591.29	0.678
591.48	0.678
591.68	0.680
591.87	0.678
592.06	0.677
592.26	0.679
592.45	0.678
592.65	0.672
592.84	0.672
593.04	0.674
593.23	0.676
593.43	0.674
593.62	0.673
593.81	0.673
594.01	0.673
594.20	0.670
594.40	0.670
594.59	0.671
594.79	0.673
594.98	0.671
595.17	0.670
595.37	0.670
595.56	0.672
595.76	0.672
595.95	0.674
596.14	0.676
596.34	0.678
596.53	0.676
596.73	0.678
596.92	0.679
597.12	0.682
597.31	0.682
597.50	0.682
597.70	0.684
597.89	0.684
598.09	0.681
598.28	0.682
598.47	0.684
598.67	0.683
598.86	0.679
599.06	0.681
599.25	0.680
599.44	0.678
599.64	0.675
599.83	0.673
600.03	0.676
600.22	0.676
600.41	0.675
600.61	0.673
600.80	0.676
601.00	0.676
601.19	0.672
601.38	0.671
601.58	0.674
601.77	0.675
601.96	0.677
602.16	0.677
602.35	0.685
602.55	0.683
602.74	0.684
602.93	0.686
603.13	0.691
603.32	0.692
603.51	0.691
603.71	0.695
603.90	0.696
604.09	0.697
604.29	0.694
604.48	0.688
604.68	0.689
604.87	0.688
605.06	0.684
605.26	0.681
605.45	0.682
605.64	0.681
605.84	0.676
606.03	0.675
606.22	0.674
606.42	0.674
606.61	0.670
606.80	0.670
607.00	0.673
607.19	0.673
607.38	0.671
607.58	0.672
607.77	0.675
607.96	0.675
608.16	0.674
608.35	0.678
608.54	0.681
608.74	0.684
608.93	0.689
609.12	0.692
609.32	0.694
609.51	0.697
609.70	0.696
609.90	0.698
610.09	0.703
610.28	0.708
610.48	0.702
610.67	0.703
610.86	0.703
611.06	0.698
611.25	0.695
611.44	0.696
611.64	0.696
611.83	0.699
612.02	0.696
612.21	0.694
612.41	0.693
612.60	0.692
612.79	0.689
612.99	0.689
613.18	0.691
613.37	0.689
613.57	0.686
613.76	0.688
613.95	0.685
614.14	0.684
614.34	0.682
614.53	0.683
614.72	0.686
614.92	0.686
615.11	0.683
615.30	0.680
615.49	0.682
615.69	0.685
615.88	0.681
616.07	0.682
616.26	0.685
616.46	0.685
616.65	0.683
616.84	0.681
617.04	0.683
617.23	0.686
617.42	0.686
617.61	0.689
617.81	0.690
618.00	0.692
618.19	0.691
618.38	0.696
618.58	0.700
618.77	0.700
618.96	0.700
619.15	0.701
619.35	0.703
619.54	0.704
619.73	0.699
619.92	0.701
620.12	0.705
620.31	0.705
620.50	0.699
620.69	0.698
620.89	0.702
621.08	0.702
621.27	0.703
621.46	0.702
621.66	0.706
621.85	0.706
622.04	0.702
622.23	0.703
622.43	0.704
622.62	0.704
622.81	0.703
623.00	0.703
623.19	0.706
623.39	0.704
623.58	0.701
623.77	0.700
623.96	0.702
624.16	0.703
624.35	0.697
624.54	0.700
624.73	0.704
624.92	0.702
625.12	0.699
625.31	0.699
625.50	0.703
625.69	0.703
625.88	0.699
626.08	0.699
626.27	0.701
626.46	0.701
626.65	0.698
626.84	0.698
627.04	0.703
627.23	0.703
627.42	0.698
627.61	0.700
627.80	0.704
628.00	0.704
628.19	0.702
628.38	0.705
628.57	0.707
628.76	0.707
628.96	0.704
629.15	0.705
629.34	0.708
629.53	0.709
629.72	0.703
629.91	0.704
630.11	0.710
630.30	0.710
630.49	0.712
630.68	0.713
630.87	0.716
631.06	0.719
631.26	0.713
631.45	0.714
631.64	0.722
631.83	0.725
632.02	0.721
632.21	0.718
632.41	0.726
632.60	0.720
632.79	0.719
632.98	0.720
633.17	0.721
633.36	0.723
633.55	0.719
633.75	0.716
633.94	0.717
634.13	0.717
634.32	0.715
634.51	0.709
634.70	0.710
634.89	0.710
635.09	0.705
635.28	0.705
635.47	0.706
635.66	0.710
635.85	0.705
636.04	0.706
636.23	0.712
636.43	0.713
636.62	0.711
636.81	0.711
637.00	0.715
637.19	0.718
637.38	0.715
637.57	0.714
637.76	0.715
637.95	0.717
638.15	0.713
638.34	0.710
638.53	0.714
638.72	0.715
638.91	0.712
639.10	0.709
639.29	0.710
639.48	0.711
639.67	0.710
639.87	0.709
640.06	0.714
640.25	0.714
640.44	0.714
640.63	0.715
640.82	0.716
641.01	0.716
641.20	0.717
641.39	0.718
641.58	0.721
641.78	0.720
641.97	0.716
642.16	0.729
642.35	0.730
642.54	0.729
642.73	0.722
642.92	0.721
643.11	0.725
643.30	0.725
643.49	0.720
643.68	0.723
643.87	0.724
644.06	0.725
644.25	0.704
644.45	0.707
644.64	0.709
644.83	0.710
645.02	0.706
645.21	0.706
645.40	0.706
645.59	0.707
645.78	0.700
645.97	0.703
646.16	0.705
646.35	0.705
646.54	0.702
646.73	0.704
646.92	0.706
647.11	0.706
647.30	0.701
647.49	0.704
647.68	0.704
647.88	0.703
648.07	0.695
648.26	0.698
648.45	0.700
648.64	0.697
648.83	0.693
649.02	0.696
649.21	0.706
649.40	0.706
649.59	0.700
649.78	0.700
649.97	0.714
650.16	0.714
650.35	0.707
650.54	0.710
650.73	0.718
650.92	0.715
651.11	0.708
651.30	0.706
651.49	0.709
651.68	0.710
651.87	0.707
652.06	0.697
652.25	0.701
652.44	0.703
652.63	0.701
652.82	0.701
653.01	0.701
653.20	0.699
653.39	0.687
653.58	0.686
653.77	0.685
653.96	0.681
654.15	0.672
654.34	0.671
654.53	0.666
654.72	0.660
654.91	0.651
655.10	0.647
655.29	0.646
655.48	0.644
655.67	0.638
655.86	0.636
656.05	0.634
656.24	0.634
656.43	0.629
656.62	0.628
656.81	0.627
657.00	0.625
657.19	0.621
657.38	0.621
657.57	0.620
657.76	0.622
657.95	0.620
658.14	0.623
658.33	0.625
658.51	0.630
658.70	0.630
658.89	0.632
659.08	0.641
659.27	0.649
659.46	0.649
659.65	0.655
659.84	0.659
660.03	0.663
660.22	0.664
660.41	0.668
660.60	0.667
660.79	0.668
660.98	0.674
661.17	0.672
661.36	0.672
661.55	0.672
661.74	0.670
661.92	0.673
662.11	0.676
662.30	0.674
662.49	0.668
662.68	0.668
662.87	0.672
663.06	0.666
663.25	0.667
663.44	0.667
663.63	0.668
663.82	0.667
664.01	0.661
664.20	0.658
664.38	0.660
664.57	0.661
664.76	0.660
664.95	0.661
665.14	0.666
665.33	0.662
665.52	0.669
665.71	0.673
665.90	0.673
666.09	0.675
666.28	0.673
666.46	0.671
666.65	0.673
666.84	0.671
667.03	0.665
667.22	0.662
667.41	0.665
667.60	0.654
667.79	0.647
667.98	0.648
668.16	0.648
668.35	0.649
668.54	0.646
668.73	0.646
668.92	0.647
669.11	0.646
669.30	0.641
669.49	0.637
669.67	0.640
669.86	0.642
670.05	0.640
670.24	0.637
670.43	0.635
670.62	0.634
670.81	0.628
671.00	0.629
671.18	0.629
671.37	0.628
671.56	0.626
671.75	0.625
671.94	0.622
672.13	0.620
672.32	0.616
672.50	0.615
672.69	0.616
672.88	0.616
673.07	0.611
673.26	0.614
673.45	0.615
673.63	0.614
673.82	0.610
674.01	0.612
674.20	0.612
674.39	0.611
674.58	0.611
674.76	0.611
674.95	0.609
675.14	0.609
675.33	0.605
675.52	0.603
675.71	0.604
675.89	0.603
676.08	0.599
676.27	0.599
676.46	0.599
676.65	0.598
676.84	0.598
677.02	0.599
677.21	0.601
677.40	0.600
677.59	0.597
677.78	0.598
677.96	0.601
678.15	0.600
678.34	0.598
678.53	0.598
678.72	0.598
678.90	0.595
679.09	0.591
679.28	0.588
679.47	0.589
679.66	0.588
679.84	0.584
680.03	0.581
680.22	0.581
680.41	0.582
680.60	0.578
680.78	0.578
680.97	0.580
681.16	0.580
681.35	0.579
681.53	0.578
681.72	0.580
681.91	0.582
682.10	0.580
682.29	0.583
682.47	0.581
682.66	0.581
682.85	0.579
683.04	0.578
683.22	0.578
683.41	0.579
683.60	0.577
683.79	0.578
683.97	0.578
684.16	0.577
684.35	0.573
684.54	0.574
684.72	0.575
684.91	0.576
685.10	0.574
685.29	0.575
685.47	0.573
685.66	0.572
685.85	0.569
686.04	0.568
686.22	0.571
686.41	0.573
686.60	0.570
686.79	0.573
686.97	0.573
687.16	0.574
687.35	0.572
687.54	0.575
687.72	0.578
687.91	0.578
688.10	0.579
688.29	0.578
688.47	0.577
688.66	0.576
688.85	0.572
689.03	0.570
689.22	0.575
689.41	0.574
689.60	0.570
689.78	0.567
689.97	0.568
690.16	0.566
690.34	0.562
690.53	0.561
690.72	0.562
690.91	0.560
691.09	0.558
691.28	0.552
691.47	0.551
691.65	0.550
691.84	0.547
692.03	0.546
692.21	0.544
692.40	0.545
692.59	0.542
692.77	0.541
692.96	0.542
693.15	0.543
693.34	0.541
693.52	0.541
693.71	0.541
693.90	0.542
694.08	0.543
694.27	0.544
694.46	0.554
694.64	0.555
694.83	0.554
695.02	0.553
695.20	0.552
695.39	0.552
695.58	0.552
695.76	0.553
695.95	0.552
696.14	0.551
696.32	0.548
696.51	0.539
696.70	0.539
696.88	0.540
697.07	0.539
697.26	0.539
697.44	0.541
697.63	0.540
697.81	0.538
698.00	0.538
698.19	0.537
698.37	0.538
698.56	0.537
698.75	0.536
698.93	0.536
699.12	0.535
699.31	0.535
699.49	0.534
699.68	0.535
699.87	0.537
700.05	0.536
700.24	0.535
700.42	0.537
700.61	0.537
700.80	0.535
700.98	0.535
701.17	0.536
701.36	0.535
701.54	0.534
701.73	0.535
701.91	0.532
702.10	0.532
702.29	0.530
702.47	0.529
702.66	0.530
702.84	0.532
703.03	0.530
703.22	0.532
703.40	0.532
703.59	0.533
703.77	0.533
703.96	0.533
704.15	0.533
704.33	0.533
704.52	0.533
704.70	0.532
704.89	0.532
705.08	0.531
705.26	0.526
705.45	0.526
705.63	0.526
705.82	0.523
706.00	0.522
706.19	0.522
706.38	0.522
706.56	0.521
706.75	0.519
706.93	0.518
707.12	0.519
707.30	0.519
707.49	0.517
707.68	0.515
707.86	0.515
708.05	0.514
708.23	0.511
708.42	0.512
708.60	0.514
708.79	0.514
708.98	0.513
709.16	0.512
709.35	0.514
709.53	0.518
709.72	0.517
709.90	0.519
710.09	0.520
710.27	0.522
710.46	0.526
710.64	0.524
710.83	0.526
711.02	0.527
711.20	0.526
711.39	0.524
711.57	0.522
711.76	0.523
711.94	0.521
712.13	0.522
712.31	0.523
712.50	0.518
712.68	0.515
712.87	0.516
713.05	0.517
713.24	0.518
713.42	0.517
713.61	0.518
713.79	0.519
713.98	0.519
714.16	0.520
714.35	0.519
714.54	0.520
714.72	0.519
714.91	0.517
715.09	0.523
715.28	0.526
715.46	0.526
715.65	0.523
715.83	0.522
716.02	0.524
716.20	0.521
716.39	0.520
716.57	0.522
716.76	0.526
716.94	0.525
717.12	0.517
717.31	0.518
717.49	0.521
717.68	0.524
717.86	0.523
718.05	0.525
718.23	0.527
718.42	0.530
718.60	0.530
718.79	0.537
718.97	0.540
719.16	0.540
719.34	0.538
719.53	0.538
719.71	0.537
719.90	0.539
720.08	0.536
720.27	0.536
720.45	0.536
720.63	0.535
720.82	0.529
721.00	0.531
721.19	0.534
721.37	0.535
721.56	0.534
721.74	0.538
721.93	0.546
722.11	0.553
722.30	0.552
722.48	0.556
722.66	0.558
722.85	0.557
723.03	0.557
723.22	0.556
723.40	0.559
723.59	0.559
723.77	0.562
723.95	0.556
724.14	0.557
724.32	0.559
724.51	0.559
724.69	0.560
724.88	0.560
725.06	0.558
725.24	0.560
725.43	0.561
725.61	0.564
725.80	0.558
725.98	0.556
726.16	0.552
726.35	0.557
726.53	0.555
726.72	0.554
726.90	0.564
727.09	0.565
727.27	0.570
727.45	0.566
727.64	0.575
727.82	0.584
728.01	0.588
728.19	0.585
728.37	0.589
728.56	0.593
728.74	0.599
728.92	0.588
729.11	0.591
729.29	0.591
729.48	0.594
729.66	0.583
729.84	0.583
730.03	0.586
730.21	0.589
730.40	0.580
730.58	0.582
730.76	0.582
730.95	0.584
731.13	0.583
731.31	0.595
731.50	0.603
731.68	0.607
731.86	0.602
732.05	0.615
732.23	0.619
732.42	0.622
732.60	0.624
732.78	0.630
732.97	0.649
733.15	0.654
733.33	0.643
733.52	0.650
733.70	0.660
733.88	0.671
734.07	0.656
734.25	0.681
734.43	0.689
734.62	0.691
734.80	0.684
734.98	0.675
735.17	0.683
735.35	0.688
735.53	0.677
735.72	0.681
735.90	0.700
736.08	0.720
736.27	0.696
736.45	0.705
736.63	0.718
736.82	0.727
737.00	0.726
737.18	0.737
737.37	0.767
737.55	0.788
737.73	0.782
737.92	0.785
738.10	0.785
738.28	0.804
738.46	0.790
738.65	0.804
738.83	0.828
739.01	0.882
739.20	0.870
739.38	0.852
739.56	0.845
739.75	0.847
739.93	0.810
740.11	0.830
740.29	0.833
740.48	0.839
740.66	0.815
740.84	0.808
741.03	0.773
741.21	0.785
741.39	0.768
741.57	0.781
741.76	0.799
741.94	0.808
742.12	0.775
742.31	0.779
742.49	0.799
742.67	0.824
742.85	0.838
743.04	0.844
743.22	0.851
743.40	0.898
743.58	0.875
743.77	0.888
743.95	0.919
744.13	0.966
744.31	0.943
744.50	0.939
744.68	0.933
744.86	0.907
745.04	0.917
745.23	0.976
745.41	0.969
745.59	0.976
745.77	0.944
745.96	0.934
746.14	0.945
746.32	0.944
746.50	0.934
746.69	0.920
746.87	0.926
747.05	0.914
747.23	0.845
747.42	0.829
747.60	0.857
747.78	0.858
747.96	0.885
748.14	0.841
748.33	0.871
748.51	0.865
748.69	0.855
748.87	0.886
749.06	0.882
749.24	0.880
749.42	0.866
749.60	0.847
749.78	0.856
749.97	0.814
750.15	0.810
750.33	0.808
750.51	0.834
750.69	0.841
750.88	0.841
751.06	0.846
751.24	0.866
751.42	0.857
751.60	0.851
751.79	0.915
751.97	0.952
752.15	0.952
752.33	0.922
752.51	0.974
752.69	0.990
752.88	0.966
753.06	1.011
753.24	0.992
753.42	1.023
753.60	1.176
753.78	1.045
753.97	1.067
754.15	1.087
754.33	1.112
754.51	1.003
754.69	0.991
754.87	1.012
755.06	0.947
755.24	0.946
755.42	0.956
755.60	0.861
755.78	0.870
755.96	0.817
756.15	0.816
756.33	0.824
756.51	0.840
756.69	0.826
756.87	0.800
757.05	0.819
757.23	0.808
757.42	0.776
757.60	0.775
757.78	0.767
757.96	0.766
758.14	0.751
758.32	0.736
758.50	0.747
758.69	0.747
758.87	0.736
759.05	0.742
759.23	0.749
759.41	0.750
759.59	0.742
759.77	0.763
759.95	0.789
760.13	0.832
760.32	0.830
760.50	0.825
760.68	0.848
760.86	0.852
761.04	0.823
761.22	0.828
761.40	0.873
761.58	0.875
761.76	0.847
761.95	0.832
762.13	0.790
762.31	0.795
762.49	0.766
762.67	0.783
762.85	0.793
763.03	0.784
763.21	0.766
763.39	0.749
763.57	0.753
763.75	0.750
763.94	0.734
764.12	0.737
764.30	0.757
764.48	0.762
764.66	0.726
764.84	0.725
765.02	0.766
765.20	0.773
765.38	0.755
765.56	0.760
765.74	0.797
765.92	0.799
766.10	0.807
766.28	0.799
766.46	0.827
766.65	0.829
766.83	0.815
767.01	0.799
767.19	0.806
767.37	0.804
767.55	0.791
767.73	0.771
767.91	0.775
768.09	0.764
768.27	0.755
768.45	0.745
768.63	0.750
768.81	0.749
768.99	0.723
769.17	0.746
769.35	0.760
769.53	0.759
769.71	0.741
769.89	0.748
770.07	0.752
770.25	0.734
770.43	0.714
770.61	0.738
770.79	0.748
770.97	0.756
771.15	0.728
771.33	0.731
771.51	0.735
771.69	0.745
771.87	0.749
772.05	0.757
772.24	0.767
772.42	0.774
772.60	0.750
772.78	0.804
772.96	0.833
773.14	0.829
773.32	0.806
773.49	0.812
773.67	0.811
773.85	0.793
774.03	0.779
774.21	0.813
774.39	0.826
774.57	0.850
774.75	0.783
774.93	0.777
775.11	0.800
775.29	0.807
775.47	0.804
775.65	0.811
775.83	0.831
776.01	0.852
776.19	0.802
776.37	0.802
776.55	0.800
776.73	0.797
776.91	0.791
777.09	0.774
777.27	0.772
777.45	0.764
777.63	0.743
777.81	0.738
777.99	0.726
778.17	0.725
778.35	0.706
778.53	0.696
778.71	0.700
778.89	0.690
779.07	0.678
779.24	0.681
779.42	0.685
779.60	0.702
779.78	0.698
779.96	0.703
780.14	0.711
780.32	0.730
780.50	0.712
780.68	0.711
780.86	0.705
781.04	0.724
781.22	0.728
781.40	0.738
781.58	0.728
781.75	0.722
781.93	0.706
782.11	0.706
782.29	0.693
782.47	0.692
782.65	0.680
782.83	0.705
783.01	0.697
783.19	0.692
783.37	0.677
783.55	0.681
783.72	0.697
783.90	0.706
784.08	0.699
784.26	0.712
784.44	0.733
784.62	0.736
784.80	0.706
784.98	0.714
785.16	0.720
785.33	0.732
785.51	0.718
785.69	0.705
785.87	0.704
786.05	0.716
786.23	0.709
786.41	0.709
786.59	0.716
786.77	0.713
786.94	0.699
787.12	0.703
787.30	0.705
787.48	0.702
787.66	0.691
787.84	0.695
788.02	0.684
788.19	0.681
788.37	0.666
788.55	0.667
788.73	0.668
788.91	0.663
789.09	0.646
789.27	0.635
789.44	0.649
789.62	0.654
789.80	0.661
789.98	0.687
790.16	0.675
790.34	0.671
790.51	0.658
790.69	0.677
790.87	0.682
791.05	0.680
791.23	0.676
791.41	0.675
791.58	0.686
791.76	0.665
791.94	0.633
792.12	0.643
792.30	0.647
792.48	0.644
792.65	0.637
792.83	0.643
793.01	0.650
793.19	0.648
793.37	0.633
793.54	0.627
793.72	0.637
793.90	0.637
794.08	0.626
794.26	0.626
794.43	0.636
794.61	0.621
794.79	0.611
794.97	0.610
795.15	0.615
795.32	0.619
795.50	0.609
795.68	0.605
795.86	0.609
796.04	0.612
796.21	0.607
796.39	0.604
796.57	0.618
796.75	0.626
796.92	0.625
797.10	0.630
797.28	0.633
797.46	0.635
797.64	0.637
797.81	0.643
797.99	0.648
798.17	0.651
798.35	0.646
798.52	0.648
798.70	0.644
798.88	0.652
799.06	0.650
799.23	0.654
799.41	0.662
799.59	0.656
799.77	0.644
799.94	0.651
800.12	0.661
800.30	0.677
800.48	0.677
800.65	0.679
800.83	0.669
801.01	0.660
801.19	0.659
801.36	0.654
801.54	0.658
801.72	0.668
801.90	0.656
802.07	0.650
802.25	0.637
802.43	0.622
802.60	0.617
802.78	0.625
802.96	0.630
803.14	0.624
803.31	0.624
803.49	0.625
803.67	0.621
803.84	0.623
804.02	0.617
804.20	0.618
804.38	0.623
804.55	0.622
804.73	0.606
804.91	0.607
805.08	0.619
805.26	0.615
805.44	0.676
805.61	0.680
805.79	0.680
805.97	0.680
806.15	0.673
806.32	0.668
806.50	0.674
806.68	0.676
806.85	0.668
807.03	0.658
807.21	0.674
807.38	0.608
807.56	0.598
807.74	0.607
807.91	0.613
808.09	0.613
808.27	0.630
808.44	0.656
808.62	0.664
808.80	0.666
808.97	0.660
809.15	0.654
809.33	0.671
809.50	0.679
809.68	0.665
809.86	0.671
810.03	0.703
810.21	0.684
810.39	0.667
810.56	0.674
810.74	0.698
810.91	0.768
811.09	0.756
811.27	0.773
811.44	0.779
811.62	0.782
811.80	0.768
811.97	0.740
812.15	0.740
812.33	0.736
812.50	0.721
812.68	0.709
812.85	0.655
813.03	0.657
813.21	0.627
813.38	0.621
813.56	0.623
813.74	0.634
813.91	0.640
814.09	0.668
814.26	0.663
814.44	0.667
814.62	0.656
814.79	0.660
814.97	0.665
815.14	0.670
815.32	0.672
815.50	0.688
815.67	0.691
815.85	0.681
816.02	0.667
816.20	0.671
816.38	0.685
816.55	0.689
816.73	0.688
816.90	0.698
817.08	0.727
817.26	0.733
817.43	0.714
817.61	0.734
817.78	0.755
817.96	0.740
818.13	0.729
818.31	0.730
818.49	0.744
818.66	0.737
818.84	0.722
819.01	0.700
819.19	0.707
819.36	0.706
819.54	0.680
819.71	0.719
819.89	0.731
820.07	0.744
820.24	0.734
820.42	0.734
820.59	0.752
820.77	0.775
820.94	0.770
821.12	0.789
821.29	0.805
821.47	0.806
821.64	0.742
821.82	0.756
822.00	0.754
822.17	0.755
822.35	0.748
822.52	0.752
822.70	0.739
822.87	0.747
823.05	0.726
823.22	0.736
823.40	0.759
823.57	0.780
823.75	0.763
823.92	0.786
824.10	0.801
824.27	0.838
824.45	0.823
824.62	0.880
824.80	0.895
824.97	0.908
825.15	0.897
825.32	0.913
825.50	0.916
825.67	0.923
825.85	0.900
826.02	0.918
826.20	0.942
826.37	1.061
826.55	0.982
826.72	1.154
826.90	1.220
827.07	1.275
827.25	1.210
827.42	1.362
827.60	1.500
827.77	1.645
827.95	1.607
828.12	1.684
828.30	1.374
828.47	1.506
828.65	1.177
828.82	1.229
829.00	1.272
829.17	1.351
829.34	1.335
829.52	1.368
829.69	-0.000
829.87	-0.000
830.04	-0.000
830.22	-0.000
830.39	-0.000
830.57	-0.000
830.74	-0.000
830.92	-0.000
831.09	-0.000
831.26	-0.000
831.44	-0.000
831.61	-0.000
831.79	-0.000
831.96	-0.000
832.14	-0.000
832.31	-0.000
832.49	-0.000
832.66	-0.000
832.83	-0.000
833.01	-0.000
833.18	-0.000
833.36	-0.000
833.53	-0.000
833.70	-0.000
833.88	-0.000
834.05	-0.000
834.23	-0.000
834.40	-0.000
834.58	-0.000
834.75	-0.000
834.92	-0.000
835.10	-0.000
835.27	-0.000
835.45	-0.000
835.62	-0.000
835.79	-0.000
835.97	-0.000
836.14	-0.000
836.32	-0.000
836.49	-0.000
836.66	-0.000
836.84	-0.000
837.01	-0.000
837.18	-0.000
837.36	-0.000
837.53	-0.000
837.71	-0.000
837.88	-0.000
838.05	-0.000
838.23	-0.000
838.40	-0.000
838.58	-0.000
838.75	-0.000
838.92	-0.000
839.10	-0.000
839.27	-0.000
839.44	-0.000
839.62	-0.000
839.79	-0.000
839.96	-0.000
840.14	-0.000
840.31	-0.000
840.48	-0.000
840.66	-0.000
840.83	-0.000
841.01	-0.000
841.18	-0.000
841.35	-0.000
841.53	-0.000
841.70	-0.000
841.87	-0.000
842.05	-0.000
842.22	-0.000
842.39	-0.000
842.57	-0.000
842.74	-0.000
842.91	-0.000
843.09	-0.000
843.26	-0.000
843.43	-0.000
843.60	-0.000
843.78	-0.000
843.95	-0.000
844.12	-0.000
844.30	-0.000
844.47	-0.000
844.64	-0.000
844.82	-0.000
844.99	-0.000
845.16	-0.000
845.34	-0.000
845.51	-0.000
845.68	-0.000
845.85	-0.000
846.03	-0.000
846.20	-0.000
846.37	-0.000
846.55	-0.000
846.72	-0.000
846.89	-0.000
847.06	-0.000
847.24	-0.000
847.41	-0.000
847.58	-0.000
847.76	-0.000
847.93	-0.000
848.10	-0.000
848.27	-0.000
848.45	-0.000
848.62	-0.000
848.79	-0.000
848.97	-0.000
849.14	-0.000
849.31	-0.000
849.48	-0.000
849.66	-0.000
849.83	-0.000
850.00	-0.000
850.17	-0.000
850.35	-0.000
850.52	-0.000
850.69	-0.000
850.86	-0.000
851.04	-0.000
851.21	-0.000
851.38	-0.000
851.55	-0.000
851.72	-0.000
851.90	-0.000
852.07	-0.000
852.24	-0.000
852.41	-0.000
852.59	-0.000
852.76	-0.000
852.93	-0.000
853.10	-0.000
853.28	-0.000
853.45	-0.000
853.62	-0.000
853.79	-0.000
853.96	-0.000
854.14	-0.000
854.31	-0.000
854.48	-0.000
854.65	-0.000
854.82	-0.000
855.00	-0.000
855.17	-0.000
855.34	-0.000
855.51	-0.000
855.68	-0.000
855.86	-0.000
856.03	-0.000
856.20	-0.000
856.37	-0.000
856.54	-0.000
856.72	-0.000
856.89	-0.000
857.06	-0.000
857.23	-0.000
857.40	-0.000
857.57	-0.000
857.75	-0.000
857.92	-0.000
858.09	-0.000
858.26	-0.000
858.43	-0.000
858.60	-0.000
858.78	-0.000
858.95	-0.000
859.12	-0.000
859.29	-0.000
859.46	-0.000
859.63	-0.000
859.81	-0.000
859.98	-0.000
860.15	-0.000
860.32	-0.000
860.49	-0.000
860.66	-0.000
860.83	-0.000
861.01	-0.000
861.18	-0.000
861.35	-0.000
861.52	-0.000
861.69	-0.000
861.86	-0.000
862.03	-0.000
862.21	-0.000
862.38	-0.000
862.55	-0.000
862.72	-0.000
862.89	-0.000
863.06	-0.000
863.23	-0.000
863.40	-0.000
863.58	-0.000
863.75	-0.000
863.92	-0.000
864.09	-0.000
864.26	-0.000
864.43	-0.000
864.60	-0.000
864.77	-0.000
864.94	-0.000
865.11	-0.000
865.29	-0.000
865.46	-0.000
865.63	-0.000
865.80	-0.000
865.97	-0.000
866.14	-0.000
866.31	-0.000
866.48	-0.000
866.65	-0.000
866.82	-0.000
866.99	-0.000
867.16	-0.000
867.34	-0.000
867.51	-0.000
867.68	-0.000
867.85	-0.000
868.02	-0.000
868.19	-0.000
868.36	-0.000
868.53	-0.000
868.70	-0.000
868.87	-0.000
869.04	-0.000
869.21	-0.000
869.38	-0.000
869.55	-0.000
869.72	-0.000
869.89	-0.000
870.06	-0.000
870.24	-0.000
870.41	-0.000
870.58	-0.000
870.75	-0.000
870.92	-0.000
871.09	-0.000
871.26	-0.000
871.43	-0.000
871.60	-0.000
871.77	-0.000
871.94	-0.000
872.11	-0.000
872.28	-0.000
872.45	-0.000
872.62	-0.000
872.79	-0.000
872.96	-0.000
873.13	-0.000
873.30	-0.000
873.47	-0.000
873.64	-0.000
873.81	-0.000
873.98	-0.000
874.15	-0.000
874.32	-0.000
874.49	-0.000
874.66	-0.000
874.83	-0.000
875.00	-0.000
875.17	-0.000
875.34	-0.000
875.51	-0.000
875.68	-0.000
875.85	-0.000
876.02	-0.000
876.19	-0.000
876.36	-0.000
876.53	-0.000
876.70	-0.000
876.87	-0.000
877.04	-0.000
877.21	-0.000
877.38	-0.000
877.55	-0.000
877.72	-0.000
877.89	-0.000
878.06	-0.000
878.23	-0.000
878.39	-0.000
878.56	-0.000
878.73	-0.000
878.90	-0.000
879.07	-0.000
879.24	-0.000
879.41	-0.000
879.58	-0.000
879.75	-0.000
879.92	-0.000
880.09	-0.000
880.26	-0.000
880.43	-0.000
880.60	-0.000
880.77	-0.000
880.94	-0.000
881.11	-0.000
881.27	-0.000
881.44	-0.000
881.61	-0.000
881.78	-0.000
881.95	-0.000
882.12	-0.000
882.29	-0.000
882.46	-0.000
882.63	-0.000
882.80	-0.000
882.97	-0.000
883.14	-0.000
883.30	-0.000
883.47	-0.000
883.64	-0.000
883.81	-0.000
883.98	-0.000
884.15	-0.000
884.32	-0.000
884.49	-0.000
884.66	-0.000
884.82	-0.000
884.99	-0.000
885.16	-0.000
885.33	-0.000
885.50	-0.000
885.67	-0.000
885.84	-0.000
886.01	-0.000
886.17	-0.000
886.34	-0.000
886.51	-0.000
886.68	-0.000
886.85	-0.000
887.02	-0.000
887.19	-0.000
887.36	-0.000
887.52	-0.000
887.69	-0.000
887.86	-0.000
888.03	-0.000
888.20	-0.000
888.37	-0.000
888.54	-0.000
888.70	-0.000
888.87	-0.000
889.04	-0.000
889.21	-0.000
889.38	-0.000
889.55	-0.000
889.71	-0.000
889.88	-0.000
890.05	-0.000
890.22	-0.000
890.39	-0.000
>>>>>End Processed Spectral Data<<<<<
