SpectraSuite Data File
++++++++++++++++++++++++++++++++++++
Date: Fri Jun 19 15:41:35 CEST 2015
User: introlabs
Dark Spectrum Present: Yes
Reference Spectrum Present: Yes
Number of Sampled Component Spectra: 1
Spectrometers: USB4H08886
Integration Time (usec): 745692 (USB4H08886)
Spectra Averaged: 5 (USB4H08886)
Boxcar Smoothing: 5 (USB4H08886)
Correct for Electrical Dark: Yes (USB4H08886)
Strobe/Lamp Enabled: No (USB4H08886)
Correct for Detector Non-linearity: Yes (USB4H08886)
Correct for Stray Light: Yes (USB4H08886)
Number of Pixels in Processed Spectrum: 3648
>>>>>Begin Processed Spectral Data<<<<<
178.14	-0.000
178.36	-0.000
178.57	-0.000
178.79	-0.000
179.01	-0.000
179.22	-0.000
179.44	-0.000
179.65	-0.000
179.87	-0.000
180.08	-0.000
180.30	-0.000
180.52	-0.000
180.73	-0.000
180.95	-0.000
181.16	-0.000
181.38	-0.000
181.59	-0.000
181.81	-0.000
182.03	-0.000
182.24	-0.000
182.46	-0.000
182.67	-0.000
182.89	-0.000
183.10	-0.000
183.32	-0.000
183.54	-0.000
183.75	-0.000
183.97	-0.000
184.18	-0.000
184.40	-0.000
184.61	-0.000
184.83	-0.000
185.04	-0.000
185.26	-0.000
185.48	-0.000
185.69	-0.000
185.91	-0.000
186.12	-0.000
186.34	-0.000
186.55	-0.000
186.77	-0.000
186.98	-0.000
187.20	-0.000
187.42	-0.000
187.63	-0.000
187.85	-0.000
188.06	-0.000
188.28	-0.000
188.49	-0.000
188.71	-0.000
188.92	-0.000
189.14	-0.000
189.36	-0.000
189.57	-0.000
189.79	-0.000
190.00	-0.000
190.22	-0.000
190.43	-0.000
190.65	-0.000
190.86	-0.000
191.08	-0.000
191.29	-0.000
191.51	-0.000
191.72	-0.000
191.94	-0.000
192.16	-0.000
192.37	-0.000
192.59	-0.000
192.80	-0.000
193.02	-0.000
193.23	-0.000
193.45	-0.000
193.66	-0.000
193.88	-0.000
194.09	-0.000
194.31	-0.000
194.52	-0.000
194.74	-0.000
194.95	-0.000
195.17	-0.000
195.38	-0.000
195.60	-0.000
195.81	-0.000
196.03	-0.000
196.25	-0.000
196.46	-0.000
196.68	-0.000
196.89	-0.000
197.11	-0.000
197.32	-0.000
197.54	-0.000
197.75	-0.000
197.97	-0.000
198.18	-0.000
198.40	-0.000
198.61	-0.000
198.83	-0.000
199.04	-0.000
199.26	-0.000
199.47	-0.000
199.69	-0.000
199.90	-0.000
200.12	-0.000
200.33	-0.000
200.55	-0.000
200.76	-0.000
200.98	-0.000
201.19	-0.000
201.41	-0.000
201.62	-0.000
201.84	-0.000
202.05	-0.000
202.27	-0.000
202.48	-0.000
202.70	-0.000
202.91	-0.000
203.13	-0.000
203.34	-0.000
203.56	-0.000
203.77	-0.000
203.99	-0.000
204.20	-0.000
204.42	-0.000
204.63	-0.000
204.85	-0.000
205.06	-0.000
205.28	-0.000
205.49	-0.000
205.71	-0.000
205.92	-0.000
206.14	-0.000
206.35	-0.000
206.56	-0.000
206.78	-0.000
206.99	-0.000
207.21	-0.000
207.42	-0.000
207.64	-0.000
207.85	-0.000
208.07	-0.000
208.28	-0.000
208.50	-0.000
208.71	-0.000
208.93	-0.000
209.14	-0.000
209.36	-0.000
209.57	-0.000
209.79	-0.000
210.00	-0.000
210.22	-0.000
210.43	-0.000
210.64	-0.000
210.86	-0.000
211.07	-0.000
211.29	-0.000
211.50	-0.000
211.72	-0.000
211.93	-0.000
212.15	-0.000
212.36	-0.000
212.58	-0.000
212.79	-0.000
213.01	-0.000
213.22	-0.000
213.43	-0.000
213.65	-0.000
213.86	-0.000
214.08	-0.000
214.29	-0.000
214.51	-0.000
214.72	-0.000
214.94	-0.000
215.15	-0.000
215.36	-0.000
215.58	-0.000
215.79	-0.000
216.01	-0.000
216.22	-0.000
216.44	-0.000
216.65	-0.000
216.87	-0.000
217.08	-0.000
217.29	-0.000
217.51	-0.000
217.72	-0.000
217.94	-0.000
218.15	-0.000
218.37	-0.000
218.58	-0.000
218.80	-0.000
219.01	-0.000
219.22	-0.000
219.44	-0.000
219.65	-0.000
219.87	-0.000
220.08	-0.000
220.30	-0.000
220.51	-0.000
220.72	-0.000
220.94	-0.000
221.15	-0.000
221.37	-0.000
221.58	-0.000
221.79	-0.000
222.01	-0.000
222.22	-0.000
222.44	-0.000
222.65	-0.000
222.87	-0.000
223.08	-0.000
223.29	-0.000
223.51	-0.000
223.72	-0.000
223.94	-0.000
224.15	-0.000
224.36	-0.000
224.58	-0.000
224.79	-0.000
225.01	-0.000
225.22	-0.000
225.44	-0.000
225.65	-0.000
225.86	-0.000
226.08	-0.000
226.29	-0.000
226.51	-0.000
226.72	-0.000
226.93	-0.000
227.15	-0.000
227.36	-0.000
227.58	-0.000
227.79	-0.000
228.00	-0.000
228.22	-0.000
228.43	-0.000
228.65	-0.000
228.86	-0.000
229.07	-0.000
229.29	-0.000
229.50	-0.000
229.72	-0.000
229.93	-0.000
230.14	-0.000
230.36	-0.000
230.57	-0.000
230.78	-0.000
231.00	-0.000
231.21	-0.000
231.43	-0.000
231.64	-0.000
231.85	-0.000
232.07	-0.000
232.28	-0.000
232.50	-0.000
232.71	-0.000
232.92	-0.000
233.14	-0.000
233.35	-0.000
233.56	-0.000
233.78	-0.000
233.99	-0.000
234.21	-0.000
234.42	-0.000
234.63	-0.000
234.85	-0.000
235.06	-0.000
235.27	-0.000
235.49	-0.000
235.70	-0.000
235.91	-0.000
236.13	-0.000
236.34	-0.000
236.56	-0.000
236.77	-0.000
236.98	-0.000
237.20	-0.000
237.41	-0.000
237.62	-0.000
237.84	-0.000
238.05	-0.000
238.26	-0.000
238.48	-0.000
238.69	-0.000
238.91	-0.000
239.12	-0.000
239.33	-0.000
239.55	-0.000
239.76	-0.000
239.97	-0.000
240.19	-0.000
240.40	-0.000
240.61	-0.000
240.83	-0.000
241.04	-0.000
241.25	-0.000
241.47	-0.000
241.68	-0.000
241.89	-0.000
242.11	-0.000
242.32	-0.000
242.53	-0.000
242.75	-0.000
242.96	-0.000
243.17	-0.000
243.39	-0.000
243.60	-0.000
243.81	-0.000
244.03	-0.000
244.24	-0.000
244.45	-0.000
244.67	-0.000
244.88	-0.000
245.09	-0.000
245.31	-0.000
245.52	-0.000
245.73	-0.000
245.95	-0.000
246.16	-0.000
246.37	-0.000
246.59	-0.000
246.80	-0.000
247.01	-0.000
247.23	-0.000
247.44	-0.000
247.65	-0.000
247.87	-0.000
248.08	-0.000
248.29	-0.000
248.51	-0.000
248.72	-0.000
248.93	-0.000
249.15	-0.000
249.36	-0.000
249.57	-0.000
249.78	-0.000
250.00	-0.000
250.21	-0.000
250.42	-0.000
250.64	-0.000
250.85	-0.000
251.06	-0.000
251.28	-0.000
251.49	-0.000
251.70	-0.000
251.92	-0.000
252.13	-0.000
252.34	-0.000
252.55	-0.000
252.77	-0.000
252.98	-0.000
253.19	-0.000
253.41	-0.000
253.62	-0.000
253.83	-0.000
254.05	-0.000
254.26	-0.000
254.47	-0.000
254.68	-0.000
254.90	-0.000
255.11	-0.000
255.32	-0.000
255.54	-0.000
255.75	-0.000
255.96	-0.000
256.17	-0.000
256.39	-0.000
256.60	-0.000
256.81	-0.000
257.03	-0.000
257.24	-0.000
257.45	-0.000
257.66	-0.000
257.88	-0.000
258.09	-0.000
258.30	-0.000
258.51	-0.000
258.73	-0.000
258.94	-0.000
259.15	-0.000
259.37	-0.000
259.58	-0.000
259.79	-0.000
260.00	-0.000
260.22	-0.000
260.43	-0.000
260.64	-0.000
260.85	-0.000
261.07	-0.000
261.28	-0.000
261.49	-0.000
261.71	-0.000
261.92	-0.000
262.13	-0.000
262.34	-0.000
262.56	-0.000
262.77	-0.000
262.98	-0.000
263.19	-0.000
263.41	-0.000
263.62	-0.000
263.83	-0.000
264.04	-0.000
264.26	-0.000
264.47	-0.000
264.68	-0.000
264.89	-0.000
265.11	-0.000
265.32	-0.000
265.53	-0.000
265.74	-0.000
265.96	-0.000
266.17	-0.000
266.38	-0.000
266.59	-0.000
266.81	-0.000
267.02	-0.000
267.23	-0.000
267.44	-0.000
267.65	-0.000
267.87	-0.000
268.08	-0.000
268.29	-0.000
268.50	-0.000
268.72	-0.000
268.93	-0.000
269.14	-0.000
269.35	-0.000
269.57	-0.000
269.78	-0.000
269.99	-0.000
270.20	-0.000
270.41	-0.000
270.63	-0.000
270.84	-0.000
271.05	-0.000
271.26	-0.000
271.48	-0.000
271.69	-0.000
271.90	-0.000
272.11	-0.000
272.32	-0.000
272.54	-0.000
272.75	-0.000
272.96	-0.000
273.17	-0.000
273.39	-0.000
273.60	-0.000
273.81	-0.000
274.02	-0.000
274.23	-0.000
274.45	-0.000
274.66	-0.000
274.87	-0.000
275.08	-0.000
275.29	-0.000
275.51	-0.000
275.72	-0.000
275.93	-0.000
276.14	-0.000
276.35	-0.000
276.57	-0.000
276.78	-0.000
276.99	-0.000
277.20	-0.000
277.41	-0.000
277.63	-0.000
277.84	-0.000
278.05	-0.000
278.26	-0.000
278.47	-0.000
278.69	-0.000
278.90	-0.000
279.11	-0.000
279.32	-0.000
279.53	-0.000
279.74	-0.000
279.96	-0.000
280.17	-0.000
280.38	-0.000
280.59	-0.000
280.80	-0.000
281.02	-0.000
281.23	-0.000
281.44	-0.000
281.65	-0.000
281.86	-0.000
282.07	-0.000
282.29	-0.000
282.50	-0.000
282.71	-0.000
282.92	-0.000
283.13	-0.000
283.35	-0.000
283.56	-0.000
283.77	-0.000
283.98	-0.000
284.19	-0.000
284.40	-0.000
284.62	-0.000
284.83	-0.000
285.04	-0.000
285.25	-0.000
285.46	-0.000
285.67	-0.000
285.88	-0.000
286.10	-0.000
286.31	-0.000
286.52	-0.000
286.73	-0.000
286.94	-0.000
287.15	-0.000
287.37	-0.000
287.58	-0.000
287.79	-0.000
288.00	-0.000
288.21	-0.000
288.42	-0.000
288.63	-0.000
288.85	-0.000
289.06	-0.000
289.27	-0.000
289.48	-0.000
289.69	-0.000
289.90	-0.000
290.11	-0.000
290.33	-0.000
290.54	-0.000
290.75	-0.000
290.96	-0.000
291.17	-0.000
291.38	-0.000
291.59	-0.000
291.81	-0.000
292.02	-0.000
292.23	-0.000
292.44	-0.000
292.65	-0.000
292.86	-0.000
293.07	-0.000
293.28	2.484
293.50	3.269
293.71	-0.000
293.92	-0.000
294.13	-0.000
294.34	-0.000
294.55	-0.000
294.76	-0.000
294.97	4.470
295.19	-0.000
295.40	-0.000
295.61	-0.000
295.82	2.920
296.03	2.268
296.24	2.331
296.45	1.826
296.66	1.627
296.87	1.651
297.09	1.689
297.30	1.840
297.51	1.600
297.72	1.572
297.93	1.639
298.14	1.616
298.35	1.598
298.56	1.576
298.77	1.664
298.99	1.645
299.20	1.629
299.41	1.605
299.62	1.557
299.83	1.549
300.04	1.505
300.25	1.490
300.46	1.513
300.67	1.487
300.88	1.458
301.10	1.466
301.31	1.515
301.52	1.465
301.73	1.425
301.94	1.426
302.15	1.436
302.36	1.397
302.57	1.349
302.78	1.354
302.99	1.387
303.20	1.399
303.41	1.325
303.63	1.309
303.84	1.312
304.05	1.315
304.26	1.268
304.47	1.272
304.68	1.272
304.89	1.268
305.10	1.238
305.31	1.227
305.52	1.264
305.73	1.258
305.94	1.227
306.15	1.221
306.37	1.238
306.58	1.247
306.79	1.221
307.00	1.243
307.21	1.273
307.42	1.268
307.63	1.240
307.84	1.210
308.05	1.241
308.26	1.244
308.47	1.227
308.68	1.222
308.89	1.217
309.10	1.219
309.31	1.186
309.52	1.180
309.73	1.191
309.95	1.186
310.16	1.161
310.37	1.151
310.58	1.163
310.79	1.161
311.00	1.160
311.21	1.160
311.42	1.159
311.63	1.153
311.84	1.137
312.05	1.136
312.26	1.155
312.47	1.167
312.68	1.147
312.89	1.133
313.10	1.135
313.31	1.108
313.52	1.114
313.73	1.116
313.94	1.118
314.15	1.103
314.36	1.083
314.57	1.076
314.78	1.061
314.99	1.055
315.21	1.046
315.42	1.050
315.63	1.060
315.84	1.038
316.05	1.025
316.26	1.032
316.47	1.047
316.68	1.045
316.89	1.029
317.10	1.049
317.31	1.053
317.52	1.052
317.73	1.037
317.94	1.035
318.15	1.076
318.36	1.074
318.57	1.059
318.78	1.050
318.99	1.081
319.20	1.078
319.41	1.048
319.62	1.050
319.83	1.063
320.04	1.058
320.25	1.049
320.46	1.017
320.67	1.020
320.88	1.017
321.09	1.003
321.30	0.990
321.51	1.005
321.72	1.002
321.93	0.988
322.14	0.979
322.35	1.002
322.56	1.004
322.77	0.994
322.98	1.005
323.19	1.011
323.40	1.018
323.61	0.999
323.82	0.993
324.03	0.998
324.24	0.996
324.45	0.986
324.66	0.969
324.87	0.965
325.08	0.963
325.29	0.945
325.50	0.937
325.71	0.940
325.92	0.947
326.13	0.936
326.34	0.936
326.55	0.941
326.76	0.940
326.97	0.930
327.18	0.926
327.39	0.949
327.60	0.951
327.80	0.954
328.01	0.953
328.22	0.950
328.43	0.952
328.64	0.942
328.85	0.948
329.06	0.949
329.27	0.948
329.48	0.944
329.69	0.926
329.90	0.933
330.11	0.927
330.32	0.921
330.53	0.917
330.74	0.916
330.95	0.914
331.16	0.901
331.37	0.908
331.58	0.908
331.79	0.908
332.00	0.900
332.21	0.895
332.42	0.898
332.63	0.890
332.83	0.886
333.04	0.889
333.25	0.902
333.46	0.900
333.67	0.887
333.88	0.889
334.09	0.899
334.30	0.898
334.51	0.891
334.72	0.887
334.93	0.889
335.14	0.888
335.35	0.882
335.56	0.876
335.77	0.883
335.98	0.882
336.18	0.877
336.39	0.869
336.60	0.871
336.81	0.868
337.02	0.868
337.23	0.873
337.44	0.874
337.65	0.876
337.86	0.868
338.07	0.865
338.28	0.868
338.49	0.865
338.70	0.860
338.91	0.866
339.11	0.873
339.32	0.869
339.53	0.859
339.74	0.857
339.95	0.854
340.16	0.851
340.37	0.844
340.58	0.842
340.79	0.845
341.00	0.845
341.21	0.835
341.41	0.835
341.62	0.835
341.83	0.835
342.04	0.831
342.25	0.840
342.46	0.844
342.67	0.844
342.88	0.837
343.09	0.837
343.30	0.844
343.50	0.847
343.71	0.839
343.92	0.838
344.13	0.840
344.34	0.839
344.55	0.825
344.76	0.824
344.97	0.828
345.18	0.827
345.38	0.826
345.59	0.821
345.80	0.820
346.01	0.818
346.22	0.814
346.43	0.809
346.64	0.817
346.85	0.816
347.06	0.809
347.26	0.808
347.47	0.810
347.68	0.806
347.89	0.802
348.10	0.796
348.31	0.802
348.52	0.802
348.73	0.799
348.93	0.796
349.14	0.799
349.35	0.799
349.56	0.794
349.77	0.790
349.98	0.795
350.19	0.792
350.39	0.788
350.60	0.784
350.81	0.799
351.02	0.798
351.23	0.794
351.44	0.796
351.65	0.799
351.86	0.797
352.06	0.796
352.27	0.796
352.48	0.796
352.69	0.797
352.90	0.792
353.11	0.780
353.31	0.786
353.52	0.783
353.73	0.775
353.94	0.776
354.15	0.781
354.36	0.781
354.57	0.773
354.77	0.776
354.98	0.774
355.19	0.773
355.40	0.772
355.61	0.778
355.82	0.780
356.02	0.779
356.23	0.773
356.44	0.774
356.65	0.777
356.86	0.777
357.07	0.772
357.27	0.776
357.48	0.778
357.69	0.774
357.90	0.760
358.11	0.758
358.32	0.761
358.52	0.763
358.73	0.755
358.94	0.757
359.15	0.761
359.36	0.761
359.56	0.756
359.77	0.754
359.98	0.760
360.19	0.761
360.40	0.758
360.61	0.759
360.81	0.757
361.02	0.757
361.23	0.749
361.44	0.748
361.65	0.749
361.85	0.748
362.06	0.746
362.27	0.748
362.48	0.748
362.69	0.750
362.89	0.744
363.10	0.746
363.31	0.751
363.52	0.754
363.73	0.750
363.93	0.750
364.14	0.751
364.35	0.752
364.56	0.742
364.77	0.745
364.97	0.745
365.18	0.746
365.39	0.741
365.60	0.737
365.81	0.736
366.01	0.737
366.22	0.735
366.43	0.734
366.64	0.735
366.84	0.741
367.05	0.738
367.26	0.738
367.47	0.739
367.68	0.740
367.88	0.738
368.09	0.735
368.30	0.736
368.51	0.736
368.71	0.735
368.92	0.739
369.13	0.737
369.34	0.736
369.55	0.736
369.75	0.735
369.96	0.741
370.17	0.741
370.38	0.739
370.58	0.739
370.79	0.743
371.00	0.742
371.21	0.735
371.41	0.740
371.62	0.743
371.83	0.739
372.04	0.738
372.24	0.732
372.45	0.732
372.66	0.733
372.87	0.730
373.07	0.727
373.28	0.728
373.49	0.731
373.70	0.722
373.90	0.722
374.11	0.730
374.32	0.729
374.53	0.727
374.73	0.728
374.94	0.730
375.15	0.730
375.36	0.728
375.56	0.735
375.77	0.735
375.98	0.736
376.19	0.733
376.39	0.728
376.60	0.732
376.81	0.733
377.02	0.730
377.22	0.729
377.43	0.729
377.64	0.729
377.84	0.722
378.05	0.726
378.26	0.732
378.47	0.731
378.67	0.728
378.88	0.725
379.09	0.725
379.30	0.726
379.50	0.724
379.71	0.726
379.92	0.729
380.12	0.728
380.33	0.720
380.54	0.717
380.75	0.724
380.95	0.724
381.16	0.723
381.37	0.723
381.57	0.724
381.78	0.724
381.99	0.725
382.20	0.724
382.40	0.726
382.61	0.726
382.82	0.723
383.02	0.716
383.23	0.719
383.44	0.719
383.64	0.718
383.85	0.720
384.06	0.723
384.27	0.721
384.47	0.720
384.68	0.721
384.89	0.726
385.09	0.725
385.30	0.725
385.51	0.724
385.71	0.727
385.92	0.727
386.13	0.726
386.33	0.728
386.54	0.729
386.75	0.728
386.95	0.724
387.16	0.720
387.37	0.723
387.58	0.724
387.78	0.722
387.99	0.720
388.20	0.722
388.40	0.718
388.61	0.714
388.82	0.717
389.02	0.719
389.23	0.720
389.44	0.718
389.64	0.718
389.85	0.729
390.06	0.729
390.26	0.730
390.47	0.729
390.68	0.732
390.88	0.730
391.09	0.726
391.30	0.726
391.50	0.724
391.71	0.724
391.92	0.722
392.12	0.715
392.33	0.715
392.53	0.715
392.74	0.715
392.95	0.715
393.15	0.717
393.36	0.719
393.57	0.717
393.77	0.721
393.98	0.724
394.19	0.723
394.39	0.723
394.60	0.724
394.81	0.727
395.01	0.725
395.22	0.723
395.43	0.725
395.63	0.729
395.84	0.730
396.04	0.727
396.25	0.729
396.46	0.730
396.66	0.728
396.87	0.726
397.08	0.722
397.28	0.725
397.49	0.726
397.69	0.722
397.90	0.717
398.11	0.718
398.31	0.719
398.52	0.715
398.73	0.718
398.93	0.717
399.14	0.716
399.34	0.716
399.55	0.716
399.76	0.716
399.96	0.718
400.17	0.716
400.37	0.715
400.58	0.721
400.79	0.723
400.99	0.721
401.20	0.726
401.41	0.729
401.61	0.730
401.82	0.735
402.02	0.735
402.23	0.736
402.44	0.736
402.64	0.736
402.85	0.730
403.05	0.730
403.26	0.728
403.47	0.723
403.67	0.722
403.88	0.722
404.08	0.716
404.29	0.715
404.50	0.715
404.70	0.715
404.91	0.715
405.11	0.713
405.32	0.713
405.52	0.713
405.73	0.713
405.94	0.712
406.14	0.714
406.35	0.716
406.55	0.715
406.76	0.713
406.97	0.714
407.17	0.715
407.38	0.715
407.58	0.713
407.79	0.716
407.99	0.718
408.20	0.718
408.41	0.715
408.61	0.713
408.82	0.715
409.02	0.715
409.23	0.713
409.43	0.712
409.64	0.714
409.84	0.714
410.05	0.711
410.26	0.709
410.46	0.709
410.67	0.708
410.87	0.710
411.08	0.711
411.28	0.712
411.49	0.714
411.69	0.712
411.90	0.713
412.11	0.714
412.31	0.715
412.52	0.714
412.72	0.715
412.93	0.716
413.13	0.715
413.34	0.711
413.54	0.712
413.75	0.713
413.95	0.713
414.16	0.710
414.37	0.712
414.57	0.712
414.78	0.715
414.98	0.713
415.19	0.714
415.39	0.712
415.60	0.714
415.80	0.713
416.01	0.712
416.21	0.713
416.42	0.714
416.62	0.709
416.83	0.709
417.03	0.708
417.24	0.708
417.44	0.705
417.65	0.704
417.86	0.704
418.06	0.703
418.27	0.701
418.47	0.703
418.68	0.703
418.88	0.703
419.09	0.702
419.29	0.703
419.50	0.703
419.70	0.703
419.91	0.702
420.11	0.700
420.32	0.703
420.52	0.702
420.73	0.701
420.93	0.702
421.14	0.704
421.34	0.703
421.55	0.699
421.75	0.699
421.96	0.700
422.16	0.700
422.37	0.699
422.57	0.696
422.78	0.696
422.98	0.693
423.19	0.691
423.39	0.689
423.60	0.692
423.80	0.694
424.01	0.692
424.21	0.695
424.42	0.696
424.62	0.696
424.83	0.696
425.03	0.696
425.23	0.698
425.44	0.698
425.64	0.700
425.85	0.698
426.05	0.699
426.26	0.699
426.46	0.695
426.67	0.694
426.87	0.699
427.08	0.699
427.28	0.698
427.49	0.699
427.69	0.700
427.90	0.698
428.10	0.696
428.31	0.696
428.51	0.698
428.71	0.697
428.92	0.698
429.12	0.696
429.33	0.696
429.53	0.699
429.74	0.703
429.94	0.703
430.15	0.702
430.35	0.702
430.56	0.699
430.76	0.697
430.96	0.697
431.17	0.694
431.37	0.692
431.58	0.690
431.78	0.686
431.99	0.680
432.19	0.682
432.40	0.684
432.60	0.684
432.80	0.687
433.01	0.686
433.21	0.686
433.42	0.688
433.62	0.689
433.83	0.689
434.03	0.691
434.23	0.694
434.44	0.693
434.64	0.690
434.85	0.695
435.05	0.696
435.26	0.696
435.46	0.694
435.66	0.693
435.87	0.693
436.07	0.693
436.28	0.688
436.48	0.686
436.69	0.685
436.89	0.685
437.09	0.679
437.30	0.679
437.50	0.679
437.71	0.691
437.91	0.690
438.11	0.691
438.32	0.696
438.52	0.696
438.73	0.695
438.93	0.694
439.13	0.693
439.34	0.697
439.54	0.694
439.75	0.694
439.95	0.683
440.15	0.687
440.36	0.686
440.56	0.683
440.77	0.684
440.97	0.684
441.17	0.683
441.38	0.684
441.58	0.681
441.79	0.681
441.99	0.679
442.19	0.678
442.40	0.676
442.60	0.675
442.81	0.673
443.01	0.673
443.21	0.673
443.42	0.673
443.62	0.671
443.82	0.671
444.03	0.672
444.23	0.672
444.44	0.672
444.64	0.671
444.84	0.673
445.05	0.672
445.25	0.670
445.45	0.671
445.66	0.672
445.86	0.672
446.06	0.673
446.27	0.672
446.47	0.675
446.68	0.673
446.88	0.672
447.08	0.671
447.29	0.673
447.49	0.672
447.69	0.671
447.90	0.670
448.10	0.673
448.30	0.671
448.51	0.672
448.71	0.670
448.91	0.672
449.12	0.670
449.32	0.672
449.52	0.671
449.73	0.674
449.93	0.673
450.14	0.674
450.34	0.673
450.54	0.675
450.75	0.672
450.95	0.672
451.15	0.671
451.36	0.674
451.56	0.671
451.76	0.670
451.97	0.667
452.17	0.668
452.37	0.666
452.58	0.663
452.78	0.663
452.98	0.665
453.19	0.664
453.39	0.665
453.59	0.664
453.79	0.664
454.00	0.664
454.20	0.663
454.40	0.664
454.61	0.666
454.81	0.667
455.01	0.666
455.22	0.666
455.42	0.667
455.62	0.665
455.83	0.665
456.03	0.668
456.23	0.669
456.44	0.670
456.64	0.668
456.84	0.668
457.04	0.668
457.25	0.667
457.45	0.664
457.65	0.664
457.86	0.665
458.06	0.664
458.26	0.660
458.47	0.659
458.67	0.660
458.87	0.661
459.07	0.659
459.28	0.661
459.48	0.663
459.68	0.662
459.89	0.661
460.09	0.660
460.29	0.661
460.49	0.662
460.70	0.661
460.90	0.661
461.10	0.661
461.31	0.661
461.51	0.659
461.71	0.661
461.91	0.662
462.12	0.662
462.32	0.661
462.52	0.662
462.72	0.665
462.93	0.665
463.13	0.664
463.33	0.664
463.53	0.666
463.74	0.665
463.94	0.661
464.14	0.661
464.35	0.662
464.55	0.661
464.75	0.660
464.95	0.657
465.16	0.658
465.36	0.657
465.56	0.656
465.76	0.655
465.97	0.655
466.17	0.656
466.37	0.653
466.57	0.655
466.78	0.656
466.98	0.656
467.18	0.654
467.38	0.653
467.59	0.654
467.79	0.656
467.99	0.656
468.19	0.657
468.39	0.660
468.60	0.660
468.80	0.659
469.00	0.660
469.20	0.661
469.41	0.661
469.61	0.660
469.81	0.661
470.01	0.659
470.22	0.659
470.42	0.657
470.62	0.655
470.82	0.656
471.02	0.656
471.23	0.653
471.43	0.653
471.63	0.656
471.83	0.656
472.04	0.655
472.24	0.654
472.44	0.659
472.64	0.660
472.84	0.658
473.05	0.658
473.25	0.661
473.45	0.660
473.65	0.658
473.85	0.659
474.06	0.659
474.26	0.659
474.46	0.660
474.66	0.656
474.86	0.656
475.07	0.657
475.27	0.655
475.47	0.652
475.67	0.652
475.87	0.654
476.08	0.651
476.28	0.653
476.48	0.654
476.68	0.652
476.88	0.650
477.09	0.651
477.29	0.653
477.49	0.653
477.69	0.652
477.89	0.652
478.09	0.651
478.30	0.654
478.50	0.651
478.70	0.650
478.90	0.651
479.10	0.653
479.31	0.654
479.51	0.653
479.71	0.653
479.91	0.653
480.11	0.652
480.31	0.652
480.52	0.651
480.72	0.651
480.92	0.650
481.12	0.649
481.32	0.646
481.52	0.644
481.72	0.644
481.93	0.648
482.13	0.648
482.33	0.648
482.53	0.647
482.73	0.648
482.93	0.648
483.14	0.648
483.34	0.648
483.54	0.649
483.74	0.648
483.94	0.647
484.14	0.644
484.34	0.644
484.55	0.644
484.75	0.644
484.95	0.642
485.15	0.642
485.35	0.641
485.55	0.640
485.75	0.638
485.96	0.638
486.16	0.640
486.36	0.639
486.56	0.637
486.76	0.637
486.96	0.637
487.16	0.636
487.36	0.635
487.57	0.635
487.77	0.636
487.97	0.636
488.17	0.634
488.37	0.634
488.57	0.634
488.77	0.634
488.97	0.632
489.18	0.632
489.38	0.635
489.58	0.636
489.78	0.635
489.98	0.634
490.18	0.635
490.38	0.636
490.58	0.635
490.78	0.635
490.98	0.637
491.19	0.637
491.39	0.637
491.59	0.635
491.79	0.638
491.99	0.638
492.19	0.638
492.39	0.641
492.59	0.641
492.79	0.643
492.99	0.643
493.20	0.643
493.40	0.643
493.60	0.644
493.80	0.643
494.00	0.641
494.20	0.641
494.40	0.641
494.60	0.638
494.80	0.642
495.00	0.641
495.20	0.639
495.40	0.638
495.61	0.640
495.81	0.639
496.01	0.642
496.21	0.644
496.41	0.643
496.61	0.644
496.81	0.642
497.01	0.638
497.21	0.637
497.41	0.637
497.61	0.637
497.81	0.635
498.01	0.635
498.21	0.632
498.41	0.630
498.61	0.630
498.82	0.631
499.02	0.633
499.22	0.633
499.42	0.633
499.62	0.634
499.82	0.635
500.02	0.637
500.22	0.636
500.42	0.638
500.62	0.639
500.82	0.640
501.02	0.638
501.22	0.638
501.42	0.637
501.62	0.639
501.82	0.639
502.02	0.639
502.22	0.638
502.42	0.640
502.62	0.637
502.82	0.637
503.02	0.638
503.22	0.638
503.42	0.636
503.63	0.636
503.83	0.633
504.03	0.632
504.23	0.631
504.43	0.632
504.63	0.632
504.83	0.632
505.03	0.631
505.23	0.632
505.43	0.634
505.63	0.634
505.83	0.635
506.03	0.636
506.23	0.638
506.43	0.638
506.63	0.637
506.83	0.636
507.03	0.638
507.23	0.638
507.43	0.636
507.63	0.636
507.83	0.636
508.03	0.637
508.23	0.636
508.43	0.635
508.63	0.637
508.83	0.637
509.03	0.639
509.23	0.638
509.43	0.638
509.63	0.639
509.83	0.638
510.03	0.641
510.23	0.641
510.43	0.642
510.63	0.643
510.83	0.643
511.03	0.644
511.23	0.641
511.43	0.641
511.63	0.642
511.83	0.644
512.03	0.645
512.22	0.642
512.42	0.642
512.62	0.642
512.82	0.641
513.02	0.641
513.22	0.641
513.42	0.643
513.62	0.645
513.82	0.644
514.02	0.643
514.22	0.644
514.42	0.644
514.62	0.643
514.82	0.644
515.02	0.647
515.22	0.649
515.42	0.648
515.62	0.650
515.82	0.649
516.02	0.650
516.22	0.650
516.42	0.651
516.62	0.652
516.82	0.655
517.01	0.653
517.21	0.652
517.41	0.655
517.61	0.656
517.81	0.652
518.01	0.651
518.21	0.651
518.41	0.650
518.61	0.650
518.81	0.650
519.01	0.650
519.21	0.650
519.41	0.649
519.61	0.644
519.81	0.646
520.00	0.647
520.20	0.647
520.40	0.650
520.60	0.651
520.80	0.650
521.00	0.650
521.20	0.652
521.40	0.656
521.60	0.656
521.80	0.655
522.00	0.655
522.20	0.657
522.39	0.655
522.59	0.652
522.79	0.654
522.99	0.656
523.19	0.654
523.39	0.652
523.59	0.649
523.79	0.652
523.99	0.655
524.19	0.654
524.38	0.653
524.58	0.655
524.78	0.656
524.98	0.654
525.18	0.655
525.38	0.656
525.58	0.657
525.78	0.655
525.98	0.654
526.18	0.654
526.37	0.654
526.57	0.656
526.77	0.656
526.97	0.656
527.17	0.657
527.37	0.654
527.57	0.656
527.77	0.657
527.96	0.657
528.16	0.656
528.36	0.657
528.56	0.658
528.76	0.656
528.96	0.655
529.16	0.657
529.36	0.659
529.55	0.659
529.75	0.656
529.95	0.656
530.15	0.657
530.35	0.659
530.55	0.657
530.75	0.657
530.94	0.659
531.14	0.659
531.34	0.658
531.54	0.656
531.74	0.659
531.94	0.663
532.13	0.661
532.33	0.664
532.53	0.663
532.73	0.663
532.93	0.662
533.13	0.662
533.33	0.662
533.52	0.663
533.72	0.666
533.92	0.664
534.12	0.661
534.32	0.662
534.52	0.660
534.71	0.661
534.91	0.664
535.11	0.665
535.31	0.662
535.51	0.665
535.71	0.666
535.90	0.664
536.10	0.665
536.30	0.667
536.50	0.668
536.70	0.668
536.89	0.666
537.09	0.665
537.29	0.666
537.49	0.668
537.69	0.665
537.89	0.666
538.08	0.665
538.28	0.664
538.48	0.664
538.68	0.665
538.88	0.667
539.07	0.667
539.27	0.665
539.47	0.664
539.67	0.664
539.87	0.665
540.06	0.663
540.26	0.663
540.46	0.665
540.66	0.663
540.86	0.661
541.05	0.661
541.25	0.663
541.45	0.664
541.65	0.663
541.84	0.664
542.04	0.664
542.24	0.666
542.44	0.665
542.64	0.666
542.83	0.669
543.03	0.670
543.23	0.667
543.43	0.668
543.62	0.669
543.82	0.669
544.02	0.667
544.22	0.668
544.42	0.671
544.61	0.671
544.81	0.668
545.01	0.666
545.21	0.668
545.40	0.668
545.60	0.666
545.80	0.669
546.00	0.670
546.19	0.669
546.39	0.668
546.59	0.665
546.79	0.666
546.98	0.667
547.18	0.667
547.38	0.667
547.58	0.670
547.77	0.671
547.97	0.667
548.17	0.668
548.37	0.668
548.56	0.668
548.76	0.668
548.96	0.670
549.16	0.672
549.35	0.672
549.55	0.670
549.75	0.670
549.95	0.673
550.14	0.674
550.34	0.672
550.54	0.678
550.73	0.681
550.93	0.682
551.13	0.679
551.33	0.678
551.52	0.678
551.72	0.679
551.92	0.678
552.12	0.678
552.31	0.678
552.51	0.678
552.71	0.673
552.90	0.673
553.10	0.674
553.30	0.674
553.50	0.674
553.69	0.675
553.89	0.675
554.09	0.675
554.28	0.672
554.48	0.674
554.68	0.675
554.87	0.675
555.07	0.672
555.27	0.672
555.47	0.673
555.66	0.673
555.86	0.672
556.06	0.674
556.25	0.675
556.45	0.683
556.65	0.682
556.84	0.685
557.04	0.688
557.24	0.690
557.43	0.690
557.63	0.693
557.83	0.694
558.02	0.695
558.22	0.699
558.42	0.700
558.61	0.693
558.81	0.693
559.01	0.690
559.21	0.689
559.40	0.690
559.60	0.690
559.80	0.687
559.99	0.688
560.19	0.691
560.39	0.685
560.58	0.683
560.78	0.683
560.97	0.686
561.17	0.685
561.37	0.683
561.56	0.684
561.76	0.685
561.96	0.684
562.15	0.681
562.35	0.683
562.55	0.683
562.74	0.683
562.94	0.682
563.14	0.680
563.33	0.681
563.53	0.680
563.73	0.678
563.92	0.680
564.12	0.682
564.31	0.684
564.51	0.682
564.71	0.683
564.90	0.686
565.10	0.687
565.30	0.690
565.49	0.691
565.69	0.694
565.89	0.694
566.08	0.692
566.28	0.694
566.47	0.695
566.67	0.694
566.87	0.693
567.06	0.694
567.26	0.700
567.46	0.697
567.65	0.696
567.85	0.698
568.04	0.700
568.24	0.700
568.44	0.696
568.63	0.694
568.83	0.695
569.02	0.694
569.22	0.689
569.42	0.686
569.61	0.687
569.81	0.686
570.00	0.684
570.20	0.685
570.40	0.686
570.59	0.686
570.79	0.684
570.98	0.682
571.18	0.683
571.38	0.683
571.57	0.680
571.77	0.678
571.96	0.682
572.16	0.679
572.35	0.674
572.55	0.675
572.75	0.673
572.94	0.672
573.14	0.671
573.33	0.671
573.53	0.672
573.73	0.671
573.92	0.670
574.12	0.668
574.31	0.670
574.51	0.671
574.70	0.669
574.90	0.671
575.09	0.673
575.29	0.673
575.49	0.670
575.68	0.671
575.88	0.672
576.07	0.673
576.27	0.672
576.46	0.670
576.66	0.669
576.86	0.668
577.05	0.666
577.25	0.664
577.44	0.665
577.64	0.665
577.83	0.663
578.03	0.665
578.22	0.665
578.42	0.664
578.61	0.662
578.81	0.663
579.00	0.664
579.20	0.664
579.40	0.663
579.59	0.661
579.79	0.662
579.98	0.661
580.18	0.660
580.37	0.660
580.57	0.662
580.76	0.666
580.96	0.664
581.15	0.665
581.35	0.666
581.54	0.666
581.74	0.666
581.93	0.668
582.13	0.669
582.32	0.666
582.52	0.665
582.71	0.664
582.91	0.659
583.10	0.659
583.30	0.658
583.49	0.656
583.69	0.660
583.88	0.660
584.08	0.659
584.27	0.661
584.47	0.665
584.66	0.665
584.86	0.664
585.05	0.666
585.25	0.669
585.44	0.669
585.64	0.667
585.83	0.664
586.03	0.664
586.22	0.663
586.42	0.659
586.61	0.660
586.81	0.662
587.00	0.662
587.20	0.660
587.39	0.661
587.59	0.662
587.78	0.663
587.98	0.664
588.17	0.665
588.37	0.667
588.56	0.669
588.76	0.665
588.95	0.665
589.15	0.669
589.34	0.671
589.54	0.670
589.73	0.671
589.92	0.675
590.12	0.675
590.31	0.674
590.51	0.679
590.70	0.681
590.90	0.681
591.09	0.680
591.29	0.679
591.48	0.678
591.68	0.679
591.87	0.678
592.06	0.677
592.26	0.680
592.45	0.678
592.65	0.672
592.84	0.672
593.04	0.674
593.23	0.676
593.43	0.674
593.62	0.673
593.81	0.673
594.01	0.672
594.20	0.669
594.40	0.667
594.59	0.669
594.79	0.669
594.98	0.667
595.17	0.667
595.37	0.668
595.56	0.670
595.76	0.670
595.95	0.672
596.14	0.675
596.34	0.677
596.53	0.676
596.73	0.679
596.92	0.680
597.12	0.683
597.31	0.683
597.50	0.682
597.70	0.684
597.89	0.683
598.09	0.679
598.28	0.680
598.47	0.683
598.67	0.681
598.86	0.677
599.06	0.679
599.25	0.679
599.44	0.677
599.64	0.674
599.83	0.672
600.03	0.674
600.22	0.675
600.41	0.674
600.61	0.671
600.80	0.673
601.00	0.674
601.19	0.671
601.38	0.669
601.58	0.671
601.77	0.673
601.96	0.676
602.16	0.676
602.35	0.684
602.55	0.682
602.74	0.683
602.93	0.685
603.13	0.690
603.32	0.691
603.51	0.691
603.71	0.695
603.90	0.697
604.09	0.697
604.29	0.694
604.48	0.689
604.68	0.690
604.87	0.688
605.06	0.685
605.26	0.682
605.45	0.682
605.64	0.681
605.84	0.676
606.03	0.675
606.22	0.673
606.42	0.671
606.61	0.668
606.80	0.667
607.00	0.669
607.19	0.670
607.38	0.668
607.58	0.669
607.77	0.671
607.96	0.672
608.16	0.670
608.35	0.675
608.54	0.678
608.74	0.681
608.93	0.687
609.12	0.690
609.32	0.692
609.51	0.695
609.70	0.694
609.90	0.696
610.09	0.699
610.28	0.704
610.48	0.699
610.67	0.700
610.86	0.701
611.06	0.696
611.25	0.693
611.44	0.694
611.64	0.695
611.83	0.697
612.02	0.694
612.21	0.693
612.41	0.692
612.60	0.691
612.79	0.687
612.99	0.687
613.18	0.689
613.37	0.687
613.57	0.685
613.76	0.686
613.95	0.684
614.14	0.683
614.34	0.680
614.53	0.681
614.72	0.684
614.92	0.684
615.11	0.681
615.30	0.678
615.49	0.679
615.69	0.681
615.88	0.677
616.07	0.678
616.26	0.679
616.46	0.681
616.65	0.678
616.84	0.676
617.04	0.677
617.23	0.680
617.42	0.681
617.61	0.685
617.81	0.685
618.00	0.687
618.19	0.686
618.38	0.690
618.58	0.693
618.77	0.695
618.96	0.695
619.15	0.696
619.35	0.698
619.54	0.699
619.73	0.695
619.92	0.697
620.12	0.702
620.31	0.703
620.50	0.698
620.69	0.698
620.89	0.701
621.08	0.701
621.27	0.701
621.46	0.700
621.66	0.704
621.85	0.703
622.04	0.700
622.23	0.701
622.43	0.701
622.62	0.700
622.81	0.700
623.00	0.699
623.19	0.702
623.39	0.700
623.58	0.697
623.77	0.696
623.96	0.699
624.16	0.699
624.35	0.693
624.54	0.697
624.73	0.701
624.92	0.699
625.12	0.696
625.31	0.696
625.50	0.699
625.69	0.700
625.88	0.697
626.08	0.696
626.27	0.697
626.46	0.697
626.65	0.693
626.84	0.693
627.04	0.698
627.23	0.699
627.42	0.696
627.61	0.697
627.80	0.700
628.00	0.701
628.19	0.700
628.38	0.703
628.57	0.705
628.76	0.705
628.96	0.702
629.15	0.703
629.34	0.705
629.53	0.706
629.72	0.701
629.91	0.701
630.11	0.704
630.30	0.704
630.49	0.707
630.68	0.707
630.87	0.710
631.06	0.712
631.26	0.708
631.45	0.709
631.64	0.716
631.83	0.718
632.02	0.716
632.21	0.716
632.41	0.723
632.60	0.717
632.79	0.716
632.98	0.717
633.17	0.717
633.36	0.719
633.55	0.717
633.75	0.712
633.94	0.713
634.13	0.713
634.32	0.711
634.51	0.706
634.70	0.707
634.89	0.707
635.09	0.704
635.28	0.704
635.47	0.705
635.66	0.707
635.85	0.703
636.04	0.705
636.23	0.709
636.43	0.710
636.62	0.708
636.81	0.707
637.00	0.709
637.19	0.712
637.38	0.710
637.57	0.709
637.76	0.710
637.95	0.712
638.15	0.708
638.34	0.705
638.53	0.708
638.72	0.709
638.91	0.707
639.10	0.705
639.29	0.705
639.48	0.706
639.67	0.706
639.87	0.705
640.06	0.709
640.25	0.709
640.44	0.711
640.63	0.712
640.82	0.715
641.01	0.715
641.20	0.715
641.39	0.716
641.58	0.718
641.78	0.718
641.97	0.715
642.16	0.729
642.35	0.729
642.54	0.728
642.73	0.722
642.92	0.720
643.11	0.724
643.30	0.723
643.49	0.719
643.68	0.721
643.87	0.721
644.06	0.721
644.25	0.701
644.45	0.703
644.64	0.704
644.83	0.704
645.02	0.702
645.21	0.700
645.40	0.702
645.59	0.701
645.78	0.697
645.97	0.699
646.16	0.700
646.35	0.700
646.54	0.699
646.73	0.700
646.92	0.701
647.11	0.700
647.30	0.697
647.49	0.699
647.68	0.698
647.88	0.697
648.07	0.690
648.26	0.694
648.45	0.695
648.64	0.691
648.83	0.689
649.02	0.692
649.21	0.702
649.40	0.701
649.59	0.696
649.78	0.698
649.97	0.711
650.16	0.710
650.35	0.704
650.54	0.706
650.73	0.714
650.92	0.711
651.11	0.704
651.30	0.701
651.49	0.704
651.68	0.705
651.87	0.702
652.06	0.692
652.25	0.695
652.44	0.699
652.63	0.700
652.82	0.702
653.01	0.703
653.20	0.703
653.39	0.692
653.58	0.690
653.77	0.690
653.96	0.685
654.15	0.678
654.34	0.676
654.53	0.670
654.72	0.663
654.91	0.653
655.10	0.648
655.29	0.646
655.48	0.644
655.67	0.638
655.86	0.635
656.05	0.633
656.24	0.632
656.43	0.627
656.62	0.626
656.81	0.625
657.00	0.621
657.19	0.618
657.38	0.617
657.57	0.615
657.76	0.616
657.95	0.614
658.14	0.616
658.33	0.618
658.51	0.622
658.70	0.621
658.89	0.623
659.08	0.633
659.27	0.642
659.46	0.643
659.65	0.651
659.84	0.654
660.03	0.658
660.22	0.660
660.41	0.663
660.60	0.663
660.79	0.665
660.98	0.671
661.17	0.669
661.36	0.668
661.55	0.670
661.74	0.668
661.92	0.672
662.11	0.674
662.30	0.672
662.49	0.667
662.68	0.667
662.87	0.670
663.06	0.665
663.25	0.665
663.44	0.665
663.63	0.664
663.82	0.663
664.01	0.658
664.20	0.657
664.38	0.659
664.57	0.660
664.76	0.659
664.95	0.659
665.14	0.663
665.33	0.659
665.52	0.667
665.71	0.671
665.90	0.671
666.09	0.672
666.28	0.669
666.46	0.668
666.65	0.668
666.84	0.665
667.03	0.660
667.22	0.658
667.41	0.659
667.60	0.650
667.79	0.643
667.98	0.645
668.16	0.646
668.35	0.647
668.54	0.643
668.73	0.644
668.92	0.645
669.11	0.644
669.30	0.639
669.49	0.636
669.67	0.638
669.86	0.640
670.05	0.637
670.24	0.634
670.43	0.631
670.62	0.631
670.81	0.626
671.00	0.626
671.18	0.625
671.37	0.624
671.56	0.623
671.75	0.621
671.94	0.618
672.13	0.616
672.32	0.612
672.50	0.611
672.69	0.611
672.88	0.611
673.07	0.607
673.26	0.609
673.45	0.609
673.63	0.609
673.82	0.606
674.01	0.608
674.20	0.607
674.39	0.607
674.58	0.607
674.76	0.607
674.95	0.606
675.14	0.606
675.33	0.603
675.52	0.602
675.71	0.602
675.89	0.602
676.08	0.598
676.27	0.599
676.46	0.599
676.65	0.597
676.84	0.597
677.02	0.599
677.21	0.600
677.40	0.599
677.59	0.597
677.78	0.597
677.96	0.599
678.15	0.599
678.34	0.597
678.53	0.598
678.72	0.598
678.90	0.595
679.09	0.591
679.28	0.588
679.47	0.587
679.66	0.586
679.84	0.583
680.03	0.580
680.22	0.579
680.41	0.580
680.60	0.577
680.78	0.575
680.97	0.577
681.16	0.578
681.35	0.576
681.53	0.576
681.72	0.577
681.91	0.579
682.10	0.578
682.29	0.580
682.47	0.578
682.66	0.576
682.85	0.575
683.04	0.573
683.22	0.573
683.41	0.574
683.60	0.573
683.79	0.574
683.97	0.573
684.16	0.572
684.35	0.568
684.54	0.569
684.72	0.571
684.91	0.572
685.10	0.571
685.29	0.572
685.47	0.569
685.66	0.568
685.85	0.565
686.04	0.564
686.22	0.566
686.41	0.569
686.60	0.566
686.79	0.569
686.97	0.569
687.16	0.570
687.35	0.568
687.54	0.572
687.72	0.575
687.91	0.576
688.10	0.578
688.29	0.578
688.47	0.576
688.66	0.576
688.85	0.573
689.03	0.571
689.22	0.575
689.41	0.575
689.60	0.570
689.78	0.568
689.97	0.568
690.16	0.565
690.34	0.561
690.53	0.561
690.72	0.560
690.91	0.558
691.09	0.557
691.28	0.551
691.47	0.549
691.65	0.548
691.84	0.545
692.03	0.544
692.21	0.542
692.40	0.541
692.59	0.539
692.77	0.538
692.96	0.539
693.15	0.539
693.34	0.538
693.52	0.538
693.71	0.537
693.90	0.538
694.08	0.539
694.27	0.540
694.46	0.549
694.64	0.550
694.83	0.550
695.02	0.549
695.20	0.549
695.39	0.549
695.58	0.549
695.76	0.550
695.95	0.549
696.14	0.547
696.32	0.546
696.51	0.536
696.70	0.536
696.88	0.537
697.07	0.536
697.26	0.537
697.44	0.538
697.63	0.537
697.81	0.534
698.00	0.534
698.19	0.534
698.37	0.534
698.56	0.533
698.75	0.533
698.93	0.532
699.12	0.532
699.31	0.531
699.49	0.530
699.68	0.531
699.87	0.534
700.05	0.534
700.24	0.534
700.42	0.535
700.61	0.535
700.80	0.533
700.98	0.533
701.17	0.535
701.36	0.533
701.54	0.533
701.73	0.533
701.91	0.530
702.10	0.530
702.29	0.528
702.47	0.527
702.66	0.528
702.84	0.530
703.03	0.528
703.22	0.529
703.40	0.529
703.59	0.531
703.77	0.530
703.96	0.530
704.15	0.531
704.33	0.531
704.52	0.530
704.70	0.529
704.89	0.529
705.08	0.528
705.26	0.524
705.45	0.524
705.63	0.523
705.82	0.520
706.00	0.519
706.19	0.519
706.38	0.519
706.56	0.519
706.75	0.517
706.93	0.516
707.12	0.517
707.30	0.518
707.49	0.515
707.68	0.514
707.86	0.513
708.05	0.512
708.23	0.509
708.42	0.510
708.60	0.512
708.79	0.512
708.98	0.510
709.16	0.510
709.35	0.511
709.53	0.515
709.72	0.514
709.90	0.516
710.09	0.517
710.27	0.519
710.46	0.523
710.64	0.522
710.83	0.524
711.02	0.525
711.20	0.525
711.39	0.524
711.57	0.521
711.76	0.522
711.94	0.520
712.13	0.521
712.31	0.520
712.50	0.516
712.68	0.514
712.87	0.515
713.05	0.515
713.24	0.515
713.42	0.515
713.61	0.516
713.79	0.516
713.98	0.516
714.16	0.518
714.35	0.517
714.54	0.517
714.72	0.517
714.91	0.515
715.09	0.521
715.28	0.524
715.46	0.524
715.65	0.523
715.83	0.522
716.02	0.524
716.20	0.521
716.39	0.521
716.57	0.522
716.76	0.524
716.94	0.524
717.12	0.516
717.31	0.517
717.49	0.520
717.68	0.522
717.86	0.522
718.05	0.524
718.23	0.526
718.42	0.528
718.60	0.529
718.79	0.537
718.97	0.539
719.16	0.539
719.34	0.536
719.53	0.535
719.71	0.535
719.90	0.536
720.08	0.533
720.27	0.533
720.45	0.532
720.63	0.531
720.82	0.525
721.00	0.528
721.19	0.531
721.37	0.532
721.56	0.532
721.74	0.534
721.93	0.542
722.11	0.548
722.30	0.548
722.48	0.553
722.66	0.555
722.85	0.555
723.03	0.555
723.22	0.555
723.40	0.557
723.59	0.558
723.77	0.562
723.95	0.555
724.14	0.557
724.32	0.558
724.51	0.558
724.69	0.559
724.88	0.559
725.06	0.558
725.24	0.559
725.43	0.561
725.61	0.562
725.80	0.557
725.98	0.556
726.16	0.553
726.35	0.559
726.53	0.558
726.72	0.556
726.90	0.566
727.09	0.566
727.27	0.571
727.45	0.568
727.64	0.577
727.82	0.584
728.01	0.587
728.19	0.585
728.37	0.591
728.56	0.594
728.74	0.601
728.92	0.591
729.11	0.593
729.29	0.590
729.48	0.592
729.66	0.583
729.84	0.584
730.03	0.587
730.21	0.590
730.40	0.580
730.58	0.582
730.76	0.581
730.95	0.583
731.13	0.584
731.31	0.598
731.50	0.607
731.68	0.610
731.86	0.606
732.05	0.619
732.23	0.622
732.42	0.627
732.60	0.629
732.78	0.633
732.97	0.649
733.15	0.654
733.33	0.644
733.52	0.649
733.70	0.660
733.88	0.668
734.07	0.656
734.25	0.680
734.43	0.685
734.62	0.689
734.80	0.686
734.98	0.677
735.17	0.683
735.35	0.689
735.53	0.681
735.72	0.683
735.90	0.702
736.08	0.721
736.27	0.700
736.45	0.710
736.63	0.720
736.82	0.729
737.00	0.729
737.18	0.739
737.37	0.769
737.55	0.788
737.73	0.785
737.92	0.786
738.10	0.780
738.28	0.800
738.46	0.788
738.65	0.801
738.83	0.820
739.01	0.873
739.20	0.866
739.38	0.848
739.56	0.842
739.75	0.848
739.93	0.814
740.11	0.838
740.29	0.833
740.48	0.841
740.66	0.821
740.84	0.816
741.03	0.780
741.21	0.787
741.39	0.772
741.57	0.781
741.76	0.791
741.94	0.798
742.12	0.767
742.31	0.771
742.49	0.785
742.67	0.809
742.85	0.825
743.04	0.828
743.22	0.836
743.40	0.882
743.58	0.869
743.77	0.885
743.95	0.915
744.13	0.960
744.31	0.944
744.50	0.940
744.68	0.938
744.86	0.912
745.04	0.922
745.23	0.980
745.41	0.964
745.59	0.965
745.77	0.938
745.96	0.928
746.14	0.937
746.32	0.939
746.50	0.933
746.69	0.913
746.87	0.924
747.05	0.910
747.23	0.848
747.42	0.830
747.60	0.855
747.78	0.854
747.96	0.884
748.14	0.845
748.33	0.867
748.51	0.861
748.69	0.857
748.87	0.880
749.06	0.875
749.24	0.874
749.42	0.867
749.60	0.851
749.78	0.858
749.97	0.810
750.15	0.801
750.33	0.802
750.51	0.823
750.69	0.830
750.88	0.837
751.06	0.844
751.24	0.864
751.42	0.854
751.60	0.848
751.79	0.910
751.97	0.951
752.15	0.958
752.33	0.933
752.51	0.991
752.69	0.997
752.88	0.967
753.06	1.013
753.24	0.989
753.42	1.017
753.60	1.163
753.78	1.045
753.97	1.069
754.15	1.076
754.33	1.105
754.51	0.996
754.69	0.983
754.87	1.005
755.06	0.938
755.24	0.942
755.42	0.952
755.60	0.862
755.78	0.869
755.96	0.822
756.15	0.820
756.33	0.820
756.51	0.838
756.69	0.829
756.87	0.800
757.05	0.819
757.23	0.803
757.42	0.773
757.60	0.773
757.78	0.763
757.96	0.757
758.14	0.747
758.32	0.733
758.50	0.742
758.69	0.738
758.87	0.734
759.05	0.736
759.23	0.745
759.41	0.747
759.59	0.742
759.77	0.761
759.95	0.785
760.13	0.828
760.32	0.829
760.50	0.824
760.68	0.848
760.86	0.846
761.04	0.823
761.22	0.827
761.40	0.871
761.58	0.872
761.76	0.850
761.95	0.832
762.13	0.792
762.31	0.790
762.49	0.765
762.67	0.779
762.85	0.788
763.03	0.782
763.21	0.767
763.39	0.747
763.57	0.747
763.75	0.739
763.94	0.728
764.12	0.730
764.30	0.753
764.48	0.756
764.66	0.726
764.84	0.727
765.02	0.763
765.20	0.766
765.38	0.751
765.56	0.755
765.74	0.792
765.92	0.792
766.10	0.797
766.28	0.790
766.46	0.814
766.65	0.814
766.83	0.802
767.01	0.785
767.19	0.790
767.37	0.789
767.55	0.778
767.73	0.757
767.91	0.761
768.09	0.753
768.27	0.742
768.45	0.733
768.63	0.738
768.81	0.739
768.99	0.717
769.17	0.738
769.35	0.750
769.53	0.750
769.71	0.735
769.89	0.740
770.07	0.742
770.25	0.727
770.43	0.709
770.61	0.727
770.79	0.732
770.97	0.741
771.15	0.714
771.33	0.716
771.51	0.720
771.69	0.731
771.87	0.740
772.05	0.748
772.24	0.753
772.42	0.760
772.60	0.744
772.78	0.796
772.96	0.822
773.14	0.816
773.32	0.797
773.49	0.801
773.67	0.795
773.85	0.778
774.03	0.766
774.21	0.796
774.39	0.802
774.57	0.821
774.75	0.758
774.93	0.751
775.11	0.771
775.29	0.778
775.47	0.781
775.65	0.791
775.83	0.803
776.01	0.824
776.19	0.785
776.37	0.788
776.55	0.787
776.73	0.786
776.91	0.784
777.09	0.766
777.27	0.760
777.45	0.749
777.63	0.730
777.81	0.728
777.99	0.716
778.17	0.715
778.35	0.698
778.53	0.686
778.71	0.689
778.89	0.678
779.07	0.672
779.24	0.679
779.42	0.678
779.60	0.694
779.78	0.691
779.96	0.695
780.14	0.699
780.32	0.716
780.50	0.701
780.68	0.707
780.86	0.699
781.04	0.714
781.22	0.719
781.40	0.728
781.58	0.715
781.75	0.708
781.93	0.694
782.11	0.693
782.29	0.681
782.47	0.682
782.65	0.668
782.83	0.693
783.01	0.685
783.19	0.677
783.37	0.666
783.55	0.670
783.72	0.686
783.90	0.696
784.08	0.689
784.26	0.699
784.44	0.716
784.62	0.719
784.80	0.690
784.98	0.697
785.16	0.703
785.33	0.715
785.51	0.704
785.69	0.689
785.87	0.689
786.05	0.702
786.23	0.699
786.41	0.696
786.59	0.702
786.77	0.702
786.94	0.692
787.12	0.695
787.30	0.695
787.48	0.694
787.66	0.686
787.84	0.687
788.02	0.676
788.19	0.673
788.37	0.663
788.55	0.662
788.73	0.661
788.91	0.655
789.09	0.642
789.27	0.631
789.44	0.640
789.62	0.646
789.80	0.653
789.98	0.676
790.16	0.662
790.34	0.656
790.51	0.645
790.69	0.663
790.87	0.666
791.05	0.664
791.23	0.661
791.41	0.661
791.58	0.664
791.76	0.647
791.94	0.620
792.12	0.628
792.30	0.631
792.48	0.630
792.65	0.625
792.83	0.632
793.01	0.637
793.19	0.635
793.37	0.622
793.54	0.620
793.72	0.628
793.90	0.628
794.08	0.619
794.26	0.619
794.43	0.626
794.61	0.611
794.79	0.601
794.97	0.600
795.15	0.605
795.32	0.607
795.50	0.598
795.68	0.593
795.86	0.595
796.04	0.597
796.21	0.592
796.39	0.590
796.57	0.603
796.75	0.608
796.92	0.610
797.10	0.616
797.28	0.617
797.46	0.621
797.64	0.626
797.81	0.633
797.99	0.638
798.17	0.643
798.35	0.639
798.52	0.643
798.70	0.640
798.88	0.647
799.06	0.646
799.23	0.648
799.41	0.652
799.59	0.645
799.77	0.634
799.94	0.641
800.12	0.646
800.30	0.661
800.48	0.660
800.65	0.658
800.83	0.647
801.01	0.640
801.19	0.642
801.36	0.639
801.54	0.640
801.72	0.652
801.90	0.641
802.07	0.638
802.25	0.624
802.43	0.609
802.60	0.609
802.78	0.617
802.96	0.621
803.14	0.616
803.31	0.615
803.49	0.618
803.67	0.612
803.84	0.616
804.02	0.609
804.20	0.612
804.38	0.617
804.55	0.614
804.73	0.603
804.91	0.603
805.08	0.613
805.26	0.609
805.44	0.670
805.61	0.672
805.79	0.672
805.97	0.672
806.15	0.664
806.32	0.660
806.50	0.665
806.68	0.664
806.85	0.655
807.03	0.645
807.21	0.659
807.38	0.597
807.56	0.587
807.74	0.594
807.91	0.598
808.09	0.600
808.27	0.617
808.44	0.638
808.62	0.648
808.80	0.652
808.97	0.647
809.15	0.644
809.33	0.658
809.50	0.665
809.68	0.654
809.86	0.664
810.03	0.692
810.21	0.674
810.39	0.660
810.56	0.664
810.74	0.685
810.91	0.753
811.09	0.744
811.27	0.763
811.44	0.770
811.62	0.770
811.80	0.754
811.97	0.728
812.15	0.726
812.33	0.721
812.50	0.710
812.68	0.698
812.85	0.644
813.03	0.647
813.21	0.618
813.38	0.611
813.56	0.615
813.74	0.624
813.91	0.631
814.09	0.657
814.26	0.651
814.44	0.654
814.62	0.647
814.79	0.648
814.97	0.652
815.14	0.656
815.32	0.660
815.50	0.675
815.67	0.678
815.85	0.669
816.02	0.660
816.20	0.667
816.38	0.677
816.55	0.681
816.73	0.682
816.90	0.690
817.08	0.716
817.26	0.721
817.43	0.703
817.61	0.725
817.78	0.741
817.96	0.723
818.13	0.714
818.31	0.714
818.49	0.725
818.66	0.720
818.84	0.709
819.01	0.688
819.19	0.692
819.36	0.694
819.54	0.668
819.71	0.705
819.89	0.714
820.07	0.726
820.24	0.723
820.42	0.722
820.59	0.735
820.77	0.755
820.94	0.753
821.12	0.772
821.29	0.785
821.47	0.786
821.64	0.732
821.82	0.743
822.00	0.739
822.17	0.738
822.35	0.734
822.52	0.734
822.70	0.724
822.87	0.731
823.05	0.712
823.22	0.720
823.40	0.740
823.57	0.762
823.75	0.749
823.92	0.777
824.10	0.792
824.27	0.826
824.45	0.823
824.62	0.882
824.80	0.893
824.97	0.903
825.15	0.899
825.32	0.912
825.50	0.908
825.67	0.914
825.85	0.889
826.02	0.905
826.20	0.921
826.37	1.030
826.55	0.958
826.72	1.121
826.90	1.185
827.07	1.221
827.25	1.184
827.42	1.320
827.60	1.451
827.77	1.576
827.95	1.551
828.12	1.653
828.30	1.346
828.47	1.432
828.65	1.146
828.82	1.184
829.00	1.227
829.17	1.289
829.34	1.279
829.52	1.309
829.69	-0.000
829.87	-0.000
830.04	-0.000
830.22	-0.000
830.39	-0.000
830.57	-0.000
830.74	-0.000
830.92	-0.000
831.09	-0.000
831.26	-0.000
831.44	-0.000
831.61	-0.000
831.79	-0.000
831.96	-0.000
832.14	-0.000
832.31	-0.000
832.49	-0.000
832.66	-0.000
832.83	-0.000
833.01	-0.000
833.18	-0.000
833.36	-0.000
833.53	-0.000
833.70	-0.000
833.88	-0.000
834.05	-0.000
834.23	-0.000
834.40	-0.000
834.58	-0.000
834.75	-0.000
834.92	-0.000
835.10	-0.000
835.27	-0.000
835.45	-0.000
835.62	-0.000
835.79	-0.000
835.97	-0.000
836.14	-0.000
836.32	-0.000
836.49	-0.000
836.66	-0.000
836.84	-0.000
837.01	-0.000
837.18	-0.000
837.36	-0.000
837.53	-0.000
837.71	-0.000
837.88	-0.000
838.05	-0.000
838.23	-0.000
838.40	-0.000
838.58	-0.000
838.75	-0.000
838.92	-0.000
839.10	-0.000
839.27	-0.000
839.44	-0.000
839.62	-0.000
839.79	-0.000
839.96	-0.000
840.14	-0.000
840.31	-0.000
840.48	-0.000
840.66	-0.000
840.83	-0.000
841.01	-0.000
841.18	-0.000
841.35	-0.000
841.53	-0.000
841.70	-0.000
841.87	-0.000
842.05	-0.000
842.22	-0.000
842.39	-0.000
842.57	-0.000
842.74	-0.000
842.91	-0.000
843.09	-0.000
843.26	-0.000
843.43	-0.000
843.60	-0.000
843.78	-0.000
843.95	-0.000
844.12	-0.000
844.30	-0.000
844.47	-0.000
844.64	-0.000
844.82	-0.000
844.99	-0.000
845.16	-0.000
845.34	-0.000
845.51	-0.000
845.68	-0.000
845.85	-0.000
846.03	-0.000
846.20	-0.000
846.37	-0.000
846.55	-0.000
846.72	-0.000
846.89	-0.000
847.06	-0.000
847.24	-0.000
847.41	-0.000
847.58	-0.000
847.76	-0.000
847.93	-0.000
848.10	-0.000
848.27	-0.000
848.45	-0.000
848.62	-0.000
848.79	-0.000
848.97	-0.000
849.14	-0.000
849.31	-0.000
849.48	-0.000
849.66	-0.000
849.83	-0.000
850.00	-0.000
850.17	-0.000
850.35	-0.000
850.52	-0.000
850.69	-0.000
850.86	-0.000
851.04	-0.000
851.21	-0.000
851.38	-0.000
851.55	-0.000
851.72	-0.000
851.90	-0.000
852.07	-0.000
852.24	-0.000
852.41	-0.000
852.59	-0.000
852.76	-0.000
852.93	-0.000
853.10	-0.000
853.28	-0.000
853.45	-0.000
853.62	-0.000
853.79	-0.000
853.96	-0.000
854.14	-0.000
854.31	-0.000
854.48	-0.000
854.65	-0.000
854.82	-0.000
855.00	-0.000
855.17	-0.000
855.34	-0.000
855.51	-0.000
855.68	-0.000
855.86	-0.000
856.03	-0.000
856.20	-0.000
856.37	-0.000
856.54	-0.000
856.72	-0.000
856.89	-0.000
857.06	-0.000
857.23	-0.000
857.40	-0.000
857.57	-0.000
857.75	-0.000
857.92	-0.000
858.09	-0.000
858.26	-0.000
858.43	-0.000
858.60	-0.000
858.78	-0.000
858.95	-0.000
859.12	-0.000
859.29	-0.000
859.46	-0.000
859.63	-0.000
859.81	-0.000
859.98	-0.000
860.15	-0.000
860.32	-0.000
860.49	-0.000
860.66	-0.000
860.83	-0.000
861.01	-0.000
861.18	-0.000
861.35	-0.000
861.52	-0.000
861.69	-0.000
861.86	-0.000
862.03	-0.000
862.21	-0.000
862.38	-0.000
862.55	-0.000
862.72	-0.000
862.89	-0.000
863.06	-0.000
863.23	-0.000
863.40	-0.000
863.58	-0.000
863.75	-0.000
863.92	-0.000
864.09	-0.000
864.26	-0.000
864.43	-0.000
864.60	-0.000
864.77	-0.000
864.94	-0.000
865.11	-0.000
865.29	-0.000
865.46	-0.000
865.63	-0.000
865.80	-0.000
865.97	-0.000
866.14	-0.000
866.31	-0.000
866.48	-0.000
866.65	-0.000
866.82	-0.000
866.99	-0.000
867.16	-0.000
867.34	-0.000
867.51	-0.000
867.68	-0.000
867.85	-0.000
868.02	-0.000
868.19	-0.000
868.36	-0.000
868.53	-0.000
868.70	-0.000
868.87	-0.000
869.04	-0.000
869.21	-0.000
869.38	-0.000
869.55	-0.000
869.72	-0.000
869.89	-0.000
870.06	-0.000
870.24	-0.000
870.41	-0.000
870.58	-0.000
870.75	-0.000
870.92	-0.000
871.09	-0.000
871.26	-0.000
871.43	-0.000
871.60	-0.000
871.77	-0.000
871.94	-0.000
872.11	-0.000
872.28	-0.000
872.45	-0.000
872.62	-0.000
872.79	-0.000
872.96	-0.000
873.13	-0.000
873.30	-0.000
873.47	-0.000
873.64	-0.000
873.81	-0.000
873.98	-0.000
874.15	-0.000
874.32	-0.000
874.49	-0.000
874.66	-0.000
874.83	-0.000
875.00	-0.000
875.17	-0.000
875.34	-0.000
875.51	-0.000
875.68	-0.000
875.85	-0.000
876.02	-0.000
876.19	-0.000
876.36	-0.000
876.53	-0.000
876.70	-0.000
876.87	-0.000
877.04	-0.000
877.21	-0.000
877.38	-0.000
877.55	-0.000
877.72	-0.000
877.89	-0.000
878.06	-0.000
878.23	-0.000
878.39	-0.000
878.56	-0.000
878.73	-0.000
878.90	-0.000
879.07	-0.000
879.24	-0.000
879.41	-0.000
879.58	-0.000
879.75	-0.000
879.92	-0.000
880.09	-0.000
880.26	-0.000
880.43	-0.000
880.60	-0.000
880.77	-0.000
880.94	-0.000
881.11	-0.000
881.27	-0.000
881.44	-0.000
881.61	-0.000
881.78	-0.000
881.95	-0.000
882.12	-0.000
882.29	-0.000
882.46	-0.000
882.63	-0.000
882.80	-0.000
882.97	-0.000
883.14	-0.000
883.30	-0.000
883.47	-0.000
883.64	-0.000
883.81	-0.000
883.98	-0.000
884.15	-0.000
884.32	-0.000
884.49	-0.000
884.66	-0.000
884.82	-0.000
884.99	-0.000
885.16	-0.000
885.33	-0.000
885.50	-0.000
885.67	-0.000
885.84	-0.000
886.01	-0.000
886.17	-0.000
886.34	-0.000
886.51	-0.000
886.68	-0.000
886.85	-0.000
887.02	-0.000
887.19	-0.000
887.36	-0.000
887.52	-0.000
887.69	-0.000
887.86	-0.000
888.03	-0.000
888.20	-0.000
888.37	-0.000
888.54	-0.000
888.70	-0.000
888.87	-0.000
889.04	-0.000
889.21	-0.000
889.38	-0.000
889.55	-0.000
889.71	-0.000
889.88	-0.000
890.05	-0.000
890.22	-0.000
890.39	-0.000
>>>>>End Processed Spectral Data<<<<<
