SpectraSuite Data File
++++++++++++++++++++++++++++++++++++
Date: Fri Jun 19 12:20:41 CEST 2015
User: introlabs
Dark Spectrum Present: Yes
Reference Spectrum Present: Yes
Number of Sampled Component Spectra: 1
Spectrometers: USB4H08886
Integration Time (usec): 745692 (USB4H08886)
Spectra Averaged: 5 (USB4H08886)
Boxcar Smoothing: 5 (USB4H08886)
Correct for Electrical Dark: Yes (USB4H08886)
Strobe/Lamp Enabled: No (USB4H08886)
Correct for Detector Non-linearity: Yes (USB4H08886)
Correct for Stray Light: Yes (USB4H08886)
Number of Pixels in Processed Spectrum: 3648
>>>>>Begin Processed Spectral Data<<<<<
178.14	-0.000
178.36	-0.000
178.57	-0.000
178.79	-0.000
179.01	-0.000
179.22	-0.000
179.44	-0.000
179.65	-0.000
179.87	-0.000
180.08	-0.000
180.30	-0.000
180.52	-0.000
180.73	-0.000
180.95	-0.000
181.16	-0.000
181.38	-0.000
181.59	-0.000
181.81	-0.000
182.03	-0.000
182.24	-0.000
182.46	-0.000
182.67	-0.000
182.89	-0.000
183.10	-0.000
183.32	-0.000
183.54	-0.000
183.75	-0.000
183.97	-0.000
184.18	-0.000
184.40	-0.000
184.61	-0.000
184.83	-0.000
185.04	-0.000
185.26	-0.000
185.48	-0.000
185.69	-0.000
185.91	-0.000
186.12	-0.000
186.34	-0.000
186.55	-0.000
186.77	-0.000
186.98	-0.000
187.20	-0.000
187.42	-0.000
187.63	-0.000
187.85	-0.000
188.06	-0.000
188.28	-0.000
188.49	-0.000
188.71	-0.000
188.92	-0.000
189.14	-0.000
189.36	-0.000
189.57	-0.000
189.79	-0.000
190.00	-0.000
190.22	-0.000
190.43	-0.000
190.65	-0.000
190.86	-0.000
191.08	-0.000
191.29	-0.000
191.51	-0.000
191.72	-0.000
191.94	-0.000
192.16	-0.000
192.37	-0.000
192.59	-0.000
192.80	-0.000
193.02	-0.000
193.23	-0.000
193.45	-0.000
193.66	-0.000
193.88	-0.000
194.09	-0.000
194.31	-0.000
194.52	-0.000
194.74	-0.000
194.95	-0.000
195.17	-0.000
195.38	-0.000
195.60	-0.000
195.81	-0.000
196.03	-0.000
196.25	-0.000
196.46	-0.000
196.68	-0.000
196.89	-0.000
197.11	-0.000
197.32	-0.000
197.54	-0.000
197.75	-0.000
197.97	-0.000
198.18	-0.000
198.40	-0.000
198.61	-0.000
198.83	-0.000
199.04	-0.000
199.26	-0.000
199.47	-0.000
199.69	-0.000
199.90	-0.000
200.12	-0.000
200.33	-0.000
200.55	-0.000
200.76	-0.000
200.98	-0.000
201.19	-0.000
201.41	-0.000
201.62	-0.000
201.84	-0.000
202.05	-0.000
202.27	-0.000
202.48	-0.000
202.70	-0.000
202.91	-0.000
203.13	-0.000
203.34	-0.000
203.56	-0.000
203.77	-0.000
203.99	-0.000
204.20	-0.000
204.42	-0.000
204.63	-0.000
204.85	-0.000
205.06	-0.000
205.28	-0.000
205.49	-0.000
205.71	-0.000
205.92	-0.000
206.14	-0.000
206.35	-0.000
206.56	-0.000
206.78	-0.000
206.99	-0.000
207.21	-0.000
207.42	-0.000
207.64	-0.000
207.85	-0.000
208.07	-0.000
208.28	-0.000
208.50	-0.000
208.71	-0.000
208.93	-0.000
209.14	-0.000
209.36	-0.000
209.57	-0.000
209.79	-0.000
210.00	-0.000
210.22	-0.000
210.43	-0.000
210.64	-0.000
210.86	-0.000
211.07	-0.000
211.29	-0.000
211.50	-0.000
211.72	-0.000
211.93	-0.000
212.15	-0.000
212.36	-0.000
212.58	-0.000
212.79	-0.000
213.01	-0.000
213.22	-0.000
213.43	-0.000
213.65	-0.000
213.86	-0.000
214.08	-0.000
214.29	-0.000
214.51	-0.000
214.72	-0.000
214.94	-0.000
215.15	-0.000
215.36	-0.000
215.58	-0.000
215.79	-0.000
216.01	-0.000
216.22	-0.000
216.44	-0.000
216.65	-0.000
216.87	-0.000
217.08	-0.000
217.29	-0.000
217.51	-0.000
217.72	-0.000
217.94	-0.000
218.15	-0.000
218.37	-0.000
218.58	-0.000
218.80	-0.000
219.01	-0.000
219.22	-0.000
219.44	-0.000
219.65	-0.000
219.87	-0.000
220.08	-0.000
220.30	-0.000
220.51	-0.000
220.72	-0.000
220.94	-0.000
221.15	-0.000
221.37	-0.000
221.58	-0.000
221.79	-0.000
222.01	-0.000
222.22	-0.000
222.44	-0.000
222.65	-0.000
222.87	-0.000
223.08	-0.000
223.29	-0.000
223.51	-0.000
223.72	-0.000
223.94	-0.000
224.15	-0.000
224.36	-0.000
224.58	-0.000
224.79	-0.000
225.01	-0.000
225.22	-0.000
225.44	-0.000
225.65	-0.000
225.86	-0.000
226.08	-0.000
226.29	-0.000
226.51	-0.000
226.72	-0.000
226.93	-0.000
227.15	-0.000
227.36	-0.000
227.58	-0.000
227.79	-0.000
228.00	-0.000
228.22	-0.000
228.43	-0.000
228.65	-0.000
228.86	-0.000
229.07	-0.000
229.29	-0.000
229.50	-0.000
229.72	-0.000
229.93	-0.000
230.14	-0.000
230.36	-0.000
230.57	-0.000
230.78	-0.000
231.00	-0.000
231.21	-0.000
231.43	-0.000
231.64	-0.000
231.85	-0.000
232.07	-0.000
232.28	-0.000
232.50	-0.000
232.71	-0.000
232.92	-0.000
233.14	-0.000
233.35	-0.000
233.56	-0.000
233.78	-0.000
233.99	-0.000
234.21	-0.000
234.42	-0.000
234.63	-0.000
234.85	-0.000
235.06	-0.000
235.27	-0.000
235.49	-0.000
235.70	-0.000
235.91	-0.000
236.13	-0.000
236.34	-0.000
236.56	-0.000
236.77	-0.000
236.98	-0.000
237.20	-0.000
237.41	-0.000
237.62	-0.000
237.84	-0.000
238.05	-0.000
238.26	-0.000
238.48	-0.000
238.69	-0.000
238.91	-0.000
239.12	-0.000
239.33	-0.000
239.55	-0.000
239.76	-0.000
239.97	-0.000
240.19	-0.000
240.40	-0.000
240.61	-0.000
240.83	-0.000
241.04	-0.000
241.25	-0.000
241.47	-0.000
241.68	-0.000
241.89	-0.000
242.11	-0.000
242.32	-0.000
242.53	-0.000
242.75	-0.000
242.96	-0.000
243.17	-0.000
243.39	-0.000
243.60	-0.000
243.81	-0.000
244.03	-0.000
244.24	-0.000
244.45	-0.000
244.67	-0.000
244.88	-0.000
245.09	-0.000
245.31	-0.000
245.52	-0.000
245.73	-0.000
245.95	-0.000
246.16	-0.000
246.37	-0.000
246.59	-0.000
246.80	-0.000
247.01	-0.000
247.23	-0.000
247.44	-0.000
247.65	-0.000
247.87	-0.000
248.08	-0.000
248.29	-0.000
248.51	-0.000
248.72	-0.000
248.93	-0.000
249.15	-0.000
249.36	-0.000
249.57	-0.000
249.78	-0.000
250.00	-0.000
250.21	-0.000
250.42	-0.000
250.64	-0.000
250.85	-0.000
251.06	-0.000
251.28	-0.000
251.49	-0.000
251.70	-0.000
251.92	-0.000
252.13	-0.000
252.34	-0.000
252.55	-0.000
252.77	-0.000
252.98	-0.000
253.19	-0.000
253.41	-0.000
253.62	-0.000
253.83	-0.000
254.05	-0.000
254.26	-0.000
254.47	-0.000
254.68	-0.000
254.90	-0.000
255.11	-0.000
255.32	-0.000
255.54	-0.000
255.75	-0.000
255.96	-0.000
256.17	-0.000
256.39	-0.000
256.60	-0.000
256.81	-0.000
257.03	-0.000
257.24	-0.000
257.45	-0.000
257.66	-0.000
257.88	-0.000
258.09	-0.000
258.30	-0.000
258.51	-0.000
258.73	-0.000
258.94	-0.000
259.15	-0.000
259.37	-0.000
259.58	-0.000
259.79	-0.000
260.00	-0.000
260.22	-0.000
260.43	-0.000
260.64	-0.000
260.85	-0.000
261.07	-0.000
261.28	-0.000
261.49	-0.000
261.71	-0.000
261.92	-0.000
262.13	-0.000
262.34	-0.000
262.56	-0.000
262.77	-0.000
262.98	-0.000
263.19	-0.000
263.41	-0.000
263.62	-0.000
263.83	-0.000
264.04	-0.000
264.26	-0.000
264.47	-0.000
264.68	-0.000
264.89	-0.000
265.11	-0.000
265.32	-0.000
265.53	-0.000
265.74	-0.000
265.96	-0.000
266.17	-0.000
266.38	-0.000
266.59	-0.000
266.81	-0.000
267.02	-0.000
267.23	-0.000
267.44	-0.000
267.65	-0.000
267.87	-0.000
268.08	-0.000
268.29	-0.000
268.50	-0.000
268.72	-0.000
268.93	-0.000
269.14	-0.000
269.35	-0.000
269.57	-0.000
269.78	-0.000
269.99	-0.000
270.20	-0.000
270.41	-0.000
270.63	-0.000
270.84	-0.000
271.05	-0.000
271.26	-0.000
271.48	-0.000
271.69	-0.000
271.90	-0.000
272.11	-0.000
272.32	-0.000
272.54	-0.000
272.75	-0.000
272.96	-0.000
273.17	-0.000
273.39	-0.000
273.60	-0.000
273.81	-0.000
274.02	-0.000
274.23	-0.000
274.45	-0.000
274.66	-0.000
274.87	-0.000
275.08	-0.000
275.29	-0.000
275.51	-0.000
275.72	-0.000
275.93	-0.000
276.14	-0.000
276.35	-0.000
276.57	-0.000
276.78	-0.000
276.99	-0.000
277.20	-0.000
277.41	-0.000
277.63	-0.000
277.84	-0.000
278.05	-0.000
278.26	-0.000
278.47	-0.000
278.69	-0.000
278.90	-0.000
279.11	-0.000
279.32	-0.000
279.53	-0.000
279.74	-0.000
279.96	-0.000
280.17	-0.000
280.38	-0.000
280.59	-0.000
280.80	-0.000
281.02	-0.000
281.23	-0.000
281.44	-0.000
281.65	-0.000
281.86	-0.000
282.07	-0.000
282.29	-0.000
282.50	-0.000
282.71	-0.000
282.92	-0.000
283.13	-0.000
283.35	-0.000
283.56	-0.000
283.77	-0.000
283.98	-0.000
284.19	-0.000
284.40	-0.000
284.62	-0.000
284.83	-0.000
285.04	-0.000
285.25	-0.000
285.46	-0.000
285.67	-0.000
285.88	-0.000
286.10	-0.000
286.31	-0.000
286.52	-0.000
286.73	-0.000
286.94	-0.000
287.15	-0.000
287.37	-0.000
287.58	-0.000
287.79	-0.000
288.00	-0.000
288.21	-0.000
288.42	-0.000
288.63	-0.000
288.85	-0.000
289.06	-0.000
289.27	-0.000
289.48	-0.000
289.69	-0.000
289.90	-0.000
290.11	-0.000
290.33	-0.000
290.54	-0.000
290.75	-0.000
290.96	-0.000
291.17	-0.000
291.38	-0.000
291.59	-0.000
291.81	1.867
292.02	1.813
292.23	1.762
292.44	1.572
292.65	1.485
292.86	1.598
293.07	1.576
293.28	1.444
293.50	1.479
293.71	1.553
293.92	1.509
294.13	1.539
294.34	1.546
294.55	1.593
294.76	1.570
294.97	1.470
295.19	1.510
295.40	1.644
295.61	1.601
295.82	1.436
296.03	1.380
296.24	1.414
296.45	1.298
296.66	1.212
296.87	1.215
297.09	1.245
297.30	1.288
297.51	1.186
297.72	1.169
297.93	1.201
298.14	1.189
298.35	1.169
298.56	1.158
298.77	1.203
298.99	1.193
299.20	1.177
299.41	1.170
299.62	1.164
299.83	1.164
300.04	1.134
300.25	1.130
300.46	1.149
300.67	1.138
300.88	1.113
301.10	1.114
301.31	1.150
301.52	1.131
301.73	1.101
301.94	1.098
302.15	1.108
302.36	1.088
302.57	1.058
302.78	1.065
302.99	1.088
303.20	1.094
303.41	1.051
303.63	1.042
303.84	1.046
304.05	1.046
304.26	1.014
304.47	1.018
304.68	1.025
304.89	1.019
305.10	0.991
305.31	0.985
305.52	1.008
305.73	1.004
305.94	0.980
306.15	0.976
306.37	0.990
306.58	0.995
306.79	0.974
307.00	0.984
307.21	1.009
307.42	1.007
307.63	0.985
307.84	0.967
308.05	0.987
308.26	0.986
308.47	0.970
308.68	0.969
308.89	0.972
309.10	0.971
309.31	0.945
309.52	0.939
309.73	0.950
309.95	0.946
310.16	0.929
310.37	0.925
310.58	0.937
310.79	0.938
311.00	0.931
311.21	0.932
311.42	0.936
311.63	0.934
311.84	0.921
312.05	0.920
312.26	0.937
312.47	0.945
312.68	0.926
312.89	0.915
313.10	0.921
313.31	0.906
313.52	0.903
313.73	0.905
313.94	0.909
314.15	0.898
314.36	0.882
314.57	0.875
314.78	0.867
314.99	0.865
315.21	0.857
315.42	0.859
315.63	0.869
315.84	0.855
316.05	0.842
316.26	0.848
316.47	0.862
316.68	0.859
316.89	0.845
317.10	0.858
317.31	0.864
317.52	0.863
317.73	0.848
317.94	0.848
318.15	0.883
318.36	0.882
318.57	0.869
318.78	0.861
318.99	0.887
319.20	0.885
319.41	0.862
319.62	0.861
319.83	0.870
320.04	0.868
320.25	0.856
320.46	0.831
320.67	0.836
320.88	0.833
321.09	0.822
321.30	0.812
321.51	0.823
321.72	0.821
321.93	0.809
322.14	0.806
322.35	0.827
322.56	0.828
322.77	0.817
322.98	0.824
323.19	0.831
323.40	0.834
323.61	0.817
323.82	0.815
324.03	0.821
324.24	0.819
324.45	0.808
324.66	0.794
324.87	0.793
325.08	0.792
325.29	0.776
325.50	0.775
325.71	0.780
325.92	0.787
326.13	0.776
326.34	0.776
326.55	0.783
326.76	0.781
326.97	0.773
327.18	0.769
327.39	0.789
327.60	0.790
327.80	0.786
328.01	0.784
328.22	0.786
328.43	0.787
328.64	0.779
328.85	0.784
329.06	0.787
329.27	0.787
329.48	0.782
329.69	0.768
329.90	0.776
330.11	0.770
330.32	0.765
330.53	0.760
330.74	0.763
330.95	0.760
331.16	0.747
331.37	0.753
331.58	0.753
331.79	0.753
332.00	0.746
332.21	0.741
332.42	0.746
332.63	0.739
332.83	0.735
333.04	0.736
333.25	0.747
333.46	0.745
333.67	0.735
333.88	0.738
334.09	0.747
334.30	0.745
334.51	0.737
334.72	0.735
334.93	0.738
335.14	0.738
335.35	0.731
335.56	0.728
335.77	0.736
335.98	0.734
336.18	0.728
336.39	0.722
336.60	0.726
336.81	0.724
337.02	0.722
337.23	0.725
337.44	0.728
337.65	0.729
337.86	0.721
338.07	0.718
338.28	0.723
338.49	0.721
338.70	0.715
338.91	0.721
339.11	0.727
339.32	0.724
339.53	0.714
339.74	0.711
339.95	0.709
340.16	0.708
340.37	0.701
340.58	0.699
340.79	0.705
341.00	0.704
341.21	0.695
341.41	0.697
341.62	0.700
341.83	0.701
342.04	0.697
342.25	0.704
342.46	0.709
342.67	0.707
342.88	0.702
343.09	0.701
343.30	0.708
343.50	0.710
343.71	0.701
343.92	0.700
344.13	0.705
344.34	0.706
344.55	0.693
344.76	0.692
344.97	0.698
345.18	0.697
345.38	0.694
345.59	0.689
345.80	0.689
346.01	0.688
346.22	0.684
346.43	0.680
346.64	0.687
346.85	0.687
347.06	0.682
347.26	0.682
347.47	0.686
347.68	0.682
347.89	0.680
348.10	0.677
348.31	0.684
348.52	0.683
348.73	0.680
348.93	0.677
349.14	0.680
349.35	0.679
349.56	0.673
349.77	0.671
349.98	0.677
350.19	0.675
350.39	0.670
350.60	0.667
350.81	0.680
351.02	0.678
351.23	0.674
351.44	0.677
351.65	0.680
351.86	0.678
352.06	0.675
352.27	0.675
352.48	0.677
352.69	0.676
352.90	0.671
353.11	0.661
353.31	0.668
353.52	0.665
353.73	0.657
353.94	0.659
354.15	0.664
354.36	0.664
354.57	0.657
354.77	0.658
354.98	0.659
355.19	0.660
355.40	0.658
355.61	0.663
355.82	0.667
356.02	0.668
356.23	0.662
356.44	0.663
356.65	0.668
356.86	0.669
357.07	0.664
357.27	0.666
357.48	0.669
357.69	0.665
357.90	0.653
358.11	0.651
358.32	0.654
358.52	0.657
358.73	0.648
358.94	0.650
359.15	0.654
359.36	0.655
359.56	0.650
359.77	0.648
359.98	0.655
360.19	0.655
360.40	0.653
360.61	0.653
360.81	0.653
361.02	0.653
361.23	0.645
361.44	0.645
361.65	0.646
361.85	0.646
362.06	0.644
362.27	0.645
362.48	0.646
362.69	0.648
362.89	0.643
363.10	0.644
363.31	0.650
363.52	0.652
363.73	0.648
363.93	0.647
364.14	0.651
364.35	0.652
364.56	0.643
364.77	0.644
364.97	0.648
365.18	0.648
365.39	0.643
365.60	0.641
365.81	0.642
366.01	0.643
366.22	0.640
366.43	0.639
366.64	0.641
366.84	0.647
367.05	0.643
367.26	0.642
367.47	0.645
367.68	0.645
367.88	0.642
368.09	0.641
368.30	0.643
368.51	0.643
368.71	0.641
368.92	0.645
369.13	0.644
369.34	0.644
369.55	0.642
369.75	0.642
369.96	0.649
370.17	0.648
370.38	0.645
370.58	0.644
370.79	0.650
371.00	0.649
371.21	0.641
371.41	0.646
371.62	0.650
371.83	0.646
372.04	0.644
372.24	0.638
372.45	0.640
372.66	0.641
372.87	0.638
373.07	0.635
373.28	0.636
373.49	0.640
373.70	0.631
373.90	0.630
374.11	0.639
374.32	0.638
374.53	0.636
374.73	0.636
374.94	0.639
375.15	0.639
375.36	0.636
375.56	0.644
375.77	0.644
375.98	0.645
376.19	0.643
376.39	0.637
376.60	0.641
376.81	0.642
377.02	0.639
377.22	0.638
377.43	0.638
377.64	0.637
377.84	0.630
378.05	0.633
378.26	0.639
378.47	0.637
378.67	0.635
378.88	0.632
379.09	0.633
379.30	0.634
379.50	0.631
379.71	0.634
379.92	0.637
380.12	0.636
380.33	0.628
380.54	0.625
380.75	0.631
380.95	0.631
381.16	0.629
381.37	0.629
381.57	0.631
381.78	0.632
381.99	0.631
382.20	0.630
382.40	0.633
382.61	0.634
382.82	0.630
383.02	0.624
383.23	0.627
383.44	0.627
383.64	0.624
383.85	0.626
384.06	0.629
384.27	0.626
384.47	0.624
384.68	0.624
384.89	0.630
385.09	0.629
385.30	0.629
385.51	0.628
385.71	0.631
385.92	0.631
386.13	0.630
386.33	0.631
386.54	0.633
386.75	0.632
386.95	0.628
387.16	0.623
387.37	0.625
387.58	0.626
387.78	0.623
387.99	0.621
388.20	0.624
388.40	0.621
388.61	0.618
388.82	0.620
389.02	0.623
389.23	0.623
389.44	0.621
389.64	0.621
389.85	0.630
390.06	0.630
390.26	0.630
390.47	0.629
390.68	0.631
390.88	0.628
391.09	0.625
391.30	0.623
391.50	0.624
391.71	0.624
391.92	0.621
392.12	0.614
392.33	0.616
392.53	0.615
392.74	0.615
392.95	0.615
393.15	0.618
393.36	0.619
393.57	0.617
393.77	0.619
393.98	0.621
394.19	0.621
394.39	0.620
394.60	0.621
394.81	0.623
395.01	0.620
395.22	0.618
395.43	0.618
395.63	0.623
395.84	0.624
396.04	0.620
396.25	0.622
396.46	0.623
396.66	0.621
396.87	0.618
397.08	0.616
397.28	0.619
397.49	0.619
397.69	0.615
397.90	0.611
398.11	0.613
398.31	0.613
398.52	0.609
398.73	0.610
398.93	0.609
399.14	0.609
399.34	0.607
399.55	0.608
399.76	0.608
399.96	0.609
400.17	0.607
400.37	0.606
400.58	0.612
400.79	0.613
400.99	0.611
401.20	0.615
401.41	0.617
401.61	0.618
401.82	0.621
402.02	0.621
402.23	0.622
402.44	0.621
402.64	0.621
402.85	0.615
403.05	0.615
403.26	0.614
403.47	0.608
403.67	0.607
403.88	0.609
404.08	0.603
404.29	0.601
404.50	0.601
404.70	0.602
404.91	0.601
405.11	0.598
405.32	0.598
405.52	0.598
405.73	0.598
405.94	0.595
406.14	0.597
406.35	0.600
406.55	0.599
406.76	0.597
406.97	0.597
407.17	0.600
407.38	0.599
407.58	0.598
407.79	0.600
407.99	0.603
408.20	0.604
408.41	0.600
408.61	0.598
408.82	0.599
409.02	0.599
409.23	0.597
409.43	0.597
409.64	0.599
409.84	0.598
410.05	0.595
410.26	0.593
410.46	0.592
410.67	0.591
410.87	0.592
411.08	0.594
411.28	0.595
411.49	0.596
411.69	0.594
411.90	0.594
412.11	0.596
412.31	0.597
412.52	0.595
412.72	0.597
412.93	0.598
413.13	0.597
413.34	0.593
413.54	0.594
413.75	0.596
413.95	0.595
414.16	0.592
414.37	0.595
414.57	0.595
414.78	0.597
414.98	0.595
415.19	0.596
415.39	0.595
415.60	0.597
415.80	0.596
416.01	0.596
416.21	0.597
416.42	0.597
416.62	0.593
416.83	0.593
417.03	0.593
417.24	0.593
417.44	0.591
417.65	0.590
417.86	0.590
418.06	0.589
418.27	0.587
418.47	0.589
418.68	0.590
418.88	0.590
419.09	0.588
419.29	0.589
419.50	0.590
419.70	0.590
419.91	0.589
420.11	0.587
420.32	0.589
420.52	0.589
420.73	0.588
420.93	0.589
421.14	0.590
421.34	0.590
421.55	0.587
421.75	0.586
421.96	0.588
422.16	0.588
422.37	0.587
422.57	0.585
422.78	0.587
422.98	0.585
423.19	0.582
423.39	0.581
423.60	0.584
423.80	0.586
424.01	0.584
424.21	0.586
424.42	0.587
424.62	0.587
424.83	0.586
425.03	0.586
425.23	0.588
425.44	0.589
425.64	0.589
425.85	0.589
426.05	0.590
426.26	0.591
426.46	0.588
426.67	0.587
426.87	0.592
427.08	0.592
427.28	0.590
427.49	0.591
427.69	0.591
427.90	0.590
428.10	0.587
428.31	0.586
428.51	0.588
428.71	0.587
428.92	0.588
429.12	0.586
429.33	0.587
429.53	0.591
429.74	0.594
429.94	0.594
430.15	0.594
430.35	0.594
430.56	0.592
430.76	0.592
430.96	0.593
431.17	0.591
431.37	0.589
431.58	0.587
431.78	0.584
431.99	0.579
432.19	0.580
432.40	0.582
432.60	0.583
432.80	0.585
433.01	0.583
433.21	0.583
433.42	0.586
433.62	0.586
433.83	0.586
434.03	0.588
434.23	0.591
434.44	0.590
434.64	0.588
434.85	0.592
435.05	0.593
435.26	0.594
435.46	0.592
435.66	0.591
435.87	0.591
436.07	0.591
436.28	0.587
436.48	0.584
436.69	0.584
436.89	0.584
437.09	0.579
437.30	0.578
437.50	0.579
437.71	0.589
437.91	0.588
438.11	0.589
438.32	0.594
438.52	0.595
438.73	0.594
438.93	0.592
439.13	0.593
439.34	0.595
439.54	0.593
439.75	0.594
439.95	0.586
440.15	0.589
440.36	0.588
440.56	0.586
440.77	0.587
440.97	0.587
441.17	0.586
441.38	0.587
441.58	0.586
441.79	0.586
441.99	0.585
442.19	0.584
442.40	0.583
442.60	0.583
442.81	0.580
443.01	0.581
443.21	0.582
443.42	0.581
443.62	0.580
443.82	0.579
444.03	0.581
444.23	0.581
444.44	0.581
444.64	0.580
444.84	0.581
445.05	0.581
445.25	0.579
445.45	0.580
445.66	0.583
445.86	0.582
446.06	0.583
446.27	0.583
446.47	0.586
446.68	0.585
446.88	0.584
447.08	0.584
447.29	0.586
447.49	0.586
447.69	0.586
447.90	0.585
448.10	0.588
448.30	0.586
448.51	0.587
448.71	0.585
448.91	0.587
449.12	0.586
449.32	0.587
449.52	0.586
449.73	0.590
449.93	0.588
450.14	0.589
450.34	0.588
450.54	0.591
450.75	0.589
450.95	0.588
451.15	0.587
451.36	0.590
451.56	0.588
451.76	0.586
451.97	0.584
452.17	0.585
452.37	0.583
452.58	0.580
452.78	0.580
452.98	0.582
453.19	0.581
453.39	0.582
453.59	0.581
453.79	0.583
454.00	0.583
454.20	0.582
454.40	0.583
454.61	0.585
454.81	0.585
455.01	0.583
455.22	0.584
455.42	0.586
455.62	0.584
455.83	0.583
456.03	0.586
456.23	0.587
456.44	0.588
456.64	0.587
456.84	0.587
457.04	0.588
457.25	0.588
457.45	0.585
457.65	0.584
457.86	0.585
458.06	0.584
458.26	0.580
458.47	0.579
458.67	0.581
458.87	0.581
459.07	0.578
459.28	0.580
459.48	0.583
459.68	0.583
459.89	0.582
460.09	0.582
460.29	0.583
460.49	0.585
460.70	0.583
460.90	0.583
461.10	0.584
461.31	0.583
461.51	0.580
461.71	0.582
461.91	0.583
462.12	0.583
462.32	0.581
462.52	0.582
462.72	0.585
462.93	0.586
463.13	0.585
463.33	0.585
463.53	0.587
463.74	0.586
463.94	0.582
464.14	0.583
464.35	0.584
464.55	0.584
464.75	0.582
464.95	0.580
465.16	0.582
465.36	0.580
465.56	0.579
465.76	0.579
465.97	0.579
466.17	0.580
466.37	0.578
466.57	0.579
466.78	0.581
466.98	0.581
467.18	0.579
467.38	0.578
467.59	0.580
467.79	0.582
467.99	0.581
468.19	0.582
468.39	0.585
468.60	0.585
468.80	0.582
469.00	0.583
469.20	0.585
469.41	0.586
469.61	0.585
469.81	0.585
470.01	0.585
470.22	0.585
470.42	0.583
470.62	0.582
470.82	0.583
471.02	0.583
471.23	0.581
471.43	0.581
471.63	0.583
471.83	0.582
472.04	0.581
472.24	0.580
472.44	0.584
472.64	0.584
472.84	0.582
473.05	0.582
473.25	0.585
473.45	0.584
473.65	0.581
473.85	0.582
474.06	0.584
474.26	0.584
474.46	0.585
474.66	0.582
474.86	0.583
475.07	0.583
475.27	0.581
475.47	0.579
475.67	0.581
475.87	0.583
476.08	0.580
476.28	0.580
476.48	0.582
476.68	0.580
476.88	0.578
477.09	0.579
477.29	0.582
477.49	0.582
477.69	0.581
477.89	0.580
478.09	0.580
478.30	0.582
478.50	0.579
478.70	0.579
478.90	0.580
479.10	0.583
479.31	0.583
479.51	0.582
479.71	0.583
479.91	0.583
480.11	0.582
480.31	0.582
480.52	0.582
480.72	0.582
480.92	0.580
481.12	0.580
481.32	0.578
481.52	0.576
481.72	0.576
481.93	0.579
482.13	0.580
482.33	0.579
482.53	0.577
482.73	0.577
482.93	0.579
483.14	0.578
483.34	0.577
483.54	0.578
483.74	0.578
483.94	0.577
484.14	0.573
484.34	0.573
484.55	0.574
484.75	0.574
484.95	0.572
485.15	0.572
485.35	0.573
485.55	0.572
485.75	0.570
485.96	0.571
486.16	0.573
486.36	0.572
486.56	0.571
486.76	0.571
486.96	0.572
487.16	0.572
487.36	0.570
487.57	0.570
487.77	0.571
487.97	0.572
488.17	0.570
488.37	0.569
488.57	0.569
488.77	0.570
488.97	0.568
489.18	0.568
489.38	0.570
489.58	0.570
489.78	0.570
489.98	0.569
490.18	0.568
490.38	0.569
490.58	0.568
490.78	0.569
490.98	0.571
491.19	0.571
491.39	0.570
491.59	0.569
491.79	0.572
491.99	0.572
492.19	0.571
492.39	0.575
492.59	0.575
492.79	0.576
492.99	0.576
493.20	0.576
493.40	0.576
493.60	0.578
493.80	0.576
494.00	0.574
494.20	0.575
494.40	0.574
494.60	0.572
494.80	0.576
495.00	0.576
495.20	0.574
495.40	0.573
495.61	0.575
495.81	0.575
496.01	0.578
496.21	0.579
496.41	0.578
496.61	0.579
496.81	0.578
497.01	0.573
497.21	0.572
497.41	0.574
497.61	0.574
497.81	0.571
498.01	0.571
498.21	0.570
498.41	0.568
498.61	0.568
498.82	0.569
499.02	0.571
499.22	0.572
499.42	0.571
499.62	0.572
499.82	0.574
500.02	0.575
500.22	0.573
500.42	0.575
500.62	0.576
500.82	0.576
501.02	0.574
501.22	0.575
501.42	0.575
501.62	0.577
501.82	0.576
502.02	0.576
502.22	0.576
502.42	0.578
502.62	0.575
502.82	0.575
503.02	0.576
503.22	0.576
503.42	0.574
503.63	0.574
503.83	0.572
504.03	0.571
504.23	0.570
504.43	0.571
504.63	0.572
504.83	0.571
505.03	0.570
505.23	0.572
505.43	0.574
505.63	0.575
505.83	0.574
506.03	0.576
506.23	0.578
506.43	0.578
506.63	0.577
506.83	0.576
507.03	0.578
507.23	0.579
507.43	0.576
507.63	0.577
507.83	0.577
508.03	0.577
508.23	0.576
508.43	0.575
508.63	0.577
508.83	0.578
509.03	0.579
509.23	0.578
509.43	0.579
509.63	0.579
509.83	0.577
510.03	0.580
510.23	0.582
510.43	0.582
510.63	0.582
510.83	0.582
511.03	0.584
511.23	0.581
511.43	0.580
511.63	0.581
511.83	0.584
512.03	0.584
512.22	0.581
512.42	0.580
512.62	0.581
512.82	0.581
513.02	0.580
513.22	0.580
513.42	0.582
513.62	0.585
513.82	0.583
514.02	0.582
514.22	0.584
514.42	0.585
514.62	0.584
514.82	0.584
515.02	0.587
515.22	0.590
515.42	0.587
515.62	0.590
515.82	0.589
516.02	0.590
516.22	0.589
516.42	0.589
516.62	0.591
516.82	0.592
517.01	0.591
517.21	0.590
517.41	0.593
517.61	0.594
517.81	0.590
518.01	0.590
518.21	0.591
518.41	0.589
518.61	0.588
518.81	0.589
519.01	0.591
519.21	0.591
519.41	0.589
519.61	0.584
519.81	0.587
520.00	0.587
520.20	0.587
520.40	0.590
520.60	0.591
520.80	0.591
521.00	0.591
521.20	0.591
521.40	0.596
521.60	0.597
521.80	0.595
522.00	0.596
522.20	0.599
522.39	0.598
522.59	0.595
522.79	0.597
522.99	0.599
523.19	0.597
523.39	0.595
523.59	0.593
523.79	0.596
523.99	0.598
524.19	0.596
524.38	0.595
524.58	0.597
524.78	0.597
524.98	0.595
525.18	0.597
525.38	0.599
525.58	0.599
525.78	0.597
525.98	0.596
526.18	0.597
526.37	0.596
526.57	0.598
526.77	0.597
526.97	0.599
527.17	0.599
527.37	0.595
527.57	0.597
527.77	0.599
527.96	0.599
528.16	0.598
528.36	0.599
528.56	0.601
528.76	0.599
528.96	0.598
529.16	0.598
529.36	0.602
529.55	0.602
529.75	0.599
529.95	0.599
530.15	0.601
530.35	0.603
530.55	0.601
530.75	0.601
530.94	0.604
531.14	0.604
531.34	0.603
531.54	0.601
531.74	0.604
531.94	0.606
532.13	0.604
532.33	0.605
532.53	0.604
532.73	0.603
532.93	0.601
533.13	0.602
533.33	0.603
533.52	0.603
533.72	0.606
533.92	0.604
534.12	0.603
534.32	0.605
534.52	0.603
534.71	0.604
534.91	0.608
535.11	0.610
535.31	0.608
535.51	0.610
535.71	0.613
535.90	0.610
536.10	0.611
536.30	0.613
536.50	0.614
536.70	0.615
536.89	0.612
537.09	0.611
537.29	0.613
537.49	0.613
537.69	0.611
537.89	0.612
538.08	0.612
538.28	0.610
538.48	0.610
538.68	0.612
538.88	0.614
539.07	0.614
539.27	0.612
539.47	0.611
539.67	0.611
539.87	0.613
540.06	0.610
540.26	0.611
540.46	0.614
540.66	0.611
540.86	0.608
541.05	0.608
541.25	0.610
541.45	0.610
541.65	0.609
541.84	0.611
542.04	0.612
542.24	0.612
542.44	0.611
542.64	0.611
542.83	0.614
543.03	0.615
543.23	0.613
543.43	0.613
543.62	0.615
543.82	0.615
544.02	0.614
544.22	0.614
544.42	0.618
544.61	0.618
544.81	0.615
545.01	0.614
545.21	0.616
545.40	0.617
545.60	0.614
545.80	0.617
546.00	0.619
546.19	0.618
546.39	0.616
546.59	0.614
546.79	0.616
546.98	0.616
547.18	0.615
547.38	0.616
547.58	0.619
547.77	0.620
547.97	0.616
548.17	0.617
548.37	0.619
548.56	0.619
548.76	0.618
548.96	0.620
549.16	0.623
549.35	0.622
549.55	0.620
549.75	0.620
549.95	0.624
550.14	0.624
550.34	0.621
550.54	0.626
550.73	0.630
550.93	0.631
551.13	0.627
551.33	0.625
551.52	0.626
551.72	0.626
551.92	0.624
552.12	0.624
552.31	0.625
552.51	0.625
552.71	0.619
552.90	0.619
553.10	0.621
553.30	0.622
553.50	0.621
553.69	0.622
553.89	0.623
554.09	0.623
554.28	0.620
554.48	0.622
554.68	0.624
554.87	0.624
555.07	0.621
555.27	0.621
555.47	0.623
555.66	0.623
555.86	0.621
556.06	0.624
556.25	0.626
556.45	0.633
556.65	0.631
556.84	0.634
557.04	0.637
557.24	0.639
557.43	0.639
557.63	0.641
557.83	0.643
558.02	0.644
558.22	0.647
558.42	0.647
558.61	0.641
558.81	0.640
559.01	0.637
559.21	0.636
559.40	0.637
559.60	0.636
559.80	0.632
559.99	0.633
560.19	0.636
560.39	0.629
560.58	0.626
560.78	0.626
560.97	0.631
561.17	0.629
561.37	0.627
561.56	0.628
561.76	0.630
561.96	0.630
562.15	0.628
562.35	0.631
562.55	0.633
562.74	0.633
562.94	0.632
563.14	0.630
563.33	0.631
563.53	0.631
563.73	0.628
563.92	0.630
564.12	0.633
564.31	0.635
564.51	0.633
564.71	0.634
564.90	0.638
565.10	0.639
565.30	0.641
565.49	0.642
565.69	0.646
565.89	0.646
566.08	0.643
566.28	0.644
566.47	0.646
566.67	0.643
566.87	0.640
567.06	0.641
567.26	0.647
567.46	0.643
567.65	0.642
567.85	0.642
568.04	0.646
568.24	0.645
568.44	0.642
568.63	0.640
568.83	0.643
569.02	0.642
569.22	0.637
569.42	0.634
569.61	0.637
569.81	0.636
570.00	0.633
570.20	0.635
570.40	0.636
570.59	0.636
570.79	0.633
570.98	0.631
571.18	0.632
571.38	0.631
571.57	0.628
571.77	0.626
571.96	0.630
572.16	0.628
572.35	0.622
572.55	0.623
572.75	0.622
572.94	0.622
573.14	0.621
573.33	0.621
573.53	0.623
573.73	0.623
573.92	0.620
574.12	0.618
574.31	0.621
574.51	0.621
574.70	0.618
574.90	0.619
575.09	0.622
575.29	0.622
575.49	0.620
575.68	0.620
575.88	0.622
576.07	0.624
576.27	0.622
576.46	0.621
576.66	0.621
576.86	0.621
577.05	0.618
577.25	0.617
577.44	0.618
577.64	0.618
577.83	0.616
578.03	0.616
578.22	0.615
578.42	0.614
578.61	0.612
578.81	0.613
579.00	0.614
579.20	0.614
579.40	0.613
579.59	0.612
579.79	0.613
579.98	0.613
580.18	0.612
580.37	0.613
580.57	0.616
580.76	0.620
580.96	0.618
581.15	0.619
581.35	0.621
581.54	0.621
581.74	0.620
581.93	0.621
582.13	0.623
582.32	0.621
582.52	0.619
582.71	0.619
582.91	0.616
583.10	0.616
583.30	0.615
583.49	0.614
583.69	0.618
583.88	0.620
584.08	0.619
584.27	0.621
584.47	0.624
584.66	0.624
584.86	0.623
585.05	0.624
585.25	0.626
585.44	0.626
585.64	0.624
585.83	0.621
586.03	0.622
586.22	0.621
586.42	0.617
586.61	0.620
586.81	0.622
587.00	0.623
587.20	0.621
587.39	0.622
587.59	0.624
587.78	0.625
587.98	0.626
588.17	0.626
588.37	0.629
588.56	0.631
588.76	0.626
588.95	0.626
589.15	0.629
589.34	0.631
589.54	0.629
589.73	0.629
589.92	0.632
590.12	0.631
590.31	0.628
590.51	0.633
590.70	0.634
590.90	0.634
591.09	0.632
591.29	0.631
591.48	0.632
591.68	0.633
591.87	0.631
592.06	0.631
592.26	0.635
592.45	0.634
592.65	0.628
592.84	0.629
593.04	0.632
593.23	0.634
593.43	0.631
593.62	0.631
593.81	0.632
594.01	0.632
594.20	0.629
594.40	0.628
594.59	0.632
594.79	0.633
594.98	0.630
595.17	0.629
595.37	0.630
595.56	0.631
595.76	0.629
595.95	0.630
596.14	0.633
596.34	0.634
596.53	0.631
596.73	0.631
596.92	0.632
597.12	0.634
597.31	0.633
597.50	0.632
597.70	0.635
597.89	0.634
598.09	0.631
598.28	0.632
598.47	0.634
598.67	0.633
598.86	0.630
599.06	0.631
599.25	0.632
599.44	0.631
599.64	0.629
599.83	0.627
600.03	0.630
600.22	0.631
600.41	0.631
600.61	0.630
600.80	0.634
601.00	0.635
601.19	0.630
601.38	0.630
601.58	0.633
601.77	0.634
601.96	0.635
602.16	0.635
602.35	0.644
602.55	0.641
602.74	0.640
602.93	0.641
603.13	0.646
603.32	0.646
603.51	0.644
603.71	0.646
603.90	0.649
604.09	0.648
604.29	0.645
604.48	0.639
604.68	0.640
604.87	0.639
605.06	0.636
605.26	0.633
605.45	0.634
605.64	0.634
605.84	0.629
606.03	0.629
606.22	0.628
606.42	0.628
606.61	0.624
606.80	0.624
607.00	0.627
607.19	0.627
607.38	0.626
607.58	0.627
607.77	0.630
607.96	0.631
608.16	0.629
608.35	0.635
608.54	0.639
608.74	0.643
608.93	0.648
609.12	0.651
609.32	0.654
609.51	0.657
609.70	0.655
609.90	0.658
610.09	0.662
610.28	0.667
610.48	0.659
610.67	0.660
610.86	0.661
611.06	0.656
611.25	0.652
611.44	0.652
611.64	0.652
611.83	0.654
612.02	0.649
612.21	0.648
612.41	0.647
612.60	0.646
612.79	0.641
612.99	0.641
613.18	0.643
613.37	0.641
613.57	0.638
613.76	0.641
613.95	0.639
614.14	0.640
614.34	0.637
614.53	0.639
614.72	0.643
614.92	0.643
615.11	0.640
615.30	0.639
615.49	0.642
615.69	0.645
615.88	0.641
616.07	0.643
616.26	0.646
616.46	0.647
616.65	0.644
616.84	0.643
617.04	0.645
617.23	0.650
617.42	0.649
617.61	0.653
617.81	0.654
618.00	0.656
618.19	0.653
618.38	0.657
618.58	0.659
618.77	0.660
618.96	0.659
619.15	0.660
619.35	0.662
619.54	0.662
619.73	0.657
619.92	0.658
620.12	0.662
620.31	0.662
620.50	0.657
620.69	0.658
620.89	0.662
621.08	0.662
621.27	0.661
621.46	0.660
621.66	0.665
621.85	0.666
622.04	0.661
622.23	0.662
622.43	0.664
622.62	0.664
622.81	0.663
623.00	0.663
623.19	0.668
623.39	0.667
623.58	0.664
623.77	0.662
623.96	0.666
624.16	0.666
624.35	0.661
624.54	0.665
624.73	0.670
624.92	0.667
625.12	0.664
625.31	0.664
625.50	0.668
625.69	0.669
625.88	0.665
626.08	0.665
626.27	0.667
626.46	0.668
626.65	0.663
626.84	0.663
627.04	0.669
627.23	0.668
627.42	0.663
627.61	0.664
627.80	0.668
628.00	0.668
628.19	0.665
628.38	0.669
628.57	0.672
628.76	0.672
628.96	0.668
629.15	0.669
629.34	0.673
629.53	0.674
629.72	0.668
629.91	0.668
630.11	0.675
630.30	0.675
630.49	0.677
630.68	0.677
630.87	0.681
631.06	0.684
631.26	0.678
631.45	0.681
631.64	0.689
631.83	0.692
632.02	0.689
632.21	0.688
632.41	0.695
632.60	0.689
632.79	0.686
632.98	0.688
633.17	0.689
633.36	0.691
633.55	0.686
633.75	0.684
633.94	0.686
634.13	0.686
634.32	0.682
634.51	0.677
634.70	0.680
634.89	0.681
635.09	0.676
635.28	0.677
635.47	0.679
635.66	0.683
635.85	0.677
636.04	0.678
636.23	0.684
636.43	0.685
636.62	0.684
636.81	0.684
637.00	0.688
637.19	0.692
637.38	0.688
637.57	0.687
637.76	0.689
637.95	0.691
638.15	0.687
638.34	0.684
638.53	0.688
638.72	0.690
638.91	0.685
639.10	0.682
639.29	0.684
639.48	0.685
639.67	0.684
639.87	0.684
640.06	0.689
640.25	0.688
640.44	0.688
640.63	0.687
640.82	0.691
641.01	0.692
641.20	0.690
641.39	0.691
641.58	0.695
641.78	0.694
641.97	0.688
642.16	0.702
642.35	0.704
642.54	0.703
642.73	0.697
642.92	0.696
643.11	0.701
643.30	0.701
643.49	0.695
643.68	0.697
643.87	0.700
644.06	0.702
644.25	0.681
644.45	0.684
644.64	0.687
644.83	0.688
645.02	0.683
645.21	0.682
645.40	0.685
645.59	0.685
645.78	0.678
645.97	0.680
646.16	0.681
646.35	0.679
646.54	0.677
646.73	0.677
646.92	0.679
647.11	0.678
647.30	0.673
647.49	0.674
647.68	0.674
647.88	0.672
648.07	0.664
648.26	0.667
648.45	0.670
648.64	0.665
648.83	0.661
649.02	0.664
649.21	0.675
649.40	0.675
649.59	0.669
649.78	0.672
649.97	0.687
650.16	0.687
650.35	0.681
650.54	0.684
650.73	0.695
650.92	0.691
651.11	0.684
651.30	0.682
651.49	0.687
651.68	0.687
651.87	0.682
652.06	0.671
652.25	0.675
652.44	0.674
652.63	0.667
652.82	0.664
653.01	0.663
653.20	0.660
653.39	0.647
653.58	0.644
653.77	0.645
653.96	0.640
654.15	0.632
654.34	0.630
654.53	0.627
654.72	0.623
654.91	0.615
655.10	0.613
655.29	0.612
655.48	0.610
655.67	0.605
655.86	0.603
656.05	0.602
656.24	0.602
656.43	0.597
656.62	0.597
656.81	0.599
657.00	0.600
657.19	0.597
657.38	0.598
657.57	0.599
657.76	0.603
657.95	0.601
658.14	0.605
658.33	0.609
658.51	0.615
658.70	0.615
658.89	0.616
659.08	0.623
659.27	0.630
659.46	0.628
659.65	0.634
659.84	0.637
660.03	0.640
660.22	0.640
660.41	0.644
660.60	0.644
660.79	0.645
660.98	0.650
661.17	0.649
661.36	0.649
661.55	0.649
661.74	0.646
661.92	0.649
662.11	0.652
662.30	0.651
662.49	0.643
662.68	0.643
662.87	0.647
663.06	0.642
663.25	0.642
663.44	0.642
663.63	0.644
663.82	0.642
664.01	0.636
664.20	0.635
664.38	0.637
664.57	0.638
664.76	0.636
664.95	0.637
665.14	0.643
665.33	0.637
665.52	0.644
665.71	0.648
665.90	0.648
666.09	0.650
666.28	0.647
666.46	0.647
666.65	0.649
666.84	0.647
667.03	0.642
667.22	0.638
667.41	0.642
667.60	0.631
667.79	0.624
667.98	0.626
668.16	0.628
668.35	0.627
668.54	0.621
668.73	0.621
668.92	0.623
669.11	0.621
669.30	0.615
669.49	0.611
669.67	0.614
669.86	0.616
670.05	0.613
670.24	0.610
670.43	0.609
670.62	0.608
670.81	0.602
671.00	0.603
671.18	0.604
671.37	0.603
671.56	0.600
671.75	0.599
671.94	0.598
672.13	0.595
672.32	0.590
672.50	0.590
672.69	0.591
672.88	0.592
673.07	0.587
673.26	0.589
673.45	0.591
673.63	0.592
673.82	0.587
674.01	0.588
674.20	0.588
674.39	0.587
674.58	0.586
674.76	0.586
674.95	0.585
675.14	0.585
675.33	0.580
675.52	0.578
675.71	0.577
675.89	0.577
676.08	0.572
676.27	0.571
676.46	0.573
676.65	0.572
676.84	0.571
677.02	0.572
677.21	0.575
677.40	0.575
677.59	0.571
677.78	0.573
677.96	0.576
678.15	0.576
678.34	0.573
678.53	0.574
678.72	0.575
678.90	0.572
679.09	0.568
679.28	0.565
679.47	0.566
679.66	0.566
679.84	0.562
680.03	0.559
680.22	0.559
680.41	0.562
680.60	0.558
680.78	0.557
680.97	0.560
681.16	0.560
681.35	0.558
681.53	0.557
681.72	0.559
681.91	0.560
682.10	0.558
682.29	0.560
682.47	0.557
682.66	0.557
682.85	0.554
683.04	0.552
683.22	0.552
683.41	0.554
683.60	0.552
683.79	0.554
683.97	0.553
684.16	0.552
684.35	0.548
684.54	0.549
684.72	0.550
684.91	0.551
685.10	0.548
685.29	0.549
685.47	0.546
685.66	0.546
685.85	0.541
686.04	0.541
686.22	0.544
686.41	0.547
686.60	0.545
686.79	0.547
686.97	0.549
687.16	0.550
687.35	0.547
687.54	0.551
687.72	0.556
687.91	0.555
688.10	0.556
688.29	0.555
688.47	0.553
688.66	0.553
688.85	0.549
689.03	0.546
689.22	0.551
689.41	0.552
689.60	0.546
689.78	0.544
689.97	0.546
690.16	0.543
690.34	0.539
690.53	0.539
690.72	0.540
690.91	0.538
691.09	0.536
691.28	0.530
691.47	0.529
691.65	0.529
691.84	0.525
692.03	0.525
692.21	0.523
692.40	0.523
692.59	0.520
692.77	0.519
692.96	0.522
693.15	0.523
693.34	0.520
693.52	0.520
693.71	0.521
693.90	0.522
694.08	0.522
694.27	0.523
694.46	0.532
694.64	0.534
694.83	0.532
695.02	0.531
695.20	0.531
695.39	0.531
695.58	0.530
695.76	0.530
695.95	0.531
696.14	0.530
696.32	0.527
696.51	0.518
696.70	0.518
696.88	0.519
697.07	0.518
697.26	0.519
697.44	0.520
697.63	0.519
697.81	0.516
698.00	0.516
698.19	0.516
698.37	0.516
698.56	0.515
698.75	0.516
698.93	0.516
699.12	0.516
699.31	0.514
699.49	0.514
699.68	0.516
699.87	0.518
700.05	0.518
700.24	0.517
700.42	0.520
700.61	0.519
700.80	0.516
700.98	0.516
701.17	0.518
701.36	0.517
701.54	0.516
701.73	0.517
701.91	0.515
702.10	0.514
702.29	0.511
702.47	0.510
702.66	0.513
702.84	0.514
703.03	0.512
703.22	0.514
703.40	0.515
703.59	0.516
703.77	0.515
703.96	0.516
704.15	0.517
704.33	0.518
704.52	0.517
704.70	0.516
704.89	0.516
705.08	0.514
705.26	0.509
705.45	0.509
705.63	0.508
705.82	0.505
706.00	0.503
706.19	0.502
706.38	0.502
706.56	0.501
706.75	0.498
706.93	0.497
707.12	0.500
707.30	0.500
707.49	0.497
707.68	0.495
707.86	0.495
708.05	0.496
708.23	0.493
708.42	0.494
708.60	0.497
708.79	0.498
708.98	0.496
709.16	0.495
709.35	0.497
709.53	0.502
709.72	0.500
709.90	0.503
710.09	0.505
710.27	0.506
710.46	0.509
710.64	0.507
710.83	0.508
711.02	0.510
711.20	0.508
711.39	0.506
711.57	0.504
711.76	0.505
711.94	0.501
712.13	0.502
712.31	0.502
712.50	0.498
712.68	0.495
712.87	0.496
713.05	0.496
713.24	0.496
713.42	0.494
713.61	0.495
713.79	0.496
713.98	0.497
714.16	0.498
714.35	0.497
714.54	0.499
714.72	0.499
714.91	0.496
715.09	0.503
715.28	0.507
715.46	0.507
715.65	0.504
715.83	0.504
716.02	0.507
716.20	0.503
716.39	0.502
716.57	0.502
716.76	0.505
716.94	0.505
717.12	0.496
717.31	0.498
717.49	0.501
717.68	0.503
717.86	0.501
718.05	0.503
718.23	0.506
718.42	0.509
718.60	0.510
718.79	0.517
718.97	0.520
719.16	0.521
719.34	0.518
719.53	0.517
719.71	0.518
719.90	0.520
720.08	0.517
720.27	0.519
720.45	0.519
720.63	0.518
720.82	0.512
721.00	0.515
721.19	0.519
721.37	0.519
721.56	0.519
721.74	0.522
721.93	0.530
722.11	0.536
722.30	0.534
722.48	0.537
722.66	0.540
722.85	0.539
723.03	0.538
723.22	0.536
723.40	0.540
723.59	0.539
723.77	0.541
723.95	0.535
724.14	0.538
724.32	0.539
724.51	0.538
724.69	0.540
724.88	0.541
725.06	0.540
725.24	0.540
725.43	0.542
725.61	0.546
725.80	0.540
725.98	0.537
726.16	0.535
726.35	0.541
726.53	0.540
726.72	0.537
726.90	0.547
727.09	0.548
727.27	0.553
727.45	0.549
727.64	0.556
727.82	0.564
728.01	0.569
728.19	0.564
728.37	0.570
728.56	0.575
728.74	0.581
728.92	0.568
729.11	0.571
729.29	0.571
729.48	0.572
729.66	0.561
729.84	0.562
730.03	0.567
730.21	0.569
730.40	0.557
730.58	0.558
730.76	0.559
730.95	0.560
731.13	0.558
731.31	0.571
731.50	0.581
731.68	0.584
731.86	0.579
732.05	0.592
732.23	0.596
732.42	0.601
732.60	0.603
732.78	0.608
732.97	0.628
733.15	0.635
733.33	0.622
733.52	0.631
733.70	0.644
733.88	0.652
734.07	0.636
734.25	0.662
734.43	0.671
734.62	0.673
734.80	0.667
734.98	0.658
735.17	0.668
735.35	0.674
735.53	0.661
735.72	0.663
735.90	0.687
736.08	0.704
736.27	0.681
736.45	0.689
736.63	0.703
736.82	0.713
737.00	0.711
737.18	0.720
737.37	0.754
737.55	0.776
737.73	0.768
737.92	0.773
738.10	0.775
738.28	0.796
738.46	0.782
738.65	0.797
738.83	0.820
739.01	0.872
739.20	0.858
739.38	0.843
739.56	0.836
739.75	0.843
739.93	0.805
740.11	0.830
740.29	0.833
740.48	0.839
740.66	0.813
740.84	0.809
741.03	0.780
741.21	0.791
741.39	0.766
741.57	0.782
741.76	0.804
741.94	0.806
742.12	0.767
742.31	0.773
742.49	0.799
742.67	0.820
742.85	0.831
743.04	0.832
743.22	0.850
743.40	0.905
743.58	0.878
743.77	0.894
743.95	0.942
744.13	1.000
744.31	0.975
744.50	0.974
744.68	0.993
744.86	0.961
745.04	0.974
745.23	1.037
745.41	1.033
745.59	1.049
745.77	1.000
745.96	0.987
746.14	1.003
746.32	1.001
746.50	0.981
746.69	0.958
746.87	0.979
747.05	0.958
747.23	0.876
747.42	0.861
747.60	0.894
747.78	0.898
747.96	0.925
748.14	0.875
748.33	0.907
748.51	0.902
748.69	0.888
748.87	0.926
749.06	0.934
749.24	0.932
749.42	0.910
749.60	0.889
749.78	0.909
749.97	0.859
750.15	0.849
750.33	0.852
750.51	0.887
750.69	0.893
750.88	0.883
751.06	0.895
751.24	0.936
751.42	0.920
751.60	0.907
751.79	0.985
751.97	1.034
752.15	1.037
752.33	0.990
752.51	1.064
752.69	1.097
752.88	1.054
753.06	1.089
753.24	1.060
753.42	1.117
753.60	1.303
753.78	1.113
753.97	1.134
754.15	1.165
754.33	1.201
754.51	1.045
754.69	1.027
754.87	1.065
755.06	0.991
755.24	0.982
755.42	0.984
755.60	0.892
755.78	0.899
755.96	0.843
756.15	0.842
756.33	0.852
756.51	0.873
756.69	0.847
756.87	0.816
757.05	0.842
757.23	0.823
757.42	0.788
757.60	0.785
757.78	0.776
757.96	0.773
758.14	0.753
758.32	0.739
758.50	0.755
758.69	0.758
758.87	0.750
759.05	0.752
759.23	0.767
759.41	0.770
759.59	0.760
759.77	0.788
759.95	0.822
760.13	0.873
760.32	0.868
760.50	0.859
760.68	0.889
760.86	0.887
761.04	0.852
761.22	0.854
761.40	0.904
761.58	0.902
761.76	0.870
761.95	0.852
762.13	0.813
762.31	0.814
762.49	0.779
762.67	0.795
762.85	0.811
763.03	0.807
763.21	0.784
763.39	0.766
763.57	0.774
763.75	0.767
763.94	0.749
764.12	0.747
764.30	0.771
764.48	0.774
764.66	0.734
764.84	0.732
765.02	0.774
765.20	0.782
765.38	0.760
765.56	0.764
765.74	0.807
765.92	0.808
766.10	0.814
766.28	0.809
766.46	0.842
766.65	0.846
766.83	0.830
767.01	0.815
767.19	0.828
767.37	0.829
767.55	0.813
767.73	0.793
767.91	0.800
768.09	0.790
768.27	0.774
768.45	0.766
768.63	0.772
768.81	0.775
768.99	0.742
769.17	0.766
769.35	0.783
769.53	0.781
769.71	0.756
769.89	0.765
770.07	0.773
770.25	0.756
770.43	0.730
770.61	0.756
770.79	0.763
770.97	0.775
771.15	0.742
771.33	0.744
771.51	0.752
771.69	0.764
771.87	0.769
772.05	0.777
772.24	0.788
772.42	0.802
772.60	0.775
772.78	0.837
772.96	0.872
773.14	0.866
773.32	0.839
773.49	0.844
773.67	0.850
773.85	0.828
774.03	0.811
774.21	0.847
774.39	0.863
774.57	0.890
774.75	0.808
774.93	0.804
775.11	0.830
775.29	0.838
775.47	0.839
775.65	0.851
775.83	0.872
776.01	0.893
776.19	0.836
776.37	0.838
776.55	0.837
776.73	0.836
776.91	0.821
777.09	0.804
777.27	0.805
777.45	0.794
777.63	0.766
777.81	0.763
777.99	0.757
778.17	0.756
778.35	0.729
778.53	0.720
778.71	0.732
778.89	0.720
779.07	0.707
779.24	0.718
779.42	0.719
779.60	0.738
779.78	0.730
779.96	0.736
780.14	0.748
780.32	0.773
780.50	0.751
780.68	0.749
780.86	0.744
781.04	0.760
781.22	0.757
781.40	0.772
781.58	0.765
781.75	0.759
781.93	0.736
782.11	0.736
782.29	0.723
782.47	0.722
782.65	0.705
782.83	0.736
783.01	0.735
783.19	0.729
783.37	0.710
783.55	0.714
783.72	0.735
783.90	0.747
784.08	0.734
784.26	0.745
784.44	0.768
784.62	0.770
784.80	0.729
784.98	0.734
785.16	0.739
785.33	0.753
785.51	0.731
785.69	0.718
785.87	0.719
786.05	0.731
786.23	0.725
786.41	0.723
786.59	0.733
786.77	0.735
786.94	0.717
787.12	0.720
787.30	0.724
787.48	0.722
787.66	0.707
787.84	0.709
788.02	0.702
788.19	0.697
788.37	0.680
788.55	0.682
788.73	0.684
788.91	0.680
789.09	0.660
789.27	0.649
789.44	0.661
789.62	0.666
789.80	0.671
789.98	0.696
790.16	0.686
790.34	0.684
790.51	0.667
790.69	0.687
790.87	0.695
791.05	0.693
791.23	0.684
791.41	0.686
791.58	0.698
791.76	0.675
791.94	0.641
792.12	0.651
792.30	0.654
792.48	0.651
792.65	0.644
792.83	0.651
793.01	0.662
793.19	0.662
793.37	0.644
793.54	0.640
793.72	0.653
793.90	0.654
794.08	0.642
794.26	0.645
794.43	0.657
794.61	0.639
794.79	0.624
794.97	0.624
795.15	0.633
795.32	0.638
795.50	0.626
795.68	0.623
795.86	0.626
796.04	0.627
796.21	0.619
796.39	0.617
796.57	0.636
796.75	0.646
796.92	0.643
797.10	0.648
797.28	0.653
797.46	0.656
797.64	0.654
797.81	0.665
797.99	0.673
798.17	0.676
798.35	0.668
798.52	0.671
798.70	0.667
798.88	0.678
799.06	0.676
799.23	0.678
799.41	0.689
799.59	0.682
799.77	0.666
799.94	0.676
800.12	0.689
800.30	0.707
800.48	0.702
800.65	0.704
800.83	0.695
801.01	0.683
801.19	0.681
801.36	0.677
801.54	0.684
801.72	0.696
801.90	0.679
802.07	0.675
802.25	0.663
802.43	0.646
802.60	0.640
802.78	0.647
802.96	0.654
803.14	0.645
803.31	0.640
803.49	0.639
803.67	0.636
803.84	0.640
804.02	0.629
804.20	0.632
804.38	0.640
804.55	0.637
804.73	0.620
804.91	0.620
805.08	0.637
805.26	0.633
805.44	0.690
805.61	0.694
805.79	0.696
805.97	0.695
806.15	0.684
806.32	0.679
806.50	0.687
806.68	0.689
806.85	0.677
807.03	0.667
807.21	0.687
807.38	0.624
807.56	0.612
807.74	0.622
807.91	0.631
808.09	0.633
808.27	0.650
808.44	0.679
808.62	0.692
808.80	0.695
808.97	0.688
809.15	0.681
809.33	0.701
809.50	0.710
809.68	0.692
809.86	0.700
810.03	0.736
810.21	0.712
810.39	0.689
810.56	0.696
810.74	0.724
810.91	0.799
811.09	0.786
811.27	0.809
811.44	0.819
811.62	0.821
811.80	0.799
811.97	0.767
812.15	0.772
812.33	0.766
812.50	0.746
812.68	0.731
812.85	0.678
813.03	0.681
813.21	0.644
813.38	0.634
813.56	0.638
813.74	0.650
813.91	0.654
814.09	0.685
814.26	0.681
814.44	0.684
814.62	0.673
814.79	0.677
814.97	0.684
815.14	0.691
815.32	0.694
815.50	0.714
815.67	0.721
815.85	0.710
816.02	0.696
816.20	0.707
816.38	0.728
816.55	0.734
816.73	0.727
816.90	0.738
817.08	0.775
817.26	0.783
817.43	0.756
817.61	0.782
817.78	0.811
817.96	0.789
818.13	0.771
818.31	0.770
818.49	0.786
818.66	0.778
818.84	0.759
819.01	0.736
819.19	0.747
819.36	0.747
819.54	0.710
819.71	0.752
819.89	0.772
820.07	0.788
820.24	0.778
820.42	0.780
820.59	0.806
820.77	0.830
820.94	0.815
821.12	0.833
821.29	0.856
821.47	0.859
821.64	0.787
821.82	0.800
822.00	0.800
822.17	0.799
822.35	0.785
822.52	0.789
822.70	0.782
822.87	0.794
823.05	0.765
823.22	0.780
823.40	0.815
823.57	0.836
823.75	0.811
823.92	0.842
824.10	0.871
824.27	0.916
824.45	0.894
824.62	0.965
824.80	0.990
824.97	1.013
825.15	0.989
825.32	1.005
825.50	1.022
825.67	1.033
825.85	0.995
826.02	1.016
826.20	1.059
826.37	1.232
826.55	1.117
826.72	1.400
826.90	1.579
827.07	1.727
827.25	1.553
827.42	2.071
827.60	-0.000
827.77	-0.000
827.95	-0.000
828.12	-0.000
828.30	-0.000
828.47	-0.000
828.65	1.594
828.82	1.718
829.00	2.172
829.17	-0.000
829.34	-0.000
829.52	-0.000
829.69	-0.000
829.87	-0.000
830.04	-0.000
830.22	-0.000
830.39	-0.000
830.57	-0.000
830.74	-0.000
830.92	-0.000
831.09	-0.000
831.26	-0.000
831.44	-0.000
831.61	-0.000
831.79	-0.000
831.96	-0.000
832.14	-0.000
832.31	-0.000
832.49	-0.000
832.66	-0.000
832.83	-0.000
833.01	-0.000
833.18	-0.000
833.36	-0.000
833.53	-0.000
833.70	-0.000
833.88	-0.000
834.05	-0.000
834.23	-0.000
834.40	-0.000
834.58	-0.000
834.75	-0.000
834.92	-0.000
835.10	-0.000
835.27	-0.000
835.45	-0.000
835.62	-0.000
835.79	-0.000
835.97	-0.000
836.14	-0.000
836.32	-0.000
836.49	-0.000
836.66	-0.000
836.84	-0.000
837.01	-0.000
837.18	-0.000
837.36	-0.000
837.53	-0.000
837.71	-0.000
837.88	-0.000
838.05	-0.000
838.23	-0.000
838.40	-0.000
838.58	-0.000
838.75	-0.000
838.92	-0.000
839.10	-0.000
839.27	-0.000
839.44	-0.000
839.62	-0.000
839.79	-0.000
839.96	-0.000
840.14	-0.000
840.31	-0.000
840.48	-0.000
840.66	-0.000
840.83	-0.000
841.01	-0.000
841.18	-0.000
841.35	-0.000
841.53	-0.000
841.70	-0.000
841.87	-0.000
842.05	-0.000
842.22	-0.000
842.39	-0.000
842.57	-0.000
842.74	-0.000
842.91	-0.000
843.09	-0.000
843.26	-0.000
843.43	-0.000
843.60	-0.000
843.78	-0.000
843.95	-0.000
844.12	-0.000
844.30	-0.000
844.47	-0.000
844.64	-0.000
844.82	-0.000
844.99	-0.000
845.16	-0.000
845.34	-0.000
845.51	-0.000
845.68	-0.000
845.85	-0.000
846.03	-0.000
846.20	-0.000
846.37	-0.000
846.55	-0.000
846.72	-0.000
846.89	-0.000
847.06	-0.000
847.24	-0.000
847.41	-0.000
847.58	-0.000
847.76	-0.000
847.93	-0.000
848.10	-0.000
848.27	-0.000
848.45	-0.000
848.62	-0.000
848.79	-0.000
848.97	-0.000
849.14	-0.000
849.31	-0.000
849.48	-0.000
849.66	-0.000
849.83	-0.000
850.00	-0.000
850.17	-0.000
850.35	-0.000
850.52	-0.000
850.69	-0.000
850.86	-0.000
851.04	-0.000
851.21	-0.000
851.38	-0.000
851.55	-0.000
851.72	-0.000
851.90	-0.000
852.07	-0.000
852.24	-0.000
852.41	-0.000
852.59	-0.000
852.76	-0.000
852.93	-0.000
853.10	-0.000
853.28	-0.000
853.45	-0.000
853.62	-0.000
853.79	-0.000
853.96	-0.000
854.14	-0.000
854.31	-0.000
854.48	-0.000
854.65	-0.000
854.82	-0.000
855.00	-0.000
855.17	-0.000
855.34	-0.000
855.51	-0.000
855.68	-0.000
855.86	-0.000
856.03	-0.000
856.20	-0.000
856.37	-0.000
856.54	-0.000
856.72	-0.000
856.89	-0.000
857.06	-0.000
857.23	-0.000
857.40	-0.000
857.57	-0.000
857.75	-0.000
857.92	-0.000
858.09	-0.000
858.26	-0.000
858.43	-0.000
858.60	-0.000
858.78	-0.000
858.95	-0.000
859.12	-0.000
859.29	-0.000
859.46	-0.000
859.63	-0.000
859.81	-0.000
859.98	-0.000
860.15	-0.000
860.32	-0.000
860.49	-0.000
860.66	-0.000
860.83	-0.000
861.01	-0.000
861.18	-0.000
861.35	-0.000
861.52	-0.000
861.69	-0.000
861.86	-0.000
862.03	-0.000
862.21	-0.000
862.38	-0.000
862.55	-0.000
862.72	-0.000
862.89	-0.000
863.06	-0.000
863.23	-0.000
863.40	-0.000
863.58	-0.000
863.75	-0.000
863.92	-0.000
864.09	-0.000
864.26	-0.000
864.43	-0.000
864.60	-0.000
864.77	-0.000
864.94	-0.000
865.11	-0.000
865.29	-0.000
865.46	-0.000
865.63	-0.000
865.80	-0.000
865.97	-0.000
866.14	-0.000
866.31	-0.000
866.48	-0.000
866.65	-0.000
866.82	-0.000
866.99	-0.000
867.16	-0.000
867.34	-0.000
867.51	-0.000
867.68	-0.000
867.85	-0.000
868.02	-0.000
868.19	-0.000
868.36	-0.000
868.53	-0.000
868.70	-0.000
868.87	-0.000
869.04	-0.000
869.21	-0.000
869.38	-0.000
869.55	-0.000
869.72	-0.000
869.89	-0.000
870.06	-0.000
870.24	-0.000
870.41	-0.000
870.58	-0.000
870.75	-0.000
870.92	-0.000
871.09	-0.000
871.26	-0.000
871.43	-0.000
871.60	-0.000
871.77	-0.000
871.94	-0.000
872.11	-0.000
872.28	-0.000
872.45	-0.000
872.62	-0.000
872.79	-0.000
872.96	-0.000
873.13	-0.000
873.30	-0.000
873.47	-0.000
873.64	-0.000
873.81	-0.000
873.98	-0.000
874.15	-0.000
874.32	-0.000
874.49	-0.000
874.66	-0.000
874.83	-0.000
875.00	-0.000
875.17	-0.000
875.34	-0.000
875.51	-0.000
875.68	-0.000
875.85	-0.000
876.02	-0.000
876.19	-0.000
876.36	-0.000
876.53	-0.000
876.70	-0.000
876.87	-0.000
877.04	-0.000
877.21	-0.000
877.38	-0.000
877.55	-0.000
877.72	-0.000
877.89	-0.000
878.06	-0.000
878.23	-0.000
878.39	-0.000
878.56	-0.000
878.73	-0.000
878.90	-0.000
879.07	-0.000
879.24	-0.000
879.41	-0.000
879.58	-0.000
879.75	-0.000
879.92	-0.000
880.09	-0.000
880.26	-0.000
880.43	-0.000
880.60	-0.000
880.77	-0.000
880.94	-0.000
881.11	-0.000
881.27	-0.000
881.44	-0.000
881.61	-0.000
881.78	-0.000
881.95	-0.000
882.12	-0.000
882.29	-0.000
882.46	-0.000
882.63	-0.000
882.80	-0.000
882.97	-0.000
883.14	-0.000
883.30	-0.000
883.47	-0.000
883.64	-0.000
883.81	-0.000
883.98	-0.000
884.15	-0.000
884.32	-0.000
884.49	-0.000
884.66	-0.000
884.82	-0.000
884.99	-0.000
885.16	-0.000
885.33	-0.000
885.50	-0.000
885.67	-0.000
885.84	-0.000
886.01	-0.000
886.17	-0.000
886.34	-0.000
886.51	-0.000
886.68	-0.000
886.85	-0.000
887.02	-0.000
887.19	-0.000
887.36	-0.000
887.52	-0.000
887.69	-0.000
887.86	-0.000
888.03	-0.000
888.20	-0.000
888.37	-0.000
888.54	-0.000
888.70	-0.000
888.87	-0.000
889.04	-0.000
889.21	-0.000
889.38	-0.000
889.55	-0.000
889.71	-0.000
889.88	-0.000
890.05	-0.000
890.22	-0.000
890.39	-0.000
>>>>>End Processed Spectral Data<<<<<
