SpectraSuite Data File
++++++++++++++++++++++++++++++++++++
Date: Fri Jun 19 14:14:18 CEST 2015
User: introlabs
Dark Spectrum Present: Yes
Reference Spectrum Present: Yes
Number of Sampled Component Spectra: 1
Spectrometers: USB4H08886
Integration Time (usec): 745692 (USB4H08886)
Spectra Averaged: 5 (USB4H08886)
Boxcar Smoothing: 5 (USB4H08886)
Correct for Electrical Dark: Yes (USB4H08886)
Strobe/Lamp Enabled: No (USB4H08886)
Correct for Detector Non-linearity: Yes (USB4H08886)
Correct for Stray Light: Yes (USB4H08886)
Number of Pixels in Processed Spectrum: 3648
>>>>>Begin Processed Spectral Data<<<<<
178.14	-0.000
178.36	-0.000
178.57	-0.000
178.79	-0.000
179.01	-0.000
179.22	-0.000
179.44	-0.000
179.65	-0.000
179.87	-0.000
180.08	-0.000
180.30	-0.000
180.52	-0.000
180.73	-0.000
180.95	-0.000
181.16	-0.000
181.38	-0.000
181.59	-0.000
181.81	-0.000
182.03	-0.000
182.24	-0.000
182.46	-0.000
182.67	-0.000
182.89	-0.000
183.10	-0.000
183.32	-0.000
183.54	-0.000
183.75	-0.000
183.97	-0.000
184.18	-0.000
184.40	-0.000
184.61	-0.000
184.83	-0.000
185.04	-0.000
185.26	-0.000
185.48	-0.000
185.69	-0.000
185.91	-0.000
186.12	-0.000
186.34	-0.000
186.55	-0.000
186.77	-0.000
186.98	-0.000
187.20	-0.000
187.42	-0.000
187.63	-0.000
187.85	-0.000
188.06	-0.000
188.28	-0.000
188.49	-0.000
188.71	-0.000
188.92	-0.000
189.14	-0.000
189.36	-0.000
189.57	-0.000
189.79	-0.000
190.00	-0.000
190.22	-0.000
190.43	-0.000
190.65	-0.000
190.86	-0.000
191.08	-0.000
191.29	-0.000
191.51	-0.000
191.72	-0.000
191.94	-0.000
192.16	-0.000
192.37	-0.000
192.59	-0.000
192.80	-0.000
193.02	-0.000
193.23	-0.000
193.45	-0.000
193.66	-0.000
193.88	-0.000
194.09	-0.000
194.31	-0.000
194.52	-0.000
194.74	-0.000
194.95	-0.000
195.17	-0.000
195.38	-0.000
195.60	-0.000
195.81	-0.000
196.03	-0.000
196.25	-0.000
196.46	-0.000
196.68	-0.000
196.89	-0.000
197.11	-0.000
197.32	-0.000
197.54	-0.000
197.75	-0.000
197.97	-0.000
198.18	-0.000
198.40	-0.000
198.61	-0.000
198.83	-0.000
199.04	-0.000
199.26	-0.000
199.47	-0.000
199.69	-0.000
199.90	-0.000
200.12	-0.000
200.33	-0.000
200.55	-0.000
200.76	-0.000
200.98	-0.000
201.19	-0.000
201.41	-0.000
201.62	-0.000
201.84	-0.000
202.05	-0.000
202.27	-0.000
202.48	-0.000
202.70	-0.000
202.91	-0.000
203.13	-0.000
203.34	-0.000
203.56	-0.000
203.77	-0.000
203.99	-0.000
204.20	-0.000
204.42	-0.000
204.63	-0.000
204.85	-0.000
205.06	-0.000
205.28	-0.000
205.49	-0.000
205.71	-0.000
205.92	-0.000
206.14	-0.000
206.35	-0.000
206.56	-0.000
206.78	-0.000
206.99	-0.000
207.21	-0.000
207.42	-0.000
207.64	-0.000
207.85	-0.000
208.07	-0.000
208.28	-0.000
208.50	-0.000
208.71	-0.000
208.93	-0.000
209.14	-0.000
209.36	-0.000
209.57	-0.000
209.79	-0.000
210.00	-0.000
210.22	-0.000
210.43	-0.000
210.64	-0.000
210.86	-0.000
211.07	-0.000
211.29	-0.000
211.50	-0.000
211.72	-0.000
211.93	-0.000
212.15	-0.000
212.36	-0.000
212.58	-0.000
212.79	-0.000
213.01	-0.000
213.22	-0.000
213.43	-0.000
213.65	-0.000
213.86	-0.000
214.08	-0.000
214.29	-0.000
214.51	-0.000
214.72	-0.000
214.94	-0.000
215.15	-0.000
215.36	-0.000
215.58	-0.000
215.79	-0.000
216.01	-0.000
216.22	-0.000
216.44	-0.000
216.65	-0.000
216.87	-0.000
217.08	-0.000
217.29	-0.000
217.51	-0.000
217.72	-0.000
217.94	-0.000
218.15	-0.000
218.37	-0.000
218.58	-0.000
218.80	-0.000
219.01	-0.000
219.22	-0.000
219.44	-0.000
219.65	-0.000
219.87	-0.000
220.08	-0.000
220.30	-0.000
220.51	-0.000
220.72	-0.000
220.94	-0.000
221.15	-0.000
221.37	-0.000
221.58	-0.000
221.79	-0.000
222.01	-0.000
222.22	-0.000
222.44	-0.000
222.65	-0.000
222.87	-0.000
223.08	-0.000
223.29	-0.000
223.51	-0.000
223.72	-0.000
223.94	-0.000
224.15	-0.000
224.36	-0.000
224.58	-0.000
224.79	-0.000
225.01	-0.000
225.22	-0.000
225.44	-0.000
225.65	-0.000
225.86	-0.000
226.08	-0.000
226.29	-0.000
226.51	-0.000
226.72	-0.000
226.93	-0.000
227.15	-0.000
227.36	-0.000
227.58	-0.000
227.79	-0.000
228.00	-0.000
228.22	-0.000
228.43	-0.000
228.65	-0.000
228.86	-0.000
229.07	-0.000
229.29	-0.000
229.50	-0.000
229.72	-0.000
229.93	-0.000
230.14	-0.000
230.36	-0.000
230.57	-0.000
230.78	-0.000
231.00	-0.000
231.21	-0.000
231.43	-0.000
231.64	-0.000
231.85	-0.000
232.07	-0.000
232.28	-0.000
232.50	-0.000
232.71	-0.000
232.92	-0.000
233.14	-0.000
233.35	-0.000
233.56	-0.000
233.78	-0.000
233.99	-0.000
234.21	-0.000
234.42	-0.000
234.63	-0.000
234.85	-0.000
235.06	-0.000
235.27	-0.000
235.49	-0.000
235.70	-0.000
235.91	-0.000
236.13	-0.000
236.34	-0.000
236.56	-0.000
236.77	-0.000
236.98	-0.000
237.20	-0.000
237.41	-0.000
237.62	-0.000
237.84	-0.000
238.05	-0.000
238.26	-0.000
238.48	-0.000
238.69	-0.000
238.91	-0.000
239.12	-0.000
239.33	-0.000
239.55	-0.000
239.76	-0.000
239.97	-0.000
240.19	-0.000
240.40	-0.000
240.61	-0.000
240.83	-0.000
241.04	-0.000
241.25	-0.000
241.47	-0.000
241.68	-0.000
241.89	-0.000
242.11	-0.000
242.32	-0.000
242.53	-0.000
242.75	-0.000
242.96	-0.000
243.17	-0.000
243.39	-0.000
243.60	-0.000
243.81	-0.000
244.03	-0.000
244.24	-0.000
244.45	-0.000
244.67	-0.000
244.88	-0.000
245.09	-0.000
245.31	-0.000
245.52	-0.000
245.73	-0.000
245.95	-0.000
246.16	-0.000
246.37	-0.000
246.59	-0.000
246.80	-0.000
247.01	-0.000
247.23	-0.000
247.44	-0.000
247.65	-0.000
247.87	-0.000
248.08	-0.000
248.29	-0.000
248.51	-0.000
248.72	-0.000
248.93	-0.000
249.15	-0.000
249.36	-0.000
249.57	-0.000
249.78	-0.000
250.00	-0.000
250.21	-0.000
250.42	-0.000
250.64	-0.000
250.85	-0.000
251.06	-0.000
251.28	-0.000
251.49	-0.000
251.70	-0.000
251.92	-0.000
252.13	-0.000
252.34	-0.000
252.55	-0.000
252.77	-0.000
252.98	-0.000
253.19	-0.000
253.41	-0.000
253.62	-0.000
253.83	-0.000
254.05	-0.000
254.26	-0.000
254.47	-0.000
254.68	-0.000
254.90	-0.000
255.11	-0.000
255.32	-0.000
255.54	-0.000
255.75	-0.000
255.96	-0.000
256.17	-0.000
256.39	-0.000
256.60	-0.000
256.81	-0.000
257.03	-0.000
257.24	-0.000
257.45	-0.000
257.66	-0.000
257.88	-0.000
258.09	-0.000
258.30	-0.000
258.51	-0.000
258.73	-0.000
258.94	-0.000
259.15	-0.000
259.37	-0.000
259.58	-0.000
259.79	-0.000
260.00	-0.000
260.22	-0.000
260.43	-0.000
260.64	-0.000
260.85	-0.000
261.07	-0.000
261.28	-0.000
261.49	-0.000
261.71	-0.000
261.92	-0.000
262.13	-0.000
262.34	-0.000
262.56	-0.000
262.77	-0.000
262.98	-0.000
263.19	-0.000
263.41	-0.000
263.62	-0.000
263.83	-0.000
264.04	-0.000
264.26	-0.000
264.47	-0.000
264.68	-0.000
264.89	-0.000
265.11	-0.000
265.32	-0.000
265.53	-0.000
265.74	-0.000
265.96	-0.000
266.17	-0.000
266.38	-0.000
266.59	-0.000
266.81	-0.000
267.02	-0.000
267.23	-0.000
267.44	-0.000
267.65	-0.000
267.87	-0.000
268.08	-0.000
268.29	-0.000
268.50	-0.000
268.72	-0.000
268.93	-0.000
269.14	-0.000
269.35	-0.000
269.57	-0.000
269.78	-0.000
269.99	-0.000
270.20	-0.000
270.41	-0.000
270.63	-0.000
270.84	-0.000
271.05	-0.000
271.26	-0.000
271.48	-0.000
271.69	-0.000
271.90	-0.000
272.11	-0.000
272.32	-0.000
272.54	-0.000
272.75	-0.000
272.96	-0.000
273.17	-0.000
273.39	-0.000
273.60	-0.000
273.81	-0.000
274.02	-0.000
274.23	-0.000
274.45	-0.000
274.66	-0.000
274.87	-0.000
275.08	-0.000
275.29	-0.000
275.51	-0.000
275.72	-0.000
275.93	-0.000
276.14	-0.000
276.35	-0.000
276.57	-0.000
276.78	-0.000
276.99	-0.000
277.20	-0.000
277.41	-0.000
277.63	-0.000
277.84	-0.000
278.05	-0.000
278.26	-0.000
278.47	-0.000
278.69	-0.000
278.90	-0.000
279.11	-0.000
279.32	-0.000
279.53	-0.000
279.74	-0.000
279.96	-0.000
280.17	-0.000
280.38	-0.000
280.59	-0.000
280.80	-0.000
281.02	-0.000
281.23	-0.000
281.44	-0.000
281.65	-0.000
281.86	-0.000
282.07	-0.000
282.29	-0.000
282.50	-0.000
282.71	-0.000
282.92	-0.000
283.13	-0.000
283.35	-0.000
283.56	-0.000
283.77	-0.000
283.98	-0.000
284.19	-0.000
284.40	-0.000
284.62	-0.000
284.83	-0.000
285.04	-0.000
285.25	-0.000
285.46	-0.000
285.67	-0.000
285.88	-0.000
286.10	-0.000
286.31	-0.000
286.52	-0.000
286.73	-0.000
286.94	-0.000
287.15	-0.000
287.37	-0.000
287.58	-0.000
287.79	-0.000
288.00	-0.000
288.21	-0.000
288.42	-0.000
288.63	-0.000
288.85	-0.000
289.06	-0.000
289.27	-0.000
289.48	-0.000
289.69	-0.000
289.90	-0.000
290.11	-0.000
290.33	-0.000
290.54	-0.000
290.75	-0.000
290.96	-0.000
291.17	-0.000
291.38	-0.000
291.59	-0.000
291.81	-0.000
292.02	-0.000
292.23	-0.000
292.44	-0.000
292.65	-0.000
292.86	-0.000
293.07	-0.000
293.28	2.585
293.50	-0.000
293.71	-0.000
293.92	-0.000
294.13	-0.000
294.34	-0.000
294.55	-0.000
294.76	-0.000
294.97	-0.000
295.19	-0.000
295.40	-0.000
295.61	-0.000
295.82	3.167
296.03	2.280
296.24	2.482
296.45	1.864
296.66	1.622
296.87	1.646
297.09	1.705
297.30	1.840
297.51	1.583
297.72	1.560
297.93	1.634
298.14	1.603
298.35	1.570
298.56	1.547
298.77	1.640
298.99	1.627
299.20	1.593
299.41	1.579
299.62	1.544
299.83	1.541
300.04	1.489
300.25	1.473
300.46	1.511
300.67	1.491
300.88	1.452
301.10	1.454
301.31	1.519
301.52	1.474
301.73	1.427
301.94	1.435
302.15	1.451
302.36	1.408
302.57	1.353
302.78	1.358
302.99	1.395
303.20	1.411
303.41	1.333
303.63	1.315
303.84	1.321
304.05	1.314
304.26	1.260
304.47	1.263
304.68	1.266
304.89	1.261
305.10	1.226
305.31	1.212
305.52	1.248
305.73	1.242
305.94	1.207
306.15	1.202
306.37	1.221
306.58	1.227
306.79	1.200
307.00	1.221
307.21	1.259
307.42	1.253
307.63	1.224
307.84	1.194
308.05	1.226
308.26	1.228
308.47	1.206
308.68	1.204
308.89	1.204
309.10	1.202
309.31	1.167
309.52	1.157
309.73	1.169
309.95	1.162
310.16	1.135
310.37	1.125
310.58	1.141
310.79	1.139
311.00	1.134
311.21	1.136
311.42	1.136
311.63	1.129
311.84	1.113
312.05	1.112
312.26	1.134
312.47	1.147
312.68	1.125
312.89	1.109
313.10	1.116
313.31	1.092
313.52	1.094
313.73	1.094
313.94	1.098
314.15	1.082
314.36	1.062
314.57	1.053
314.78	1.041
314.99	1.037
315.21	1.026
315.42	1.030
315.63	1.042
315.84	1.020
316.05	1.007
316.26	1.015
316.47	1.032
316.68	1.028
316.89	1.010
317.10	1.030
317.31	1.036
317.52	1.039
317.73	1.020
317.94	1.020
318.15	1.060
318.36	1.060
318.57	1.045
318.78	1.034
318.99	1.068
319.20	1.065
319.41	1.033
319.62	1.031
319.83	1.042
320.04	1.038
320.25	1.024
320.46	0.994
320.67	1.000
320.88	0.995
321.09	0.982
321.30	0.968
321.51	0.982
321.72	0.980
321.93	0.966
322.14	0.959
322.35	0.985
322.56	0.986
322.77	0.975
322.98	0.983
323.19	0.990
323.40	0.995
323.61	0.975
323.82	0.971
324.03	0.977
324.24	0.974
324.45	0.962
324.66	0.944
324.87	0.942
325.08	0.941
325.29	0.922
325.50	0.916
325.71	0.922
325.92	0.930
326.13	0.916
326.34	0.916
326.55	0.924
326.76	0.923
326.97	0.912
327.18	0.907
327.39	0.931
327.60	0.932
327.80	0.933
328.01	0.930
328.22	0.929
328.43	0.933
328.64	0.921
328.85	0.925
329.06	0.928
329.27	0.929
329.48	0.924
329.69	0.905
329.90	0.916
330.11	0.908
330.32	0.903
330.53	0.898
330.74	0.899
330.95	0.897
331.16	0.883
331.37	0.890
331.58	0.890
331.79	0.890
332.00	0.882
332.21	0.874
332.42	0.879
332.63	0.871
332.83	0.866
333.04	0.867
333.25	0.880
333.46	0.878
333.67	0.866
333.88	0.868
334.09	0.877
334.30	0.874
334.51	0.867
334.72	0.863
334.93	0.866
335.14	0.866
335.35	0.857
335.56	0.853
335.77	0.862
335.98	0.860
336.18	0.853
336.39	0.846
336.60	0.851
336.81	0.849
337.02	0.846
337.23	0.851
337.44	0.854
337.65	0.856
337.86	0.845
338.07	0.841
338.28	0.845
338.49	0.844
338.70	0.838
338.91	0.844
339.11	0.851
339.32	0.847
339.53	0.836
339.74	0.834
339.95	0.831
340.16	0.830
340.37	0.823
340.58	0.821
340.79	0.825
341.00	0.824
341.21	0.813
341.41	0.813
341.62	0.815
341.83	0.816
342.04	0.811
342.25	0.822
342.46	0.827
342.67	0.824
342.88	0.817
343.09	0.816
343.30	0.823
343.50	0.827
343.71	0.818
343.92	0.817
344.13	0.821
344.34	0.820
344.55	0.802
344.76	0.801
344.97	0.807
345.18	0.806
345.38	0.803
345.59	0.798
345.80	0.798
346.01	0.796
346.22	0.792
346.43	0.787
346.64	0.796
346.85	0.796
347.06	0.789
347.26	0.790
347.47	0.794
347.68	0.790
347.89	0.787
348.10	0.781
348.31	0.788
348.52	0.786
348.73	0.783
348.93	0.779
349.14	0.781
349.35	0.781
349.56	0.775
349.77	0.770
349.98	0.775
350.19	0.773
350.39	0.769
350.60	0.765
350.81	0.780
351.02	0.779
351.23	0.775
351.44	0.778
351.65	0.780
351.86	0.777
352.06	0.776
352.27	0.776
352.48	0.777
352.69	0.777
352.90	0.772
353.11	0.759
353.31	0.766
353.52	0.763
353.73	0.754
353.94	0.757
354.15	0.762
354.36	0.761
354.57	0.753
354.77	0.755
354.98	0.754
355.19	0.753
355.40	0.752
355.61	0.758
355.82	0.761
356.02	0.761
356.23	0.754
356.44	0.756
356.65	0.759
356.86	0.760
357.07	0.755
357.27	0.759
357.48	0.762
357.69	0.758
357.90	0.743
358.11	0.741
358.32	0.745
358.52	0.748
358.73	0.739
358.94	0.740
359.15	0.745
359.36	0.745
359.56	0.740
359.77	0.738
359.98	0.744
360.19	0.744
360.40	0.741
360.61	0.742
360.81	0.741
361.02	0.741
361.23	0.734
361.44	0.733
361.65	0.734
361.85	0.733
362.06	0.731
362.27	0.733
362.48	0.733
362.69	0.735
362.89	0.729
363.10	0.730
363.31	0.734
363.52	0.737
363.73	0.732
363.93	0.733
364.14	0.735
364.35	0.736
364.56	0.727
364.77	0.730
364.97	0.732
365.18	0.732
365.39	0.727
365.60	0.723
365.81	0.724
366.01	0.723
366.22	0.719
366.43	0.718
366.64	0.721
366.84	0.726
367.05	0.722
367.26	0.721
367.47	0.723
367.68	0.724
367.88	0.721
368.09	0.719
368.30	0.722
368.51	0.723
368.71	0.722
368.92	0.725
369.13	0.723
369.34	0.723
369.55	0.722
369.75	0.722
369.96	0.728
370.17	0.728
370.38	0.725
370.58	0.724
370.79	0.729
371.00	0.727
371.21	0.719
371.41	0.723
371.62	0.727
371.83	0.723
372.04	0.720
372.24	0.713
372.45	0.715
372.66	0.716
372.87	0.713
373.07	0.710
373.28	0.710
373.49	0.714
373.70	0.706
373.90	0.706
374.11	0.715
374.32	0.714
374.53	0.713
374.73	0.713
374.94	0.715
375.15	0.716
375.36	0.713
375.56	0.722
375.77	0.722
375.98	0.722
376.19	0.718
376.39	0.713
376.60	0.716
376.81	0.717
377.02	0.715
377.22	0.714
377.43	0.713
377.64	0.714
377.84	0.705
378.05	0.710
378.26	0.716
378.47	0.716
378.67	0.713
378.88	0.710
379.09	0.711
379.30	0.711
379.50	0.709
379.71	0.711
379.92	0.713
380.12	0.713
380.33	0.705
380.54	0.701
380.75	0.708
380.95	0.709
381.16	0.706
381.37	0.707
381.57	0.709
381.78	0.710
381.99	0.710
382.20	0.710
382.40	0.712
382.61	0.712
382.82	0.709
383.02	0.702
383.23	0.705
383.44	0.705
383.64	0.702
383.85	0.704
384.06	0.707
384.27	0.704
384.47	0.702
384.68	0.703
384.89	0.708
385.09	0.707
385.30	0.706
385.51	0.705
385.71	0.709
385.92	0.710
386.13	0.708
386.33	0.709
386.54	0.710
386.75	0.710
386.95	0.706
387.16	0.702
387.37	0.704
387.58	0.705
387.78	0.702
387.99	0.700
388.20	0.702
388.40	0.699
388.61	0.695
388.82	0.698
389.02	0.701
389.23	0.701
389.44	0.698
389.64	0.699
389.85	0.710
390.06	0.710
390.26	0.710
390.47	0.711
390.68	0.713
390.88	0.711
391.09	0.707
391.30	0.706
391.50	0.706
391.71	0.706
391.92	0.704
392.12	0.696
392.33	0.697
392.53	0.696
392.74	0.696
392.95	0.696
393.15	0.698
393.36	0.700
393.57	0.698
393.77	0.701
393.98	0.704
394.19	0.703
394.39	0.702
394.60	0.704
394.81	0.706
395.01	0.703
395.22	0.701
395.43	0.703
395.63	0.708
395.84	0.709
396.04	0.705
396.25	0.706
396.46	0.708
396.66	0.706
396.87	0.704
397.08	0.702
397.28	0.704
397.49	0.705
397.69	0.702
397.90	0.697
398.11	0.698
398.31	0.699
398.52	0.695
398.73	0.697
398.93	0.696
399.14	0.695
399.34	0.694
399.55	0.696
399.76	0.696
399.96	0.697
400.17	0.695
400.37	0.693
400.58	0.700
400.79	0.702
400.99	0.699
401.20	0.704
401.41	0.706
401.61	0.707
401.82	0.711
402.02	0.710
402.23	0.712
402.44	0.712
402.64	0.712
402.85	0.707
403.05	0.706
403.26	0.705
403.47	0.698
403.67	0.698
403.88	0.698
404.08	0.692
404.29	0.690
404.50	0.690
404.70	0.690
404.91	0.689
405.11	0.686
405.32	0.687
405.52	0.688
405.73	0.688
405.94	0.685
406.14	0.688
406.35	0.690
406.55	0.690
406.76	0.688
406.97	0.689
407.17	0.691
407.38	0.692
407.58	0.689
407.79	0.692
407.99	0.694
408.20	0.695
408.41	0.691
408.61	0.689
408.82	0.690
409.02	0.689
409.23	0.687
409.43	0.686
409.64	0.688
409.84	0.688
410.05	0.685
410.26	0.683
410.46	0.682
410.67	0.682
410.87	0.684
411.08	0.686
411.28	0.687
411.49	0.689
411.69	0.686
411.90	0.687
412.11	0.688
412.31	0.689
412.52	0.688
412.72	0.689
412.93	0.690
413.13	0.688
413.34	0.684
413.54	0.685
413.75	0.687
413.95	0.687
414.16	0.684
414.37	0.686
414.57	0.686
414.78	0.689
414.98	0.687
415.19	0.688
415.39	0.686
415.60	0.688
415.80	0.687
416.01	0.686
416.21	0.688
416.42	0.688
416.62	0.683
416.83	0.683
417.03	0.683
417.24	0.683
417.44	0.681
417.65	0.680
417.86	0.681
418.06	0.679
418.27	0.677
418.47	0.678
418.68	0.679
418.88	0.680
419.09	0.678
419.29	0.679
419.50	0.680
419.70	0.679
419.91	0.677
420.11	0.674
420.32	0.677
420.52	0.677
420.73	0.676
420.93	0.677
421.14	0.679
421.34	0.678
421.55	0.674
421.75	0.674
421.96	0.675
422.16	0.675
422.37	0.675
422.57	0.672
422.78	0.674
422.98	0.670
423.19	0.668
423.39	0.667
423.60	0.670
423.80	0.672
424.01	0.671
424.21	0.673
424.42	0.675
424.62	0.674
424.83	0.673
425.03	0.673
425.23	0.675
425.44	0.675
425.64	0.676
425.85	0.674
426.05	0.675
426.26	0.676
426.46	0.672
426.67	0.671
426.87	0.676
427.08	0.676
427.28	0.674
427.49	0.674
427.69	0.675
427.90	0.673
428.10	0.670
428.31	0.670
428.51	0.671
428.71	0.671
428.92	0.672
429.12	0.669
429.33	0.670
429.53	0.674
429.74	0.678
429.94	0.678
430.15	0.678
430.35	0.678
430.56	0.675
430.76	0.674
430.96	0.675
431.17	0.672
431.37	0.670
431.58	0.668
431.78	0.665
431.99	0.658
432.19	0.660
432.40	0.662
432.60	0.663
432.80	0.665
433.01	0.663
433.21	0.663
433.42	0.665
433.62	0.665
433.83	0.665
434.03	0.667
434.23	0.671
434.44	0.670
434.64	0.668
434.85	0.673
435.05	0.674
435.26	0.675
435.46	0.673
435.66	0.673
435.87	0.673
436.07	0.673
436.28	0.669
436.48	0.666
436.69	0.665
436.89	0.666
437.09	0.659
437.30	0.658
437.50	0.658
437.71	0.670
437.91	0.668
438.11	0.669
438.32	0.673
438.52	0.674
438.73	0.672
438.93	0.671
439.13	0.671
439.34	0.675
439.54	0.672
439.75	0.672
439.95	0.662
440.15	0.667
440.36	0.665
440.56	0.663
440.77	0.664
440.97	0.664
441.17	0.663
441.38	0.664
441.58	0.661
441.79	0.660
441.99	0.659
442.19	0.658
442.40	0.656
442.60	0.656
442.81	0.653
443.01	0.654
443.21	0.654
443.42	0.654
443.62	0.652
443.82	0.652
444.03	0.654
444.23	0.654
444.44	0.654
444.64	0.653
444.84	0.655
445.05	0.655
445.25	0.652
445.45	0.653
445.66	0.655
445.86	0.654
446.06	0.655
446.27	0.654
446.47	0.658
446.68	0.656
446.88	0.654
447.08	0.654
447.29	0.656
447.49	0.656
447.69	0.656
447.90	0.654
448.10	0.657
448.30	0.655
448.51	0.656
448.71	0.654
448.91	0.657
449.12	0.656
449.32	0.657
449.52	0.656
449.73	0.659
449.93	0.659
450.14	0.660
450.34	0.659
450.54	0.662
450.75	0.659
450.95	0.658
451.15	0.657
451.36	0.659
451.56	0.656
451.76	0.655
451.97	0.652
452.17	0.652
452.37	0.651
452.58	0.647
452.78	0.647
452.98	0.649
453.19	0.648
453.39	0.648
453.59	0.648
453.79	0.649
454.00	0.649
454.20	0.647
454.40	0.648
454.61	0.650
454.81	0.651
455.01	0.648
455.22	0.650
455.42	0.652
455.62	0.651
455.83	0.650
456.03	0.653
456.23	0.655
456.44	0.656
456.64	0.655
456.84	0.655
457.04	0.656
457.25	0.655
457.45	0.652
457.65	0.650
457.86	0.651
458.06	0.650
458.26	0.645
458.47	0.644
458.67	0.645
458.87	0.645
459.07	0.642
459.28	0.644
459.48	0.647
459.68	0.647
459.89	0.647
460.09	0.645
460.29	0.647
460.49	0.648
460.70	0.647
460.90	0.646
461.10	0.647
461.31	0.647
461.51	0.644
461.71	0.645
461.91	0.646
462.12	0.646
462.32	0.645
462.52	0.646
462.72	0.649
462.93	0.649
463.13	0.648
463.33	0.649
463.53	0.651
463.74	0.650
463.94	0.645
464.14	0.646
464.35	0.647
464.55	0.647
464.75	0.645
464.95	0.643
465.16	0.645
465.36	0.644
465.56	0.643
465.76	0.642
465.97	0.643
466.17	0.644
466.37	0.642
466.57	0.642
466.78	0.644
466.98	0.644
467.18	0.641
467.38	0.640
467.59	0.642
467.79	0.644
467.99	0.643
468.19	0.644
468.39	0.647
468.60	0.647
468.80	0.645
469.00	0.646
469.20	0.647
469.41	0.648
469.61	0.647
469.81	0.647
470.01	0.647
470.22	0.647
470.42	0.644
470.62	0.642
470.82	0.644
471.02	0.644
471.23	0.641
471.43	0.642
471.63	0.644
471.83	0.643
472.04	0.642
472.24	0.641
472.44	0.646
472.64	0.647
472.84	0.645
473.05	0.645
473.25	0.647
473.45	0.646
473.65	0.644
473.85	0.645
474.06	0.646
474.26	0.646
474.46	0.647
474.66	0.644
474.86	0.645
475.07	0.645
475.27	0.643
475.47	0.640
475.67	0.641
475.87	0.643
476.08	0.640
476.28	0.641
476.48	0.642
476.68	0.640
476.88	0.638
477.09	0.639
477.29	0.641
477.49	0.642
477.69	0.641
477.89	0.641
478.09	0.641
478.30	0.643
478.50	0.640
478.70	0.639
478.90	0.640
479.10	0.642
479.31	0.644
479.51	0.642
479.71	0.642
479.91	0.643
480.11	0.641
480.31	0.641
480.52	0.640
480.72	0.640
480.92	0.639
481.12	0.637
481.32	0.635
481.52	0.633
481.72	0.633
481.93	0.637
482.13	0.637
482.33	0.637
482.53	0.635
482.73	0.635
482.93	0.636
483.14	0.636
483.34	0.636
483.54	0.637
483.74	0.636
483.94	0.635
484.14	0.631
484.34	0.631
484.55	0.632
484.75	0.632
484.95	0.630
485.15	0.630
485.35	0.630
485.55	0.629
485.75	0.628
485.96	0.628
486.16	0.630
486.36	0.629
486.56	0.628
486.76	0.628
486.96	0.628
487.16	0.628
487.36	0.626
487.57	0.626
487.77	0.626
487.97	0.627
488.17	0.625
488.37	0.624
488.57	0.625
488.77	0.625
488.97	0.623
489.18	0.623
489.38	0.625
489.58	0.626
489.78	0.625
489.98	0.624
490.18	0.624
490.38	0.625
490.58	0.624
490.78	0.624
490.98	0.626
491.19	0.626
491.39	0.625
491.59	0.624
491.79	0.627
491.99	0.627
492.19	0.627
492.39	0.630
492.59	0.630
492.79	0.632
492.99	0.632
493.20	0.632
493.40	0.633
493.60	0.635
493.80	0.633
494.00	0.631
494.20	0.632
494.40	0.631
494.60	0.629
494.80	0.633
495.00	0.632
495.20	0.631
495.40	0.630
495.61	0.632
495.81	0.631
496.01	0.635
496.21	0.635
496.41	0.634
496.61	0.635
496.81	0.633
497.01	0.628
497.21	0.628
497.41	0.628
497.61	0.628
497.81	0.625
498.01	0.625
498.21	0.623
498.41	0.621
498.61	0.622
498.82	0.623
499.02	0.625
499.22	0.626
499.42	0.625
499.62	0.626
499.82	0.627
500.02	0.628
500.22	0.627
500.42	0.628
500.62	0.629
500.82	0.629
501.02	0.627
501.22	0.627
501.42	0.628
501.62	0.630
501.82	0.629
502.02	0.629
502.22	0.629
502.42	0.631
502.62	0.628
502.82	0.629
503.02	0.630
503.22	0.629
503.42	0.627
503.63	0.626
503.83	0.625
504.03	0.624
504.23	0.622
504.43	0.623
504.63	0.624
504.83	0.623
505.03	0.622
505.23	0.623
505.43	0.626
505.63	0.627
505.83	0.626
506.03	0.628
506.23	0.630
506.43	0.631
506.63	0.629
506.83	0.628
507.03	0.631
507.23	0.631
507.43	0.628
507.63	0.629
507.83	0.629
508.03	0.629
508.23	0.628
508.43	0.627
508.63	0.629
508.83	0.629
509.03	0.630
509.23	0.629
509.43	0.630
509.63	0.630
509.83	0.629
510.03	0.631
510.23	0.633
510.43	0.634
510.63	0.634
510.83	0.634
511.03	0.636
511.23	0.634
511.43	0.634
511.63	0.635
511.83	0.637
512.03	0.637
512.22	0.634
512.42	0.633
512.62	0.634
512.82	0.634
513.02	0.633
513.22	0.632
513.42	0.633
513.62	0.636
513.82	0.633
514.02	0.633
514.22	0.635
514.42	0.636
514.62	0.635
514.82	0.636
515.02	0.638
515.22	0.641
515.42	0.639
515.62	0.642
515.82	0.641
516.02	0.643
516.22	0.642
516.42	0.643
516.62	0.644
516.82	0.646
517.01	0.644
517.21	0.644
517.41	0.647
517.61	0.648
517.81	0.644
518.01	0.643
518.21	0.642
518.41	0.641
518.61	0.641
518.81	0.641
519.01	0.642
519.21	0.641
519.41	0.640
519.61	0.635
519.81	0.638
520.00	0.638
520.20	0.639
520.40	0.642
520.60	0.643
520.80	0.642
521.00	0.642
521.20	0.643
521.40	0.648
521.60	0.648
521.80	0.648
522.00	0.648
522.20	0.650
522.39	0.650
522.59	0.646
522.79	0.649
522.99	0.651
523.19	0.650
523.39	0.647
523.59	0.645
523.79	0.648
523.99	0.650
524.19	0.650
524.38	0.648
524.58	0.649
524.78	0.649
524.98	0.647
525.18	0.649
525.38	0.650
525.58	0.650
525.78	0.648
525.98	0.647
526.18	0.647
526.37	0.645
526.57	0.647
526.77	0.647
526.97	0.648
527.17	0.648
527.37	0.644
527.57	0.647
527.77	0.649
527.96	0.650
528.16	0.648
528.36	0.649
528.56	0.651
528.76	0.649
528.96	0.648
529.16	0.649
529.36	0.653
529.55	0.652
529.75	0.648
529.95	0.648
530.15	0.650
530.35	0.653
530.55	0.650
530.75	0.651
530.94	0.652
531.14	0.653
531.34	0.651
531.54	0.649
531.74	0.652
531.94	0.655
532.13	0.653
532.33	0.655
532.53	0.654
532.73	0.653
532.93	0.651
533.13	0.652
533.33	0.652
533.52	0.653
533.72	0.656
533.92	0.654
534.12	0.652
534.32	0.652
534.52	0.650
534.71	0.652
534.91	0.655
535.11	0.657
535.31	0.655
535.51	0.657
535.71	0.659
535.90	0.656
536.10	0.657
536.30	0.659
536.50	0.660
536.70	0.661
536.89	0.659
537.09	0.658
537.29	0.660
537.49	0.661
537.69	0.659
537.89	0.659
538.08	0.659
538.28	0.657
538.48	0.657
538.68	0.659
538.88	0.660
539.07	0.660
539.27	0.658
539.47	0.657
539.67	0.657
539.87	0.658
540.06	0.656
540.26	0.657
540.46	0.659
540.66	0.656
540.86	0.654
541.05	0.655
541.25	0.656
541.45	0.657
541.65	0.655
541.84	0.657
542.04	0.658
542.24	0.659
542.44	0.658
542.64	0.659
542.83	0.662
543.03	0.662
543.23	0.659
543.43	0.660
543.62	0.662
543.82	0.662
544.02	0.660
544.22	0.660
544.42	0.663
544.61	0.663
544.81	0.660
545.01	0.659
545.21	0.661
545.40	0.661
545.60	0.659
545.80	0.663
546.00	0.663
546.19	0.663
546.39	0.662
546.59	0.660
546.79	0.660
546.98	0.661
547.18	0.661
547.38	0.662
547.58	0.664
547.77	0.666
547.97	0.662
548.17	0.663
548.37	0.664
548.56	0.664
548.76	0.663
548.96	0.666
549.16	0.668
549.35	0.668
549.55	0.666
549.75	0.666
549.95	0.668
550.14	0.668
550.34	0.666
550.54	0.671
550.73	0.675
550.93	0.676
551.13	0.672
551.33	0.670
551.52	0.671
551.72	0.672
551.92	0.670
552.12	0.670
552.31	0.671
552.51	0.671
552.71	0.665
552.90	0.665
553.10	0.666
553.30	0.667
553.50	0.666
553.69	0.667
553.89	0.668
554.09	0.668
554.28	0.665
554.48	0.666
554.68	0.668
554.87	0.669
555.07	0.666
555.27	0.665
555.47	0.667
555.66	0.668
555.86	0.666
556.06	0.667
556.25	0.669
556.45	0.677
556.65	0.675
556.84	0.678
557.04	0.682
557.24	0.684
557.43	0.684
557.63	0.687
557.83	0.689
558.02	0.689
558.22	0.693
558.42	0.693
558.61	0.686
558.81	0.687
559.01	0.683
559.21	0.682
559.40	0.683
559.60	0.683
559.80	0.679
559.99	0.680
560.19	0.682
560.39	0.676
560.58	0.674
560.78	0.674
560.97	0.678
561.17	0.676
561.37	0.674
561.56	0.675
561.76	0.677
561.96	0.677
562.15	0.673
562.35	0.676
562.55	0.678
562.74	0.678
562.94	0.677
563.14	0.674
563.33	0.675
563.53	0.675
563.73	0.673
563.92	0.674
564.12	0.677
564.31	0.680
564.51	0.677
564.71	0.679
564.90	0.682
565.10	0.683
565.30	0.685
565.49	0.686
565.69	0.689
565.89	0.689
566.08	0.686
566.28	0.688
566.47	0.690
566.67	0.688
566.87	0.685
567.06	0.687
567.26	0.694
567.46	0.689
567.65	0.689
567.85	0.689
568.04	0.692
568.24	0.691
568.44	0.688
568.63	0.685
568.83	0.687
569.02	0.686
569.22	0.681
569.42	0.677
569.61	0.679
569.81	0.678
570.00	0.676
570.20	0.677
570.40	0.679
570.59	0.678
570.79	0.676
570.98	0.674
571.18	0.676
571.38	0.676
571.57	0.673
571.77	0.671
571.96	0.675
572.16	0.673
572.35	0.667
572.55	0.668
572.75	0.666
572.94	0.666
573.14	0.665
573.33	0.665
573.53	0.666
573.73	0.665
573.92	0.662
574.12	0.660
574.31	0.663
574.51	0.664
574.70	0.661
574.90	0.662
575.09	0.664
575.29	0.665
575.49	0.662
575.68	0.663
575.88	0.664
576.07	0.667
576.27	0.664
576.46	0.663
576.66	0.662
576.86	0.662
577.05	0.659
577.25	0.658
577.44	0.660
577.64	0.659
577.83	0.657
578.03	0.658
578.22	0.657
578.42	0.656
578.61	0.654
578.81	0.655
579.00	0.656
579.20	0.656
579.40	0.654
579.59	0.653
579.79	0.654
579.98	0.653
580.18	0.653
580.37	0.653
580.57	0.655
580.76	0.660
580.96	0.658
581.15	0.659
581.35	0.661
581.54	0.661
581.74	0.660
581.93	0.661
582.13	0.662
582.32	0.660
582.52	0.658
582.71	0.657
582.91	0.653
583.10	0.653
583.30	0.652
583.49	0.651
583.69	0.655
583.88	0.657
584.08	0.655
584.27	0.657
584.47	0.661
584.66	0.662
584.86	0.661
585.05	0.663
585.25	0.665
585.44	0.665
585.64	0.662
585.83	0.659
586.03	0.660
586.22	0.658
586.42	0.655
586.61	0.656
586.81	0.658
587.00	0.658
587.20	0.655
587.39	0.656
587.59	0.658
587.78	0.660
587.98	0.661
588.17	0.661
588.37	0.664
588.56	0.666
588.76	0.661
588.95	0.661
589.15	0.666
589.34	0.668
589.54	0.666
589.73	0.667
589.92	0.670
590.12	0.669
590.31	0.667
590.51	0.672
590.70	0.674
590.90	0.675
591.09	0.672
591.29	0.671
591.48	0.671
591.68	0.672
591.87	0.670
592.06	0.670
592.26	0.673
592.45	0.672
592.65	0.665
592.84	0.665
593.04	0.668
593.23	0.669
593.43	0.667
593.62	0.666
593.81	0.666
594.01	0.666
594.20	0.663
594.40	0.663
594.59	0.665
594.79	0.666
594.98	0.664
595.17	0.663
595.37	0.665
595.56	0.667
595.76	0.666
595.95	0.668
596.14	0.671
596.34	0.672
596.53	0.670
596.73	0.673
596.92	0.674
597.12	0.677
597.31	0.677
597.50	0.676
597.70	0.679
597.89	0.678
598.09	0.674
598.28	0.676
598.47	0.679
598.67	0.677
598.86	0.673
599.06	0.674
599.25	0.674
599.44	0.672
599.64	0.669
599.83	0.666
600.03	0.670
600.22	0.671
600.41	0.670
600.61	0.668
600.80	0.670
601.00	0.671
601.19	0.667
601.38	0.666
601.58	0.669
601.77	0.670
601.96	0.672
602.16	0.671
602.35	0.679
602.55	0.677
602.74	0.677
602.93	0.679
603.13	0.683
603.32	0.685
603.51	0.684
603.71	0.687
603.90	0.689
604.09	0.689
604.29	0.686
604.48	0.681
604.68	0.682
604.87	0.681
605.06	0.678
605.26	0.675
605.45	0.676
605.64	0.676
605.84	0.671
606.03	0.670
606.22	0.670
606.42	0.670
606.61	0.666
606.80	0.666
607.00	0.668
607.19	0.668
607.38	0.667
607.58	0.667
607.77	0.670
607.96	0.670
608.16	0.668
608.35	0.672
608.54	0.675
608.74	0.679
608.93	0.684
609.12	0.687
609.32	0.690
609.51	0.693
609.70	0.692
609.90	0.694
610.09	0.699
610.28	0.704
610.48	0.698
610.67	0.699
610.86	0.700
611.06	0.695
611.25	0.692
611.44	0.692
611.64	0.692
611.83	0.695
612.02	0.690
612.21	0.688
612.41	0.687
612.60	0.687
612.79	0.683
612.99	0.682
613.18	0.684
613.37	0.681
613.57	0.679
613.76	0.680
613.95	0.677
614.14	0.677
614.34	0.675
614.53	0.675
614.72	0.678
614.92	0.679
615.11	0.676
615.30	0.673
615.49	0.675
615.69	0.677
615.88	0.673
616.07	0.675
616.26	0.677
616.46	0.678
616.65	0.675
616.84	0.674
617.04	0.675
617.23	0.679
617.42	0.679
617.61	0.683
617.81	0.684
618.00	0.686
618.19	0.684
618.38	0.687
618.58	0.691
618.77	0.692
618.96	0.691
619.15	0.693
619.35	0.695
619.54	0.696
619.73	0.691
619.92	0.694
620.12	0.698
620.31	0.698
620.50	0.693
620.69	0.693
620.89	0.697
621.08	0.697
621.27	0.697
621.46	0.696
621.66	0.700
621.85	0.700
622.04	0.696
622.23	0.697
622.43	0.697
622.62	0.697
622.81	0.695
623.00	0.694
623.19	0.698
623.39	0.698
623.58	0.695
623.77	0.693
623.96	0.697
624.16	0.696
624.35	0.691
624.54	0.694
624.73	0.699
624.92	0.696
625.12	0.694
625.31	0.694
625.50	0.697
625.69	0.697
625.88	0.694
626.08	0.693
626.27	0.695
626.46	0.696
626.65	0.692
626.84	0.692
627.04	0.698
627.23	0.699
627.42	0.694
627.61	0.696
627.80	0.699
628.00	0.699
628.19	0.697
628.38	0.700
628.57	0.703
628.76	0.702
628.96	0.699
629.15	0.700
629.34	0.702
629.53	0.703
629.72	0.697
629.91	0.697
630.11	0.702
630.30	0.703
630.49	0.705
630.68	0.706
630.87	0.709
631.06	0.711
631.26	0.705
631.45	0.707
631.64	0.715
631.83	0.718
632.02	0.716
632.21	0.715
632.41	0.722
632.60	0.716
632.79	0.714
632.98	0.714
633.17	0.716
633.36	0.717
633.55	0.713
633.75	0.710
633.94	0.712
634.13	0.712
634.32	0.710
634.51	0.703
634.70	0.705
634.89	0.704
635.09	0.700
635.28	0.701
635.47	0.702
635.66	0.706
635.85	0.701
636.04	0.702
636.23	0.707
636.43	0.708
636.62	0.707
636.81	0.707
637.00	0.711
637.19	0.715
637.38	0.711
637.57	0.711
637.76	0.713
637.95	0.714
638.15	0.711
638.34	0.707
638.53	0.710
638.72	0.712
638.91	0.708
639.10	0.706
639.29	0.705
639.48	0.707
639.67	0.705
639.87	0.704
640.06	0.709
640.25	0.709
640.44	0.710
640.63	0.710
640.82	0.712
641.01	0.713
641.20	0.713
641.39	0.715
641.58	0.717
641.78	0.716
641.97	0.711
642.16	0.725
642.35	0.726
642.54	0.725
642.73	0.718
642.92	0.717
643.11	0.721
643.30	0.721
643.49	0.716
643.68	0.719
643.87	0.722
644.06	0.722
644.25	0.701
644.45	0.704
644.64	0.705
644.83	0.706
645.02	0.702
645.21	0.701
645.40	0.703
645.59	0.702
645.78	0.696
645.97	0.698
646.16	0.699
646.35	0.699
646.54	0.697
646.73	0.698
646.92	0.700
647.11	0.700
647.30	0.694
647.49	0.696
647.68	0.696
647.88	0.694
648.07	0.686
648.26	0.690
648.45	0.692
648.64	0.689
648.83	0.686
649.02	0.688
649.21	0.699
649.40	0.698
649.59	0.693
649.78	0.694
649.97	0.709
650.16	0.709
650.35	0.704
650.54	0.706
650.73	0.715
650.92	0.712
651.11	0.705
651.30	0.702
651.49	0.707
651.68	0.708
651.87	0.704
652.06	0.693
652.25	0.696
652.44	0.698
652.63	0.695
652.82	0.695
653.01	0.695
653.20	0.693
653.39	0.681
653.58	0.679
653.77	0.678
653.96	0.673
654.15	0.665
654.34	0.663
654.53	0.658
654.72	0.653
654.91	0.643
655.10	0.639
655.29	0.638
655.48	0.636
655.67	0.631
655.86	0.629
656.05	0.628
656.24	0.628
656.43	0.622
656.62	0.622
656.81	0.623
657.00	0.621
657.19	0.618
657.38	0.619
657.57	0.619
657.76	0.621
657.95	0.618
658.14	0.622
658.33	0.625
658.51	0.630
658.70	0.630
658.89	0.631
659.08	0.641
659.27	0.648
659.46	0.647
659.65	0.654
659.84	0.658
660.03	0.661
660.22	0.662
660.41	0.666
660.60	0.665
660.79	0.666
660.98	0.672
661.17	0.671
661.36	0.669
661.55	0.670
661.74	0.666
661.92	0.670
662.11	0.673
662.30	0.671
662.49	0.664
662.68	0.664
662.87	0.668
663.06	0.661
663.25	0.661
663.44	0.663
663.63	0.665
663.82	0.664
664.01	0.658
664.20	0.657
664.38	0.658
664.57	0.659
664.76	0.658
664.95	0.659
665.14	0.664
665.33	0.660
665.52	0.665
665.71	0.669
665.90	0.668
666.09	0.670
666.28	0.668
666.46	0.667
666.65	0.667
666.84	0.665
667.03	0.659
667.22	0.657
667.41	0.660
667.60	0.650
667.79	0.643
667.98	0.645
668.16	0.645
668.35	0.644
668.54	0.640
668.73	0.641
668.92	0.642
669.11	0.641
669.30	0.635
669.49	0.632
669.67	0.634
669.86	0.636
670.05	0.633
670.24	0.631
670.43	0.629
670.62	0.629
670.81	0.624
671.00	0.625
671.18	0.625
671.37	0.624
671.56	0.622
671.75	0.621
671.94	0.618
672.13	0.617
672.32	0.611
672.50	0.611
672.69	0.612
672.88	0.613
673.07	0.609
673.26	0.611
673.45	0.612
673.63	0.612
673.82	0.608
674.01	0.610
674.20	0.609
674.39	0.609
674.58	0.608
674.76	0.608
674.95	0.606
675.14	0.605
675.33	0.600
675.52	0.599
675.71	0.599
675.89	0.599
676.08	0.594
676.27	0.594
676.46	0.595
676.65	0.595
676.84	0.595
677.02	0.597
677.21	0.599
677.40	0.598
677.59	0.595
677.78	0.596
677.96	0.598
678.15	0.598
678.34	0.596
678.53	0.596
678.72	0.596
678.90	0.592
679.09	0.588
679.28	0.585
679.47	0.586
679.66	0.585
679.84	0.581
680.03	0.579
680.22	0.579
680.41	0.580
680.60	0.577
680.78	0.577
680.97	0.579
681.16	0.580
681.35	0.578
681.53	0.576
681.72	0.578
681.91	0.580
682.10	0.578
682.29	0.581
682.47	0.578
682.66	0.579
682.85	0.577
683.04	0.575
683.22	0.575
683.41	0.576
683.60	0.575
683.79	0.576
683.97	0.575
684.16	0.574
684.35	0.570
684.54	0.571
684.72	0.571
684.91	0.572
685.10	0.570
685.29	0.572
685.47	0.570
685.66	0.569
685.85	0.566
686.04	0.564
686.22	0.567
686.41	0.570
686.60	0.567
686.79	0.570
686.97	0.571
687.16	0.572
687.35	0.569
687.54	0.573
687.72	0.576
687.91	0.576
688.10	0.577
688.29	0.576
688.47	0.575
688.66	0.574
688.85	0.569
689.03	0.567
689.22	0.572
689.41	0.572
689.60	0.567
689.78	0.565
689.97	0.565
690.16	0.563
690.34	0.559
690.53	0.559
690.72	0.560
690.91	0.558
691.09	0.557
691.28	0.551
691.47	0.548
691.65	0.547
691.84	0.544
692.03	0.543
692.21	0.541
692.40	0.541
692.59	0.538
692.77	0.537
692.96	0.539
693.15	0.539
693.34	0.536
693.52	0.537
693.71	0.538
693.90	0.539
694.08	0.540
694.27	0.542
694.46	0.551
694.64	0.552
694.83	0.551
695.02	0.550
695.20	0.550
695.39	0.550
695.58	0.549
695.76	0.550
695.95	0.549
696.14	0.548
696.32	0.545
696.51	0.536
696.70	0.536
696.88	0.538
697.07	0.536
697.26	0.538
697.44	0.540
697.63	0.539
697.81	0.536
698.00	0.536
698.19	0.536
698.37	0.535
698.56	0.535
698.75	0.535
698.93	0.535
699.12	0.535
699.31	0.533
699.49	0.532
699.68	0.533
699.87	0.536
700.05	0.536
700.24	0.534
700.42	0.536
700.61	0.536
700.80	0.534
700.98	0.533
701.17	0.535
701.36	0.534
701.54	0.534
701.73	0.535
701.91	0.532
702.10	0.532
702.29	0.530
702.47	0.529
702.66	0.531
702.84	0.532
703.03	0.530
703.22	0.531
703.40	0.531
703.59	0.532
703.77	0.531
703.96	0.531
704.15	0.532
704.33	0.532
704.52	0.531
704.70	0.531
704.89	0.531
705.08	0.530
705.26	0.525
705.45	0.525
705.63	0.525
705.82	0.522
706.00	0.521
706.19	0.521
706.38	0.521
706.56	0.520
706.75	0.518
706.93	0.516
707.12	0.517
707.30	0.518
707.49	0.515
707.68	0.513
707.86	0.513
708.05	0.513
708.23	0.510
708.42	0.510
708.60	0.513
708.79	0.513
708.98	0.512
709.16	0.512
709.35	0.514
709.53	0.518
709.72	0.517
709.90	0.518
710.09	0.521
710.27	0.523
710.46	0.526
710.64	0.524
710.83	0.527
711.02	0.528
711.20	0.527
711.39	0.526
711.57	0.523
711.76	0.523
711.94	0.521
712.13	0.523
712.31	0.522
712.50	0.518
712.68	0.515
712.87	0.516
713.05	0.517
713.24	0.518
713.42	0.517
713.61	0.518
713.79	0.518
713.98	0.518
714.16	0.518
714.35	0.518
714.54	0.519
714.72	0.519
714.91	0.517
715.09	0.523
715.28	0.526
715.46	0.525
715.65	0.522
715.83	0.523
716.02	0.525
716.20	0.522
716.39	0.521
716.57	0.522
716.76	0.525
716.94	0.525
717.12	0.517
717.31	0.518
717.49	0.521
717.68	0.524
717.86	0.523
718.05	0.525
718.23	0.528
718.42	0.530
718.60	0.530
718.79	0.538
718.97	0.541
719.16	0.541
719.34	0.539
719.53	0.538
719.71	0.538
719.90	0.540
720.08	0.536
720.27	0.537
720.45	0.537
720.63	0.535
720.82	0.529
721.00	0.532
721.19	0.536
721.37	0.535
721.56	0.535
721.74	0.537
721.93	0.545
722.11	0.553
722.30	0.552
722.48	0.557
722.66	0.558
722.85	0.558
723.03	0.557
723.22	0.555
723.40	0.558
723.59	0.558
723.77	0.563
723.95	0.557
724.14	0.558
724.32	0.560
724.51	0.559
724.69	0.561
724.88	0.561
725.06	0.560
725.24	0.562
725.43	0.563
725.61	0.565
725.80	0.558
725.98	0.556
726.16	0.553
726.35	0.559
726.53	0.556
726.72	0.555
726.90	0.565
727.09	0.565
727.27	0.571
727.45	0.567
727.64	0.576
727.82	0.584
728.01	0.589
728.19	0.586
728.37	0.590
728.56	0.594
728.74	0.601
728.92	0.588
729.11	0.591
729.29	0.588
729.48	0.590
729.66	0.579
729.84	0.579
730.03	0.581
730.21	0.583
730.40	0.574
730.58	0.575
730.76	0.574
730.95	0.576
731.13	0.576
731.31	0.588
731.50	0.598
731.68	0.601
731.86	0.598
732.05	0.613
732.23	0.617
732.42	0.620
732.60	0.624
732.78	0.629
732.97	0.648
733.15	0.654
733.33	0.642
733.52	0.650
733.70	0.662
733.88	0.669
734.07	0.654
734.25	0.679
734.43	0.687
734.62	0.689
734.80	0.686
734.98	0.677
735.17	0.684
735.35	0.690
735.53	0.678
735.72	0.681
735.90	0.705
736.08	0.723
736.27	0.699
736.45	0.708
736.63	0.720
736.82	0.727
737.00	0.724
737.18	0.734
737.37	0.766
737.55	0.788
737.73	0.784
737.92	0.783
738.10	0.782
738.28	0.802
738.46	0.789
738.65	0.805
738.83	0.827
739.01	0.881
739.20	0.871
739.38	0.852
739.56	0.842
739.75	0.842
739.93	0.810
740.11	0.831
740.29	0.830
740.48	0.836
740.66	0.812
740.84	0.805
741.03	0.773
741.21	0.783
741.39	0.765
741.57	0.779
741.76	0.797
741.94	0.804
742.12	0.772
742.31	0.776
742.49	0.793
742.67	0.815
742.85	0.826
743.04	0.826
743.22	0.838
743.40	0.888
743.58	0.867
743.77	0.882
743.95	0.914
744.13	0.958
744.31	0.944
744.50	0.938
744.68	0.940
744.86	0.918
745.04	0.932
745.23	0.988
745.41	0.978
745.59	0.982
745.77	0.944
745.96	0.932
746.14	0.945
746.32	0.935
746.50	0.928
746.69	0.916
746.87	0.927
747.05	0.909
747.23	0.844
747.42	0.828
747.60	0.860
747.78	0.871
747.96	0.897
748.14	0.852
748.33	0.884
748.51	0.881
748.69	0.871
748.87	0.902
749.06	0.906
749.24	0.901
749.42	0.885
749.60	0.866
749.78	0.871
749.97	0.826
750.15	0.818
750.33	0.820
750.51	0.846
750.69	0.852
750.88	0.847
751.06	0.851
751.24	0.878
751.42	0.870
751.60	0.859
751.79	0.922
751.97	0.967
752.15	0.964
752.33	0.927
752.51	0.980
752.69	0.995
752.88	0.968
753.06	1.013
753.24	0.996
753.42	1.031
753.60	1.190
753.78	1.059
753.97	1.078
754.15	1.106
754.33	1.137
754.51	1.014
754.69	0.999
754.87	1.033
755.06	0.961
755.24	0.959
755.42	0.966
755.60	0.874
755.78	0.883
755.96	0.829
756.15	0.831
756.33	0.839
756.51	0.858
756.69	0.845
756.87	0.814
757.05	0.835
757.23	0.819
757.42	0.787
757.60	0.785
757.78	0.775
757.96	0.777
758.14	0.758
758.32	0.744
758.50	0.756
758.69	0.752
758.87	0.741
759.05	0.746
759.23	0.756
759.41	0.755
759.59	0.746
759.77	0.767
759.95	0.790
760.13	0.838
760.32	0.836
760.50	0.831
760.68	0.859
760.86	0.858
761.04	0.830
761.22	0.833
761.40	0.884
761.58	0.882
761.76	0.853
761.95	0.836
762.13	0.793
762.31	0.793
762.49	0.762
762.67	0.779
762.85	0.796
763.03	0.791
763.21	0.772
763.39	0.754
763.57	0.757
763.75	0.753
763.94	0.741
764.12	0.743
764.30	0.769
764.48	0.773
764.66	0.734
764.84	0.732
765.02	0.767
765.20	0.774
765.38	0.754
765.56	0.762
765.74	0.798
765.92	0.799
766.10	0.804
766.28	0.796
766.46	0.826
766.65	0.831
766.83	0.819
767.01	0.804
767.19	0.810
767.37	0.813
767.55	0.797
767.73	0.779
767.91	0.780
768.09	0.772
768.27	0.759
768.45	0.748
768.63	0.751
768.81	0.751
768.99	0.727
769.17	0.750
769.35	0.761
769.53	0.760
769.71	0.743
769.89	0.751
770.07	0.755
770.25	0.740
770.43	0.718
770.61	0.739
770.79	0.746
770.97	0.755
771.15	0.726
771.33	0.732
771.51	0.733
771.69	0.743
771.87	0.750
772.05	0.756
772.24	0.765
772.42	0.773
772.60	0.752
772.78	0.809
772.96	0.837
773.14	0.832
773.32	0.809
773.49	0.816
773.67	0.813
773.85	0.795
774.03	0.780
774.21	0.809
774.39	0.820
774.57	0.845
774.75	0.774
774.93	0.766
775.11	0.789
775.29	0.795
775.47	0.795
775.65	0.806
775.83	0.825
776.01	0.848
776.19	0.801
776.37	0.803
776.55	0.803
776.73	0.801
776.91	0.798
777.09	0.780
777.27	0.779
777.45	0.767
777.63	0.744
777.81	0.739
777.99	0.728
778.17	0.728
778.35	0.710
778.53	0.699
778.71	0.705
778.89	0.693
779.07	0.682
779.24	0.688
779.42	0.692
779.60	0.709
779.78	0.705
779.96	0.709
780.14	0.720
780.32	0.737
780.50	0.720
780.68	0.721
780.86	0.714
781.04	0.732
781.22	0.737
781.40	0.747
781.58	0.736
781.75	0.729
781.93	0.713
782.11	0.714
782.29	0.701
782.47	0.698
782.65	0.684
782.83	0.709
783.01	0.703
783.19	0.695
783.37	0.681
783.55	0.685
783.72	0.704
783.90	0.713
784.08	0.704
784.26	0.716
784.44	0.739
784.62	0.742
784.80	0.711
784.98	0.718
785.16	0.723
785.33	0.737
785.51	0.723
785.69	0.709
785.87	0.710
786.05	0.719
786.23	0.714
786.41	0.711
786.59	0.717
786.77	0.718
786.94	0.704
787.12	0.709
787.30	0.711
787.48	0.711
787.66	0.700
787.84	0.702
788.02	0.692
788.19	0.690
788.37	0.676
788.55	0.678
788.73	0.676
788.91	0.671
789.09	0.654
789.27	0.643
789.44	0.655
789.62	0.660
789.80	0.668
789.98	0.694
790.16	0.680
790.34	0.676
790.51	0.665
790.69	0.688
790.87	0.695
791.05	0.691
791.23	0.682
791.41	0.682
791.58	0.690
791.76	0.668
791.94	0.637
792.12	0.647
792.30	0.650
792.48	0.647
792.65	0.638
792.83	0.644
793.01	0.653
793.19	0.653
793.37	0.637
793.54	0.631
793.72	0.644
793.90	0.644
794.08	0.632
794.26	0.634
794.43	0.643
794.61	0.627
794.79	0.617
794.97	0.616
795.15	0.621
795.32	0.625
795.50	0.616
795.68	0.611
795.86	0.615
796.04	0.618
796.21	0.611
796.39	0.607
796.57	0.620
796.75	0.628
796.92	0.629
797.10	0.634
797.28	0.638
797.46	0.641
797.64	0.642
797.81	0.648
797.99	0.651
798.17	0.655
798.35	0.651
798.52	0.654
798.70	0.648
798.88	0.655
799.06	0.655
799.23	0.657
799.41	0.666
799.59	0.659
799.77	0.649
799.94	0.657
800.12	0.668
800.30	0.686
800.48	0.685
800.65	0.685
800.83	0.678
801.01	0.668
801.19	0.667
801.36	0.660
801.54	0.664
801.72	0.672
801.90	0.660
802.07	0.655
802.25	0.640
802.43	0.626
802.60	0.621
802.78	0.627
802.96	0.633
803.14	0.626
803.31	0.627
803.49	0.628
803.67	0.625
803.84	0.629
804.02	0.621
804.20	0.624
804.38	0.628
804.55	0.628
804.73	0.613
804.91	0.614
805.08	0.627
805.26	0.623
805.44	0.686
805.61	0.689
805.79	0.688
805.97	0.687
806.15	0.678
806.32	0.675
806.50	0.682
806.68	0.682
806.85	0.673
807.03	0.665
807.21	0.682
807.38	0.615
807.56	0.605
807.74	0.617
807.91	0.623
808.09	0.625
808.27	0.643
808.44	0.668
808.62	0.677
808.80	0.679
808.97	0.672
809.15	0.666
809.33	0.683
809.50	0.691
809.68	0.675
809.86	0.683
810.03	0.716
810.21	0.696
810.39	0.677
810.56	0.683
810.74	0.707
810.91	0.778
811.09	0.766
811.27	0.786
811.44	0.792
811.62	0.796
811.80	0.777
811.97	0.746
812.15	0.745
812.33	0.740
812.50	0.724
812.68	0.715
812.85	0.659
813.03	0.662
813.21	0.630
813.38	0.624
813.56	0.626
813.74	0.636
813.91	0.642
814.09	0.672
814.26	0.667
814.44	0.672
814.62	0.660
814.79	0.665
814.97	0.670
815.14	0.676
815.32	0.685
815.50	0.702
815.67	0.707
815.85	0.699
816.02	0.685
816.20	0.692
816.38	0.708
816.55	0.713
816.73	0.712
816.90	0.721
817.08	0.750
817.26	0.750
817.43	0.729
817.61	0.751
817.78	0.772
817.96	0.754
818.13	0.743
818.31	0.743
818.49	0.753
818.66	0.743
818.84	0.730
819.01	0.710
819.19	0.712
819.36	0.714
819.54	0.685
819.71	0.724
819.89	0.740
820.07	0.751
820.24	0.745
820.42	0.746
820.59	0.765
820.77	0.787
820.94	0.779
821.12	0.802
821.29	0.817
821.47	0.821
821.64	0.754
821.82	0.766
822.00	0.765
822.17	0.761
822.35	0.755
822.52	0.757
822.70	0.745
822.87	0.750
823.05	0.727
823.22	0.736
823.40	0.761
823.57	0.786
823.75	0.763
823.92	0.786
824.10	0.805
824.27	0.842
824.45	0.831
824.62	0.894
824.80	0.915
824.97	0.931
825.15	0.926
825.32	0.936
825.50	0.938
825.67	0.945
825.85	0.920
826.02	0.933
826.20	0.954
826.37	1.072
826.55	0.985
826.72	1.155
826.90	1.228
827.07	1.276
827.25	1.214
827.42	1.353
827.60	1.499
827.77	1.666
827.95	1.644
828.12	1.808
828.30	1.432
828.47	1.586
828.65	1.212
828.82	1.252
829.00	1.304
829.17	1.406
829.34	1.408
829.52	1.464
829.69	-0.000
829.87	-0.000
830.04	-0.000
830.22	-0.000
830.39	-0.000
830.57	-0.000
830.74	-0.000
830.92	-0.000
831.09	-0.000
831.26	-0.000
831.44	-0.000
831.61	-0.000
831.79	-0.000
831.96	-0.000
832.14	-0.000
832.31	-0.000
832.49	-0.000
832.66	-0.000
832.83	-0.000
833.01	-0.000
833.18	-0.000
833.36	-0.000
833.53	-0.000
833.70	-0.000
833.88	-0.000
834.05	-0.000
834.23	-0.000
834.40	-0.000
834.58	-0.000
834.75	-0.000
834.92	-0.000
835.10	-0.000
835.27	-0.000
835.45	-0.000
835.62	-0.000
835.79	-0.000
835.97	-0.000
836.14	-0.000
836.32	-0.000
836.49	-0.000
836.66	-0.000
836.84	-0.000
837.01	-0.000
837.18	-0.000
837.36	-0.000
837.53	-0.000
837.71	-0.000
837.88	-0.000
838.05	-0.000
838.23	-0.000
838.40	-0.000
838.58	-0.000
838.75	-0.000
838.92	-0.000
839.10	-0.000
839.27	-0.000
839.44	-0.000
839.62	-0.000
839.79	-0.000
839.96	-0.000
840.14	-0.000
840.31	-0.000
840.48	-0.000
840.66	-0.000
840.83	-0.000
841.01	-0.000
841.18	-0.000
841.35	-0.000
841.53	-0.000
841.70	-0.000
841.87	-0.000
842.05	-0.000
842.22	-0.000
842.39	-0.000
842.57	-0.000
842.74	-0.000
842.91	-0.000
843.09	-0.000
843.26	-0.000
843.43	-0.000
843.60	-0.000
843.78	-0.000
843.95	-0.000
844.12	-0.000
844.30	-0.000
844.47	-0.000
844.64	-0.000
844.82	-0.000
844.99	-0.000
845.16	-0.000
845.34	-0.000
845.51	-0.000
845.68	-0.000
845.85	-0.000
846.03	-0.000
846.20	-0.000
846.37	-0.000
846.55	-0.000
846.72	-0.000
846.89	-0.000
847.06	-0.000
847.24	-0.000
847.41	-0.000
847.58	-0.000
847.76	-0.000
847.93	-0.000
848.10	-0.000
848.27	-0.000
848.45	-0.000
848.62	-0.000
848.79	-0.000
848.97	-0.000
849.14	-0.000
849.31	-0.000
849.48	-0.000
849.66	-0.000
849.83	-0.000
850.00	-0.000
850.17	-0.000
850.35	-0.000
850.52	-0.000
850.69	-0.000
850.86	-0.000
851.04	-0.000
851.21	-0.000
851.38	-0.000
851.55	-0.000
851.72	-0.000
851.90	-0.000
852.07	-0.000
852.24	-0.000
852.41	-0.000
852.59	-0.000
852.76	-0.000
852.93	-0.000
853.10	-0.000
853.28	-0.000
853.45	-0.000
853.62	-0.000
853.79	-0.000
853.96	-0.000
854.14	-0.000
854.31	-0.000
854.48	-0.000
854.65	-0.000
854.82	-0.000
855.00	-0.000
855.17	-0.000
855.34	-0.000
855.51	-0.000
855.68	-0.000
855.86	-0.000
856.03	-0.000
856.20	-0.000
856.37	-0.000
856.54	-0.000
856.72	-0.000
856.89	-0.000
857.06	-0.000
857.23	-0.000
857.40	-0.000
857.57	-0.000
857.75	-0.000
857.92	-0.000
858.09	-0.000
858.26	-0.000
858.43	-0.000
858.60	-0.000
858.78	-0.000
858.95	-0.000
859.12	-0.000
859.29	-0.000
859.46	-0.000
859.63	-0.000
859.81	-0.000
859.98	-0.000
860.15	-0.000
860.32	-0.000
860.49	-0.000
860.66	-0.000
860.83	-0.000
861.01	-0.000
861.18	-0.000
861.35	-0.000
861.52	-0.000
861.69	-0.000
861.86	-0.000
862.03	-0.000
862.21	-0.000
862.38	-0.000
862.55	-0.000
862.72	-0.000
862.89	-0.000
863.06	-0.000
863.23	-0.000
863.40	-0.000
863.58	-0.000
863.75	-0.000
863.92	-0.000
864.09	-0.000
864.26	-0.000
864.43	-0.000
864.60	-0.000
864.77	-0.000
864.94	-0.000
865.11	-0.000
865.29	-0.000
865.46	-0.000
865.63	-0.000
865.80	-0.000
865.97	-0.000
866.14	-0.000
866.31	-0.000
866.48	-0.000
866.65	-0.000
866.82	-0.000
866.99	-0.000
867.16	-0.000
867.34	-0.000
867.51	-0.000
867.68	-0.000
867.85	-0.000
868.02	-0.000
868.19	-0.000
868.36	-0.000
868.53	-0.000
868.70	-0.000
868.87	-0.000
869.04	-0.000
869.21	-0.000
869.38	-0.000
869.55	-0.000
869.72	-0.000
869.89	-0.000
870.06	-0.000
870.24	-0.000
870.41	-0.000
870.58	-0.000
870.75	-0.000
870.92	-0.000
871.09	-0.000
871.26	-0.000
871.43	-0.000
871.60	-0.000
871.77	-0.000
871.94	-0.000
872.11	-0.000
872.28	-0.000
872.45	-0.000
872.62	-0.000
872.79	-0.000
872.96	-0.000
873.13	-0.000
873.30	-0.000
873.47	-0.000
873.64	-0.000
873.81	-0.000
873.98	-0.000
874.15	-0.000
874.32	-0.000
874.49	-0.000
874.66	-0.000
874.83	-0.000
875.00	-0.000
875.17	-0.000
875.34	-0.000
875.51	-0.000
875.68	-0.000
875.85	-0.000
876.02	-0.000
876.19	-0.000
876.36	-0.000
876.53	-0.000
876.70	-0.000
876.87	-0.000
877.04	-0.000
877.21	-0.000
877.38	-0.000
877.55	-0.000
877.72	-0.000
877.89	-0.000
878.06	-0.000
878.23	-0.000
878.39	-0.000
878.56	-0.000
878.73	-0.000
878.90	-0.000
879.07	-0.000
879.24	-0.000
879.41	-0.000
879.58	-0.000
879.75	-0.000
879.92	-0.000
880.09	-0.000
880.26	-0.000
880.43	-0.000
880.60	-0.000
880.77	-0.000
880.94	-0.000
881.11	-0.000
881.27	-0.000
881.44	-0.000
881.61	-0.000
881.78	-0.000
881.95	-0.000
882.12	-0.000
882.29	-0.000
882.46	-0.000
882.63	-0.000
882.80	-0.000
882.97	-0.000
883.14	-0.000
883.30	-0.000
883.47	-0.000
883.64	-0.000
883.81	-0.000
883.98	-0.000
884.15	-0.000
884.32	-0.000
884.49	-0.000
884.66	-0.000
884.82	-0.000
884.99	-0.000
885.16	-0.000
885.33	-0.000
885.50	-0.000
885.67	-0.000
885.84	-0.000
886.01	-0.000
886.17	-0.000
886.34	-0.000
886.51	-0.000
886.68	-0.000
886.85	-0.000
887.02	-0.000
887.19	-0.000
887.36	-0.000
887.52	-0.000
887.69	-0.000
887.86	-0.000
888.03	-0.000
888.20	-0.000
888.37	-0.000
888.54	-0.000
888.70	-0.000
888.87	-0.000
889.04	-0.000
889.21	-0.000
889.38	-0.000
889.55	-0.000
889.71	-0.000
889.88	-0.000
890.05	-0.000
890.22	-0.000
890.39	-0.000
>>>>>End Processed Spectral Data<<<<<
