SpectraSuite Data File
++++++++++++++++++++++++++++++++++++
Date: Fri Jun 19 13:23:56 CEST 2015
User: introlabs
Dark Spectrum Present: Yes
Reference Spectrum Present: Yes
Number of Sampled Component Spectra: 1
Spectrometers: USB4H08886
Integration Time (usec): 745692 (USB4H08886)
Spectra Averaged: 5 (USB4H08886)
Boxcar Smoothing: 5 (USB4H08886)
Correct for Electrical Dark: Yes (USB4H08886)
Strobe/Lamp Enabled: No (USB4H08886)
Correct for Detector Non-linearity: Yes (USB4H08886)
Correct for Stray Light: Yes (USB4H08886)
Number of Pixels in Processed Spectrum: 3648
>>>>>Begin Processed Spectral Data<<<<<
178.14	-0.000
178.36	-0.000
178.57	-0.000
178.79	-0.000
179.01	-0.000
179.22	-0.000
179.44	-0.000
179.65	-0.000
179.87	-0.000
180.08	-0.000
180.30	-0.000
180.52	-0.000
180.73	-0.000
180.95	-0.000
181.16	-0.000
181.38	-0.000
181.59	-0.000
181.81	-0.000
182.03	-0.000
182.24	-0.000
182.46	-0.000
182.67	-0.000
182.89	-0.000
183.10	-0.000
183.32	-0.000
183.54	-0.000
183.75	-0.000
183.97	-0.000
184.18	-0.000
184.40	-0.000
184.61	-0.000
184.83	-0.000
185.04	-0.000
185.26	-0.000
185.48	-0.000
185.69	-0.000
185.91	-0.000
186.12	-0.000
186.34	-0.000
186.55	-0.000
186.77	-0.000
186.98	-0.000
187.20	-0.000
187.42	-0.000
187.63	-0.000
187.85	-0.000
188.06	-0.000
188.28	-0.000
188.49	-0.000
188.71	-0.000
188.92	-0.000
189.14	-0.000
189.36	-0.000
189.57	-0.000
189.79	-0.000
190.00	-0.000
190.22	-0.000
190.43	-0.000
190.65	-0.000
190.86	-0.000
191.08	-0.000
191.29	-0.000
191.51	-0.000
191.72	-0.000
191.94	-0.000
192.16	-0.000
192.37	-0.000
192.59	-0.000
192.80	-0.000
193.02	-0.000
193.23	-0.000
193.45	-0.000
193.66	-0.000
193.88	-0.000
194.09	-0.000
194.31	-0.000
194.52	-0.000
194.74	-0.000
194.95	-0.000
195.17	-0.000
195.38	-0.000
195.60	-0.000
195.81	-0.000
196.03	-0.000
196.25	-0.000
196.46	-0.000
196.68	-0.000
196.89	-0.000
197.11	-0.000
197.32	-0.000
197.54	-0.000
197.75	-0.000
197.97	-0.000
198.18	-0.000
198.40	-0.000
198.61	-0.000
198.83	-0.000
199.04	-0.000
199.26	-0.000
199.47	-0.000
199.69	-0.000
199.90	-0.000
200.12	-0.000
200.33	-0.000
200.55	-0.000
200.76	-0.000
200.98	-0.000
201.19	-0.000
201.41	-0.000
201.62	-0.000
201.84	-0.000
202.05	-0.000
202.27	-0.000
202.48	-0.000
202.70	-0.000
202.91	-0.000
203.13	-0.000
203.34	-0.000
203.56	-0.000
203.77	-0.000
203.99	-0.000
204.20	-0.000
204.42	-0.000
204.63	-0.000
204.85	-0.000
205.06	-0.000
205.28	-0.000
205.49	-0.000
205.71	-0.000
205.92	-0.000
206.14	-0.000
206.35	-0.000
206.56	-0.000
206.78	-0.000
206.99	-0.000
207.21	-0.000
207.42	-0.000
207.64	-0.000
207.85	-0.000
208.07	-0.000
208.28	-0.000
208.50	-0.000
208.71	-0.000
208.93	-0.000
209.14	-0.000
209.36	-0.000
209.57	-0.000
209.79	-0.000
210.00	-0.000
210.22	-0.000
210.43	-0.000
210.64	-0.000
210.86	-0.000
211.07	-0.000
211.29	-0.000
211.50	-0.000
211.72	-0.000
211.93	-0.000
212.15	-0.000
212.36	-0.000
212.58	-0.000
212.79	-0.000
213.01	-0.000
213.22	-0.000
213.43	-0.000
213.65	-0.000
213.86	-0.000
214.08	-0.000
214.29	-0.000
214.51	-0.000
214.72	-0.000
214.94	-0.000
215.15	-0.000
215.36	-0.000
215.58	-0.000
215.79	-0.000
216.01	-0.000
216.22	-0.000
216.44	-0.000
216.65	-0.000
216.87	-0.000
217.08	-0.000
217.29	-0.000
217.51	-0.000
217.72	-0.000
217.94	-0.000
218.15	-0.000
218.37	-0.000
218.58	-0.000
218.80	-0.000
219.01	-0.000
219.22	-0.000
219.44	-0.000
219.65	-0.000
219.87	-0.000
220.08	-0.000
220.30	-0.000
220.51	-0.000
220.72	-0.000
220.94	-0.000
221.15	-0.000
221.37	-0.000
221.58	-0.000
221.79	-0.000
222.01	-0.000
222.22	-0.000
222.44	-0.000
222.65	-0.000
222.87	-0.000
223.08	-0.000
223.29	-0.000
223.51	-0.000
223.72	-0.000
223.94	-0.000
224.15	-0.000
224.36	-0.000
224.58	-0.000
224.79	-0.000
225.01	-0.000
225.22	-0.000
225.44	-0.000
225.65	-0.000
225.86	-0.000
226.08	-0.000
226.29	-0.000
226.51	-0.000
226.72	-0.000
226.93	-0.000
227.15	-0.000
227.36	-0.000
227.58	-0.000
227.79	-0.000
228.00	-0.000
228.22	-0.000
228.43	-0.000
228.65	-0.000
228.86	-0.000
229.07	-0.000
229.29	-0.000
229.50	-0.000
229.72	-0.000
229.93	-0.000
230.14	-0.000
230.36	-0.000
230.57	-0.000
230.78	-0.000
231.00	-0.000
231.21	-0.000
231.43	-0.000
231.64	-0.000
231.85	-0.000
232.07	-0.000
232.28	-0.000
232.50	-0.000
232.71	-0.000
232.92	-0.000
233.14	-0.000
233.35	-0.000
233.56	-0.000
233.78	-0.000
233.99	-0.000
234.21	-0.000
234.42	-0.000
234.63	-0.000
234.85	-0.000
235.06	-0.000
235.27	-0.000
235.49	-0.000
235.70	-0.000
235.91	-0.000
236.13	-0.000
236.34	-0.000
236.56	-0.000
236.77	-0.000
236.98	-0.000
237.20	-0.000
237.41	-0.000
237.62	-0.000
237.84	-0.000
238.05	-0.000
238.26	-0.000
238.48	-0.000
238.69	-0.000
238.91	-0.000
239.12	-0.000
239.33	-0.000
239.55	-0.000
239.76	-0.000
239.97	-0.000
240.19	-0.000
240.40	-0.000
240.61	-0.000
240.83	-0.000
241.04	-0.000
241.25	-0.000
241.47	-0.000
241.68	-0.000
241.89	-0.000
242.11	-0.000
242.32	-0.000
242.53	-0.000
242.75	-0.000
242.96	-0.000
243.17	-0.000
243.39	-0.000
243.60	-0.000
243.81	-0.000
244.03	-0.000
244.24	-0.000
244.45	-0.000
244.67	-0.000
244.88	-0.000
245.09	-0.000
245.31	-0.000
245.52	-0.000
245.73	-0.000
245.95	-0.000
246.16	-0.000
246.37	-0.000
246.59	-0.000
246.80	-0.000
247.01	-0.000
247.23	-0.000
247.44	-0.000
247.65	-0.000
247.87	-0.000
248.08	-0.000
248.29	-0.000
248.51	-0.000
248.72	-0.000
248.93	-0.000
249.15	-0.000
249.36	-0.000
249.57	-0.000
249.78	-0.000
250.00	-0.000
250.21	-0.000
250.42	-0.000
250.64	-0.000
250.85	-0.000
251.06	-0.000
251.28	-0.000
251.49	-0.000
251.70	-0.000
251.92	-0.000
252.13	-0.000
252.34	-0.000
252.55	-0.000
252.77	-0.000
252.98	-0.000
253.19	-0.000
253.41	-0.000
253.62	-0.000
253.83	-0.000
254.05	-0.000
254.26	-0.000
254.47	-0.000
254.68	-0.000
254.90	-0.000
255.11	-0.000
255.32	-0.000
255.54	-0.000
255.75	-0.000
255.96	-0.000
256.17	-0.000
256.39	-0.000
256.60	-0.000
256.81	-0.000
257.03	-0.000
257.24	-0.000
257.45	-0.000
257.66	-0.000
257.88	-0.000
258.09	-0.000
258.30	-0.000
258.51	-0.000
258.73	-0.000
258.94	-0.000
259.15	-0.000
259.37	-0.000
259.58	-0.000
259.79	-0.000
260.00	-0.000
260.22	-0.000
260.43	-0.000
260.64	-0.000
260.85	-0.000
261.07	-0.000
261.28	-0.000
261.49	-0.000
261.71	-0.000
261.92	-0.000
262.13	-0.000
262.34	-0.000
262.56	-0.000
262.77	-0.000
262.98	-0.000
263.19	-0.000
263.41	-0.000
263.62	-0.000
263.83	-0.000
264.04	-0.000
264.26	-0.000
264.47	-0.000
264.68	-0.000
264.89	-0.000
265.11	-0.000
265.32	-0.000
265.53	-0.000
265.74	-0.000
265.96	-0.000
266.17	-0.000
266.38	-0.000
266.59	-0.000
266.81	-0.000
267.02	-0.000
267.23	-0.000
267.44	-0.000
267.65	-0.000
267.87	-0.000
268.08	-0.000
268.29	-0.000
268.50	-0.000
268.72	-0.000
268.93	-0.000
269.14	-0.000
269.35	-0.000
269.57	-0.000
269.78	-0.000
269.99	-0.000
270.20	-0.000
270.41	-0.000
270.63	-0.000
270.84	-0.000
271.05	-0.000
271.26	-0.000
271.48	-0.000
271.69	-0.000
271.90	-0.000
272.11	-0.000
272.32	-0.000
272.54	-0.000
272.75	-0.000
272.96	-0.000
273.17	-0.000
273.39	-0.000
273.60	-0.000
273.81	-0.000
274.02	-0.000
274.23	-0.000
274.45	-0.000
274.66	-0.000
274.87	-0.000
275.08	-0.000
275.29	-0.000
275.51	-0.000
275.72	-0.000
275.93	-0.000
276.14	-0.000
276.35	-0.000
276.57	-0.000
276.78	-0.000
276.99	-0.000
277.20	-0.000
277.41	-0.000
277.63	-0.000
277.84	-0.000
278.05	-0.000
278.26	-0.000
278.47	-0.000
278.69	-0.000
278.90	-0.000
279.11	-0.000
279.32	-0.000
279.53	-0.000
279.74	-0.000
279.96	-0.000
280.17	-0.000
280.38	-0.000
280.59	-0.000
280.80	-0.000
281.02	-0.000
281.23	-0.000
281.44	-0.000
281.65	-0.000
281.86	-0.000
282.07	-0.000
282.29	-0.000
282.50	-0.000
282.71	-0.000
282.92	-0.000
283.13	-0.000
283.35	-0.000
283.56	-0.000
283.77	-0.000
283.98	-0.000
284.19	-0.000
284.40	-0.000
284.62	-0.000
284.83	-0.000
285.04	-0.000
285.25	-0.000
285.46	-0.000
285.67	-0.000
285.88	-0.000
286.10	-0.000
286.31	-0.000
286.52	-0.000
286.73	-0.000
286.94	-0.000
287.15	-0.000
287.37	-0.000
287.58	-0.000
287.79	-0.000
288.00	-0.000
288.21	-0.000
288.42	-0.000
288.63	-0.000
288.85	-0.000
289.06	-0.000
289.27	-0.000
289.48	-0.000
289.69	-0.000
289.90	-0.000
290.11	-0.000
290.33	-0.000
290.54	-0.000
290.75	-0.000
290.96	-0.000
291.17	-0.000
291.38	-0.000
291.59	-0.000
291.81	-0.000
292.02	-0.000
292.23	-0.000
292.44	-0.000
292.65	-0.000
292.86	-0.000
293.07	-0.000
293.28	-0.000
293.50	-0.000
293.71	-0.000
293.92	-0.000
294.13	-0.000
294.34	-0.000
294.55	-0.000
294.76	-0.000
294.97	-0.000
295.19	-0.000
295.40	-0.000
295.61	-0.000
295.82	-0.000
296.03	-0.000
296.24	-0.000
296.45	-0.000
296.66	2.877
296.87	2.899
297.09	-0.000
297.30	-0.000
297.51	2.273
297.72	2.165
297.93	2.769
298.14	2.473
298.35	2.233
298.56	2.113
298.77	2.720
298.99	2.523
299.20	2.343
299.41	2.213
299.62	2.114
299.83	2.074
300.04	1.902
300.25	1.884
300.46	2.007
300.67	1.950
300.88	1.829
301.10	1.828
301.31	2.015
301.52	1.872
301.73	1.756
301.94	1.748
302.15	1.784
302.36	1.693
302.57	1.587
302.78	1.591
302.99	1.660
303.20	1.698
303.41	1.555
303.63	1.522
303.84	1.533
304.05	1.525
304.26	1.443
304.47	1.443
304.68	1.455
304.89	1.436
305.10	1.380
305.31	1.360
305.52	1.408
305.73	1.398
305.94	1.347
306.15	1.338
306.37	1.362
306.58	1.372
306.79	1.335
307.00	1.358
307.21	1.412
307.42	1.400
307.63	1.353
307.84	1.313
308.05	1.359
308.26	1.360
308.47	1.331
308.68	1.327
308.89	1.328
309.10	1.324
309.31	1.276
309.52	1.265
309.73	1.284
309.95	1.280
310.16	1.245
310.37	1.232
310.58	1.251
310.79	1.247
311.00	1.239
311.21	1.239
311.42	1.244
311.63	1.236
311.84	1.211
312.05	1.209
312.26	1.233
312.47	1.247
312.68	1.216
312.89	1.198
313.10	1.207
313.31	1.176
313.52	1.174
313.73	1.172
313.94	1.176
314.15	1.154
314.36	1.129
314.57	1.123
314.78	1.111
314.99	1.106
315.21	1.091
315.42	1.097
315.63	1.113
315.84	1.090
316.05	1.076
316.26	1.084
316.47	1.109
316.68	1.104
316.89	1.081
317.10	1.102
317.31	1.107
317.52	1.107
317.73	1.085
317.94	1.083
318.15	1.130
318.36	1.130
318.57	1.109
318.78	1.095
318.99	1.133
319.20	1.129
319.41	1.092
319.62	1.093
319.83	1.108
320.04	1.101
320.25	1.087
320.46	1.051
320.67	1.054
320.88	1.050
321.09	1.035
321.30	1.021
321.51	1.037
321.72	1.035
321.93	1.019
322.14	1.011
322.35	1.039
322.56	1.040
322.77	1.026
322.98	1.039
323.19	1.048
323.40	1.053
323.61	1.029
323.82	1.024
324.03	1.031
324.24	1.029
324.45	1.015
324.66	0.994
324.87	0.991
325.08	0.990
325.29	0.967
325.50	0.959
325.71	0.965
325.92	0.972
326.13	0.958
326.34	0.959
326.55	0.966
326.76	0.964
326.97	0.954
327.18	0.948
327.39	0.973
327.60	0.976
327.80	0.977
328.01	0.974
328.22	0.974
328.43	0.977
328.64	0.963
328.85	0.967
329.06	0.969
329.27	0.967
329.48	0.963
329.69	0.945
329.90	0.954
330.11	0.947
330.32	0.940
330.53	0.934
330.74	0.934
330.95	0.932
331.16	0.917
331.37	0.925
331.58	0.925
331.79	0.925
332.00	0.915
332.21	0.909
332.42	0.914
332.63	0.904
332.83	0.899
333.04	0.901
333.25	0.913
333.46	0.910
333.67	0.896
333.88	0.899
334.09	0.910
334.30	0.906
334.51	0.897
334.72	0.893
334.93	0.898
335.14	0.897
335.35	0.889
335.56	0.886
335.77	0.895
335.98	0.893
336.18	0.886
336.39	0.879
336.60	0.883
336.81	0.881
337.02	0.879
337.23	0.884
337.44	0.887
337.65	0.888
337.86	0.877
338.07	0.873
338.28	0.878
338.49	0.876
338.70	0.868
338.91	0.875
339.11	0.883
339.32	0.879
339.53	0.867
339.74	0.863
339.95	0.860
340.16	0.858
340.37	0.850
340.58	0.848
340.79	0.852
341.00	0.852
341.21	0.840
341.41	0.841
341.62	0.843
341.83	0.844
342.04	0.840
342.25	0.850
342.46	0.855
342.67	0.853
342.88	0.846
343.09	0.845
343.30	0.852
343.50	0.856
343.71	0.845
343.92	0.843
344.13	0.848
344.34	0.847
344.55	0.830
344.76	0.829
344.97	0.834
345.18	0.833
345.38	0.829
345.59	0.824
345.80	0.823
346.01	0.821
346.22	0.816
346.43	0.811
346.64	0.821
346.85	0.820
347.06	0.813
347.26	0.814
347.47	0.817
347.68	0.813
347.89	0.809
348.10	0.804
348.31	0.811
348.52	0.810
348.73	0.806
348.93	0.802
349.14	0.804
349.35	0.803
349.56	0.797
349.77	0.792
349.98	0.798
350.19	0.796
350.39	0.791
350.60	0.787
350.81	0.803
351.02	0.802
351.23	0.797
351.44	0.800
351.65	0.804
351.86	0.802
352.06	0.800
352.27	0.799
352.48	0.801
352.69	0.801
352.90	0.795
353.11	0.781
353.31	0.788
353.52	0.784
353.73	0.775
353.94	0.776
354.15	0.782
354.36	0.782
354.57	0.774
354.77	0.776
354.98	0.776
355.19	0.776
355.40	0.776
355.61	0.782
355.82	0.786
356.02	0.787
356.23	0.779
356.44	0.780
356.65	0.784
356.86	0.785
357.07	0.778
357.27	0.781
357.48	0.784
357.69	0.778
357.90	0.763
358.11	0.760
358.32	0.763
358.52	0.767
358.73	0.757
358.94	0.758
359.15	0.763
359.36	0.764
359.56	0.758
359.77	0.755
359.98	0.762
360.19	0.762
360.40	0.758
360.61	0.758
360.81	0.758
361.02	0.759
361.23	0.751
361.44	0.749
361.65	0.750
361.85	0.750
362.06	0.748
362.27	0.751
362.48	0.752
362.69	0.754
362.89	0.748
363.10	0.750
363.31	0.754
363.52	0.758
363.73	0.752
363.93	0.753
364.14	0.755
364.35	0.757
364.56	0.746
364.77	0.748
364.97	0.750
365.18	0.751
365.39	0.745
365.60	0.742
365.81	0.743
366.01	0.744
366.22	0.740
366.43	0.739
366.64	0.740
366.84	0.747
367.05	0.743
367.26	0.743
367.47	0.745
367.68	0.745
367.88	0.741
368.09	0.740
368.30	0.742
368.51	0.742
368.71	0.740
368.92	0.744
369.13	0.741
369.34	0.740
369.55	0.738
369.75	0.738
369.96	0.746
370.17	0.746
370.38	0.742
370.58	0.742
370.79	0.747
371.00	0.746
371.21	0.738
371.41	0.744
371.62	0.749
371.83	0.744
372.04	0.741
372.24	0.734
372.45	0.737
372.66	0.736
372.87	0.732
373.07	0.728
373.28	0.730
373.49	0.733
373.70	0.723
373.90	0.722
374.11	0.732
374.32	0.731
374.53	0.729
374.73	0.729
374.94	0.732
375.15	0.733
375.36	0.730
375.56	0.738
375.77	0.738
375.98	0.739
376.19	0.735
376.39	0.729
376.60	0.733
376.81	0.733
377.02	0.729
377.22	0.729
377.43	0.729
377.64	0.729
377.84	0.721
378.05	0.725
378.26	0.731
378.47	0.730
378.67	0.726
378.88	0.723
379.09	0.725
379.30	0.725
379.50	0.721
379.71	0.723
379.92	0.727
380.12	0.726
380.33	0.717
380.54	0.714
380.75	0.722
380.95	0.722
381.16	0.721
381.37	0.721
381.57	0.723
381.78	0.723
381.99	0.723
382.20	0.723
382.40	0.726
382.61	0.726
382.82	0.721
383.02	0.714
383.23	0.716
383.44	0.716
383.64	0.714
383.85	0.717
384.06	0.720
384.27	0.717
384.47	0.715
384.68	0.715
384.89	0.721
385.09	0.721
385.30	0.720
385.51	0.719
385.71	0.723
385.92	0.723
386.13	0.721
386.33	0.723
386.54	0.724
386.75	0.723
386.95	0.718
387.16	0.714
387.37	0.717
387.58	0.716
387.78	0.714
387.99	0.712
388.20	0.714
388.40	0.711
388.61	0.706
388.82	0.709
389.02	0.713
389.23	0.713
389.44	0.711
389.64	0.711
389.85	0.722
390.06	0.722
390.26	0.722
390.47	0.721
390.68	0.723
390.88	0.722
391.09	0.717
391.30	0.716
391.50	0.716
391.71	0.716
391.92	0.713
392.12	0.706
392.33	0.706
392.53	0.705
392.74	0.705
392.95	0.703
393.15	0.706
393.36	0.708
393.57	0.705
393.77	0.708
393.98	0.709
394.19	0.709
394.39	0.708
394.60	0.709
394.81	0.711
395.01	0.710
395.22	0.709
395.43	0.710
395.63	0.714
395.84	0.716
396.04	0.711
396.25	0.713
396.46	0.715
396.66	0.713
396.87	0.710
397.08	0.708
397.28	0.709
397.49	0.711
397.69	0.707
397.90	0.702
398.11	0.703
398.31	0.704
398.52	0.700
398.73	0.701
398.93	0.700
399.14	0.699
399.34	0.697
399.55	0.698
399.76	0.698
399.96	0.699
400.17	0.697
400.37	0.695
400.58	0.701
400.79	0.703
400.99	0.700
401.20	0.705
401.41	0.707
401.61	0.709
401.82	0.713
402.02	0.713
402.23	0.715
402.44	0.715
402.64	0.714
402.85	0.709
403.05	0.709
403.26	0.708
403.47	0.702
403.67	0.701
403.88	0.702
404.08	0.696
404.29	0.694
404.50	0.693
404.70	0.693
404.91	0.693
405.11	0.689
405.32	0.690
405.52	0.690
405.73	0.689
405.94	0.688
406.14	0.690
406.35	0.693
406.55	0.692
406.76	0.689
406.97	0.690
407.17	0.693
407.38	0.693
407.58	0.690
407.79	0.693
407.99	0.696
408.20	0.696
408.41	0.691
408.61	0.689
408.82	0.690
409.02	0.690
409.23	0.688
409.43	0.687
409.64	0.688
409.84	0.688
410.05	0.684
410.26	0.682
410.46	0.682
410.67	0.682
410.87	0.683
411.08	0.685
411.28	0.687
411.49	0.688
411.69	0.686
411.90	0.688
412.11	0.689
412.31	0.691
412.52	0.689
412.72	0.690
412.93	0.691
413.13	0.690
413.34	0.686
413.54	0.687
413.75	0.690
413.95	0.689
414.16	0.685
414.37	0.688
414.57	0.688
414.78	0.691
414.98	0.688
415.19	0.689
415.39	0.687
415.60	0.689
415.80	0.688
416.01	0.686
416.21	0.687
416.42	0.687
416.62	0.682
416.83	0.683
417.03	0.682
417.24	0.682
417.44	0.680
417.65	0.680
417.86	0.681
418.06	0.679
418.27	0.677
418.47	0.679
418.68	0.680
418.88	0.681
419.09	0.679
419.29	0.679
419.50	0.680
419.70	0.680
419.91	0.678
420.11	0.675
420.32	0.678
420.52	0.677
420.73	0.676
420.93	0.677
421.14	0.679
421.34	0.678
421.55	0.674
421.75	0.674
421.96	0.675
422.16	0.675
422.37	0.674
422.57	0.671
422.78	0.672
422.98	0.669
423.19	0.667
423.39	0.665
423.60	0.669
423.80	0.670
424.01	0.669
424.21	0.671
424.42	0.672
424.62	0.673
424.83	0.672
425.03	0.672
425.23	0.674
425.44	0.674
425.64	0.675
425.85	0.673
426.05	0.675
426.26	0.675
426.46	0.671
426.67	0.671
426.87	0.676
427.08	0.677
427.28	0.675
427.49	0.676
427.69	0.678
427.90	0.676
428.10	0.673
428.31	0.673
428.51	0.674
428.71	0.674
428.92	0.675
429.12	0.671
429.33	0.672
429.53	0.676
429.74	0.680
429.94	0.680
430.15	0.680
430.35	0.680
430.56	0.677
430.76	0.677
430.96	0.677
431.17	0.675
431.37	0.672
431.58	0.670
431.78	0.667
431.99	0.660
432.19	0.662
432.40	0.664
432.60	0.665
432.80	0.667
433.01	0.665
433.21	0.665
433.42	0.667
433.62	0.668
433.83	0.667
434.03	0.670
434.23	0.673
434.44	0.672
434.64	0.669
434.85	0.674
435.05	0.675
435.26	0.676
435.46	0.674
435.66	0.674
435.87	0.674
436.07	0.674
436.28	0.670
436.48	0.667
436.69	0.666
436.89	0.667
437.09	0.661
437.30	0.660
437.50	0.660
437.71	0.672
437.91	0.671
438.11	0.673
438.32	0.677
438.52	0.677
438.73	0.677
438.93	0.676
439.13	0.676
439.34	0.679
439.54	0.677
439.75	0.677
439.95	0.668
440.15	0.672
440.36	0.670
440.56	0.668
440.77	0.669
440.97	0.669
441.17	0.667
441.38	0.668
441.58	0.665
441.79	0.665
441.99	0.663
442.19	0.662
442.40	0.659
442.60	0.660
442.81	0.657
443.01	0.657
443.21	0.659
443.42	0.659
443.62	0.658
443.82	0.657
444.03	0.659
444.23	0.659
444.44	0.660
444.64	0.659
444.84	0.660
445.05	0.660
445.25	0.658
445.45	0.657
445.66	0.659
445.86	0.658
446.06	0.660
446.27	0.659
446.47	0.662
446.68	0.661
446.88	0.659
447.08	0.659
447.29	0.661
447.49	0.660
447.69	0.660
447.90	0.659
448.10	0.663
448.30	0.660
448.51	0.661
448.71	0.659
448.91	0.662
449.12	0.661
449.32	0.662
449.52	0.661
449.73	0.665
449.93	0.664
450.14	0.665
450.34	0.664
450.54	0.667
450.75	0.664
450.95	0.663
451.15	0.662
451.36	0.665
451.56	0.662
451.76	0.661
451.97	0.658
452.17	0.659
452.37	0.657
452.58	0.654
452.78	0.653
452.98	0.656
453.19	0.655
453.39	0.656
453.59	0.655
453.79	0.656
454.00	0.656
454.20	0.655
454.40	0.656
454.61	0.659
454.81	0.660
455.01	0.658
455.22	0.659
455.42	0.661
455.62	0.659
455.83	0.659
456.03	0.662
456.23	0.663
456.44	0.663
456.64	0.661
456.84	0.661
457.04	0.662
457.25	0.661
457.45	0.658
457.65	0.656
457.86	0.657
458.06	0.655
458.26	0.651
458.47	0.650
458.67	0.652
458.87	0.652
459.07	0.649
459.28	0.651
459.48	0.654
459.68	0.655
459.89	0.655
460.09	0.654
460.29	0.655
460.49	0.656
460.70	0.656
460.90	0.656
461.10	0.657
461.31	0.657
461.51	0.654
461.71	0.654
461.91	0.656
462.12	0.656
462.32	0.655
462.52	0.655
462.72	0.659
462.93	0.659
463.13	0.657
463.33	0.658
463.53	0.660
463.74	0.659
463.94	0.655
464.14	0.655
464.35	0.657
464.55	0.657
464.75	0.656
464.95	0.653
465.16	0.654
465.36	0.653
465.56	0.652
465.76	0.651
465.97	0.652
466.17	0.653
466.37	0.651
466.57	0.652
466.78	0.652
466.98	0.652
467.18	0.650
467.38	0.649
467.59	0.651
467.79	0.652
467.99	0.651
468.19	0.652
468.39	0.655
468.60	0.655
468.80	0.652
469.00	0.654
469.20	0.656
469.41	0.656
469.61	0.655
469.81	0.656
470.01	0.655
470.22	0.656
470.42	0.654
470.62	0.652
470.82	0.653
471.02	0.653
471.23	0.651
471.43	0.651
471.63	0.653
471.83	0.653
472.04	0.651
472.24	0.650
472.44	0.656
472.64	0.656
472.84	0.654
473.05	0.654
473.25	0.657
473.45	0.655
473.65	0.654
473.85	0.654
474.06	0.656
474.26	0.655
474.46	0.656
474.66	0.653
474.86	0.654
475.07	0.654
475.27	0.651
475.47	0.648
475.67	0.650
475.87	0.651
476.08	0.648
476.28	0.649
476.48	0.650
476.68	0.649
476.88	0.647
477.09	0.648
477.29	0.650
477.49	0.651
477.69	0.650
477.89	0.650
478.09	0.649
478.30	0.651
478.50	0.648
478.70	0.648
478.90	0.648
479.10	0.650
479.31	0.651
479.51	0.649
479.71	0.650
479.91	0.650
480.11	0.649
480.31	0.649
480.52	0.648
480.72	0.649
480.92	0.648
481.12	0.647
481.32	0.645
481.52	0.643
481.72	0.643
481.93	0.646
482.13	0.647
482.33	0.646
482.53	0.644
482.73	0.644
482.93	0.645
483.14	0.644
483.34	0.643
483.54	0.644
483.74	0.644
483.94	0.643
484.14	0.639
484.34	0.638
484.55	0.638
484.75	0.638
484.95	0.636
485.15	0.636
485.35	0.637
485.55	0.637
485.75	0.634
485.96	0.635
486.16	0.637
486.36	0.636
486.56	0.634
486.76	0.635
486.96	0.636
487.16	0.635
487.36	0.633
487.57	0.633
487.77	0.633
487.97	0.633
488.17	0.631
488.37	0.630
488.57	0.631
488.77	0.632
488.97	0.630
489.18	0.629
489.38	0.632
489.58	0.633
489.78	0.632
489.98	0.632
490.18	0.633
490.38	0.633
490.58	0.632
490.78	0.632
490.98	0.634
491.19	0.634
491.39	0.634
491.59	0.632
491.79	0.635
491.99	0.635
492.19	0.635
492.39	0.638
492.59	0.638
492.79	0.641
492.99	0.640
493.20	0.640
493.40	0.641
493.60	0.642
493.80	0.640
494.00	0.638
494.20	0.638
494.40	0.638
494.60	0.636
494.80	0.640
495.00	0.639
495.20	0.637
495.40	0.636
495.61	0.638
495.81	0.638
496.01	0.641
496.21	0.642
496.41	0.642
496.61	0.642
496.81	0.641
497.01	0.636
497.21	0.635
497.41	0.636
497.61	0.636
497.81	0.633
498.01	0.633
498.21	0.631
498.41	0.630
498.61	0.630
498.82	0.631
499.02	0.633
499.22	0.634
499.42	0.633
499.62	0.634
499.82	0.636
500.02	0.637
500.22	0.635
500.42	0.636
500.62	0.637
500.82	0.637
501.02	0.635
501.22	0.635
501.42	0.635
501.62	0.637
501.82	0.636
502.02	0.636
502.22	0.636
502.42	0.638
502.62	0.635
502.82	0.636
503.02	0.636
503.22	0.636
503.42	0.634
503.63	0.634
503.83	0.632
504.03	0.631
504.23	0.630
504.43	0.630
504.63	0.632
504.83	0.631
505.03	0.630
505.23	0.632
505.43	0.634
505.63	0.635
505.83	0.635
506.03	0.637
506.23	0.639
506.43	0.639
506.63	0.638
506.83	0.636
507.03	0.639
507.23	0.639
507.43	0.636
507.63	0.637
507.83	0.637
508.03	0.637
508.23	0.636
508.43	0.635
508.63	0.637
508.83	0.637
509.03	0.638
509.23	0.637
509.43	0.638
509.63	0.638
509.83	0.637
510.03	0.639
510.23	0.641
510.43	0.642
510.63	0.642
510.83	0.642
511.03	0.644
511.23	0.641
511.43	0.641
511.63	0.642
511.83	0.646
512.03	0.645
512.22	0.642
512.42	0.642
512.62	0.643
512.82	0.642
513.02	0.641
513.22	0.641
513.42	0.643
513.62	0.646
513.82	0.643
514.02	0.642
514.22	0.644
514.42	0.644
514.62	0.643
514.82	0.644
515.02	0.646
515.22	0.650
515.42	0.649
515.62	0.651
515.82	0.650
516.02	0.652
516.22	0.652
516.42	0.653
516.62	0.654
516.82	0.656
517.01	0.654
517.21	0.653
517.41	0.656
517.61	0.657
517.81	0.653
518.01	0.653
518.21	0.653
518.41	0.651
518.61	0.650
518.81	0.651
519.01	0.652
519.21	0.652
519.41	0.651
519.61	0.646
519.81	0.648
520.00	0.648
520.20	0.648
520.40	0.651
520.60	0.652
520.80	0.652
521.00	0.652
521.20	0.653
521.40	0.658
521.60	0.658
521.80	0.657
522.00	0.657
522.20	0.660
522.39	0.660
522.59	0.657
522.79	0.659
522.99	0.661
523.19	0.659
523.39	0.657
523.59	0.655
523.79	0.658
523.99	0.660
524.19	0.658
524.38	0.657
524.58	0.659
524.78	0.658
524.98	0.656
525.18	0.658
525.38	0.659
525.58	0.660
525.78	0.658
525.98	0.657
526.18	0.657
526.37	0.657
526.57	0.658
526.77	0.658
526.97	0.659
527.17	0.659
527.37	0.654
527.57	0.658
527.77	0.659
527.96	0.660
528.16	0.658
528.36	0.659
528.56	0.661
528.76	0.659
528.96	0.658
529.16	0.659
529.36	0.662
529.55	0.663
529.75	0.659
529.95	0.659
530.15	0.660
530.35	0.663
530.55	0.659
530.75	0.661
530.94	0.662
531.14	0.662
531.34	0.660
531.54	0.658
531.74	0.661
531.94	0.664
532.13	0.662
532.33	0.664
532.53	0.663
532.73	0.663
532.93	0.661
533.13	0.662
533.33	0.662
533.52	0.663
533.72	0.667
533.92	0.664
534.12	0.663
534.32	0.663
534.52	0.661
534.71	0.663
534.91	0.666
535.11	0.667
535.31	0.665
535.51	0.667
535.71	0.668
535.90	0.666
536.10	0.667
536.30	0.669
536.50	0.670
536.70	0.669
536.89	0.667
537.09	0.666
537.29	0.669
537.49	0.669
537.69	0.667
537.89	0.668
538.08	0.668
538.28	0.666
538.48	0.666
538.68	0.668
538.88	0.670
539.07	0.670
539.27	0.668
539.47	0.668
539.67	0.668
539.87	0.670
540.06	0.667
540.26	0.667
540.46	0.669
540.66	0.667
540.86	0.664
541.05	0.664
541.25	0.666
541.45	0.666
541.65	0.663
541.84	0.665
542.04	0.666
542.24	0.667
542.44	0.666
542.64	0.668
542.83	0.671
543.03	0.672
543.23	0.669
543.43	0.670
543.62	0.672
543.82	0.672
544.02	0.671
544.22	0.671
544.42	0.674
544.61	0.674
544.81	0.671
545.01	0.669
545.21	0.671
545.40	0.671
545.60	0.669
545.80	0.673
546.00	0.673
546.19	0.672
546.39	0.670
546.59	0.668
546.79	0.669
546.98	0.670
547.18	0.670
547.38	0.670
547.58	0.673
547.77	0.673
547.97	0.669
548.17	0.671
548.37	0.672
548.56	0.673
548.76	0.672
548.96	0.674
549.16	0.677
549.35	0.676
549.55	0.674
549.75	0.675
549.95	0.679
550.14	0.679
550.34	0.677
550.54	0.682
550.73	0.685
550.93	0.686
551.13	0.682
551.33	0.680
551.52	0.681
551.72	0.681
551.92	0.678
552.12	0.679
552.31	0.679
552.51	0.679
552.71	0.675
552.90	0.675
553.10	0.676
553.30	0.677
553.50	0.676
553.69	0.677
553.89	0.678
554.09	0.679
554.28	0.676
554.48	0.677
554.68	0.680
554.87	0.680
555.07	0.676
555.27	0.676
555.47	0.678
555.66	0.679
555.86	0.677
556.06	0.679
556.25	0.681
556.45	0.689
556.65	0.687
556.84	0.690
557.04	0.694
557.24	0.695
557.43	0.695
557.63	0.697
557.83	0.700
558.02	0.700
558.22	0.704
558.42	0.703
558.61	0.696
558.81	0.697
559.01	0.693
559.21	0.692
559.40	0.693
559.60	0.693
559.80	0.690
559.99	0.690
560.19	0.692
560.39	0.686
560.58	0.683
560.78	0.683
560.97	0.687
561.17	0.686
561.37	0.683
561.56	0.684
561.76	0.685
561.96	0.685
562.15	0.683
562.35	0.685
562.55	0.688
562.74	0.688
562.94	0.687
563.14	0.685
563.33	0.686
563.53	0.687
563.73	0.684
563.92	0.685
564.12	0.689
564.31	0.691
564.51	0.689
564.71	0.690
564.90	0.693
565.10	0.694
565.30	0.696
565.49	0.696
565.69	0.699
565.89	0.699
566.08	0.696
566.28	0.697
566.47	0.699
566.67	0.697
566.87	0.693
567.06	0.695
567.26	0.702
567.46	0.697
567.65	0.695
567.85	0.697
568.04	0.700
568.24	0.699
568.44	0.696
568.63	0.694
568.83	0.696
569.02	0.695
569.22	0.690
569.42	0.686
569.61	0.689
569.81	0.688
570.00	0.685
570.20	0.686
570.40	0.688
570.59	0.688
570.79	0.685
570.98	0.683
571.18	0.684
571.38	0.683
571.57	0.680
571.77	0.678
571.96	0.682
572.16	0.679
572.35	0.674
572.55	0.675
572.75	0.674
572.94	0.674
573.14	0.672
573.33	0.673
573.53	0.674
573.73	0.673
573.92	0.671
574.12	0.668
574.31	0.671
574.51	0.672
574.70	0.669
574.90	0.670
575.09	0.673
575.29	0.673
575.49	0.670
575.68	0.670
575.88	0.672
576.07	0.673
576.27	0.672
576.46	0.670
576.66	0.670
576.86	0.669
577.05	0.667
577.25	0.665
577.44	0.668
577.64	0.668
577.83	0.666
578.03	0.667
578.22	0.666
578.42	0.665
578.61	0.663
578.81	0.664
579.00	0.665
579.20	0.664
579.40	0.663
579.59	0.661
579.79	0.661
579.98	0.661
580.18	0.660
580.37	0.661
580.57	0.663
580.76	0.667
580.96	0.665
581.15	0.666
581.35	0.668
581.54	0.668
581.74	0.667
581.93	0.668
582.13	0.670
582.32	0.666
582.52	0.665
582.71	0.664
582.91	0.661
583.10	0.661
583.30	0.660
583.49	0.659
583.69	0.663
583.88	0.664
584.08	0.663
584.27	0.665
584.47	0.669
584.66	0.669
584.86	0.668
585.05	0.670
585.25	0.672
585.44	0.672
585.64	0.671
585.83	0.668
586.03	0.669
586.22	0.667
586.42	0.663
586.61	0.665
586.81	0.668
587.00	0.668
587.20	0.666
587.39	0.667
587.59	0.668
587.78	0.669
587.98	0.669
588.17	0.670
588.37	0.672
588.56	0.674
588.76	0.669
588.95	0.669
589.15	0.673
589.34	0.675
589.54	0.673
589.73	0.674
589.92	0.678
590.12	0.678
590.31	0.676
590.51	0.681
590.70	0.683
590.90	0.684
591.09	0.681
591.29	0.680
591.48	0.680
591.68	0.681
591.87	0.679
592.06	0.679
592.26	0.681
592.45	0.681
592.65	0.674
592.84	0.673
593.04	0.676
593.23	0.679
593.43	0.677
593.62	0.675
593.81	0.676
594.01	0.675
594.20	0.672
594.40	0.671
594.59	0.673
594.79	0.675
594.98	0.673
595.17	0.672
595.37	0.672
595.56	0.674
595.76	0.674
595.95	0.676
596.14	0.679
596.34	0.680
596.53	0.679
596.73	0.680
596.92	0.681
597.12	0.684
597.31	0.683
597.50	0.683
597.70	0.686
597.89	0.685
598.09	0.681
598.28	0.682
598.47	0.685
598.67	0.684
598.86	0.680
599.06	0.682
599.25	0.683
599.44	0.681
599.64	0.678
599.83	0.675
600.03	0.679
600.22	0.679
600.41	0.679
600.61	0.677
600.80	0.680
601.00	0.680
601.19	0.676
601.38	0.675
601.58	0.678
601.77	0.679
601.96	0.680
602.16	0.680
602.35	0.689
602.55	0.686
602.74	0.687
602.93	0.688
603.13	0.693
603.32	0.695
603.51	0.694
603.71	0.697
603.90	0.699
604.09	0.699
604.29	0.696
604.48	0.691
604.68	0.692
604.87	0.691
605.06	0.687
605.26	0.684
605.45	0.684
605.64	0.683
605.84	0.679
606.03	0.678
606.22	0.678
606.42	0.677
606.61	0.673
606.80	0.673
607.00	0.675
607.19	0.675
607.38	0.674
607.58	0.675
607.77	0.679
607.96	0.678
608.16	0.677
608.35	0.681
608.54	0.684
608.74	0.688
608.93	0.693
609.12	0.696
609.32	0.699
609.51	0.703
609.70	0.701
609.90	0.703
610.09	0.708
610.28	0.713
610.48	0.707
610.67	0.708
610.86	0.708
611.06	0.703
611.25	0.701
611.44	0.701
611.64	0.701
611.83	0.704
612.02	0.700
612.21	0.698
612.41	0.697
612.60	0.697
612.79	0.692
612.99	0.692
613.18	0.694
613.37	0.692
613.57	0.688
613.76	0.690
613.95	0.688
614.14	0.687
614.34	0.685
614.53	0.686
614.72	0.690
614.92	0.690
615.11	0.687
615.30	0.683
615.49	0.686
615.69	0.689
615.88	0.684
616.07	0.686
616.26	0.689
616.46	0.689
616.65	0.686
616.84	0.685
617.04	0.687
617.23	0.690
617.42	0.691
617.61	0.694
617.81	0.695
618.00	0.697
618.19	0.695
618.38	0.698
618.58	0.702
618.77	0.703
618.96	0.701
619.15	0.703
619.35	0.704
619.54	0.705
619.73	0.701
619.92	0.703
620.12	0.707
620.31	0.707
620.50	0.702
620.69	0.703
620.89	0.706
621.08	0.707
621.27	0.707
621.46	0.706
621.66	0.711
621.85	0.710
622.04	0.707
622.23	0.708
622.43	0.709
622.62	0.709
622.81	0.708
623.00	0.706
623.19	0.710
623.39	0.708
623.58	0.705
623.77	0.703
623.96	0.705
624.16	0.706
624.35	0.700
624.54	0.703
624.73	0.708
624.92	0.706
625.12	0.703
625.31	0.704
625.50	0.707
625.69	0.708
625.88	0.705
626.08	0.705
626.27	0.707
626.46	0.708
626.65	0.704
626.84	0.703
627.04	0.709
627.23	0.709
627.42	0.705
627.61	0.708
627.80	0.711
628.00	0.711
628.19	0.709
628.38	0.712
628.57	0.715
628.76	0.715
628.96	0.711
629.15	0.712
629.34	0.714
629.53	0.714
629.72	0.708
629.91	0.709
630.11	0.714
630.30	0.714
630.49	0.717
630.68	0.717
630.87	0.722
631.06	0.725
631.26	0.719
631.45	0.722
631.64	0.731
631.83	0.733
632.02	0.730
632.21	0.729
632.41	0.736
632.60	0.730
632.79	0.728
632.98	0.728
633.17	0.729
633.36	0.731
633.55	0.726
633.75	0.722
633.94	0.725
634.13	0.725
634.32	0.721
634.51	0.716
634.70	0.720
634.89	0.719
635.09	0.715
635.28	0.716
635.47	0.717
635.66	0.720
635.85	0.715
636.04	0.717
636.23	0.722
636.43	0.724
636.62	0.722
636.81	0.720
637.00	0.723
637.19	0.727
637.38	0.723
637.57	0.722
637.76	0.724
637.95	0.726
638.15	0.722
638.34	0.719
638.53	0.722
638.72	0.723
638.91	0.720
639.10	0.717
639.29	0.718
639.48	0.719
639.67	0.719
639.87	0.716
640.06	0.723
640.25	0.722
640.44	0.723
640.63	0.723
640.82	0.726
641.01	0.726
641.20	0.726
641.39	0.727
641.58	0.729
641.78	0.727
641.97	0.724
642.16	0.738
642.35	0.739
642.54	0.737
642.73	0.731
642.92	0.730
643.11	0.733
643.30	0.734
643.49	0.728
643.68	0.732
643.87	0.735
644.06	0.735
644.25	0.714
644.45	0.717
644.64	0.718
644.83	0.720
645.02	0.716
645.21	0.716
645.40	0.718
645.59	0.719
645.78	0.712
645.97	0.714
646.16	0.715
646.35	0.715
646.54	0.712
646.73	0.714
646.92	0.716
647.11	0.715
647.30	0.710
647.49	0.711
647.68	0.710
647.88	0.708
648.07	0.702
648.26	0.705
648.45	0.708
648.64	0.703
648.83	0.701
649.02	0.703
649.21	0.713
649.40	0.712
649.59	0.707
649.78	0.710
649.97	0.725
650.16	0.724
650.35	0.717
650.54	0.720
650.73	0.729
650.92	0.725
651.11	0.719
651.30	0.717
651.49	0.723
651.68	0.723
651.87	0.719
652.06	0.708
652.25	0.712
652.44	0.715
652.63	0.711
652.82	0.709
653.01	0.709
653.20	0.705
653.39	0.693
653.58	0.690
653.77	0.689
653.96	0.684
654.15	0.676
654.34	0.674
654.53	0.669
654.72	0.663
654.91	0.654
655.10	0.650
655.29	0.649
655.48	0.647
655.67	0.641
655.86	0.639
656.05	0.638
656.24	0.637
656.43	0.632
656.62	0.631
656.81	0.632
657.00	0.631
657.19	0.628
657.38	0.629
657.57	0.628
657.76	0.631
657.95	0.629
658.14	0.633
658.33	0.636
658.51	0.642
658.70	0.643
658.89	0.644
659.08	0.653
659.27	0.660
659.46	0.660
659.65	0.667
659.84	0.670
660.03	0.674
660.22	0.673
660.41	0.677
660.60	0.676
660.79	0.678
660.98	0.684
661.17	0.683
661.36	0.682
661.55	0.683
661.74	0.679
661.92	0.682
662.11	0.685
662.30	0.684
662.49	0.679
662.68	0.678
662.87	0.682
663.06	0.675
663.25	0.675
663.44	0.675
663.63	0.677
663.82	0.676
664.01	0.670
664.20	0.668
664.38	0.669
664.57	0.669
664.76	0.668
664.95	0.669
665.14	0.674
665.33	0.670
665.52	0.677
665.71	0.681
665.90	0.681
666.09	0.682
666.28	0.680
666.46	0.679
666.65	0.680
666.84	0.679
667.03	0.673
667.22	0.671
667.41	0.675
667.60	0.664
667.79	0.656
667.98	0.658
668.16	0.659
668.35	0.658
668.54	0.654
668.73	0.655
668.92	0.656
669.11	0.655
669.30	0.649
669.49	0.644
669.67	0.647
669.86	0.650
670.05	0.647
670.24	0.644
670.43	0.642
670.62	0.640
670.81	0.635
671.00	0.636
671.18	0.636
671.37	0.635
671.56	0.633
671.75	0.632
671.94	0.628
672.13	0.626
672.32	0.622
672.50	0.622
672.69	0.622
672.88	0.623
673.07	0.619
673.26	0.621
673.45	0.622
673.63	0.622
673.82	0.618
674.01	0.619
674.20	0.619
674.39	0.619
674.58	0.618
674.76	0.617
674.95	0.615
675.14	0.615
675.33	0.610
675.52	0.609
675.71	0.609
675.89	0.609
676.08	0.605
676.27	0.605
676.46	0.606
676.65	0.605
676.84	0.605
677.02	0.606
677.21	0.608
677.40	0.607
677.59	0.604
677.78	0.605
677.96	0.607
678.15	0.607
678.34	0.604
678.53	0.605
678.72	0.605
678.90	0.602
679.09	0.598
679.28	0.594
679.47	0.595
679.66	0.595
679.84	0.591
680.03	0.588
680.22	0.588
680.41	0.590
680.60	0.586
680.78	0.586
680.97	0.589
681.16	0.588
681.35	0.587
681.53	0.586
681.72	0.587
681.91	0.589
682.10	0.587
682.29	0.590
682.47	0.587
682.66	0.587
682.85	0.585
683.04	0.583
683.22	0.584
683.41	0.586
683.60	0.584
683.79	0.585
683.97	0.584
684.16	0.584
684.35	0.579
684.54	0.581
684.72	0.581
684.91	0.583
685.10	0.580
685.29	0.581
685.47	0.579
685.66	0.578
685.85	0.575
686.04	0.574
686.22	0.576
686.41	0.578
686.60	0.575
686.79	0.578
686.97	0.578
687.16	0.580
687.35	0.577
687.54	0.581
687.72	0.585
687.91	0.585
688.10	0.587
688.29	0.586
688.47	0.585
688.66	0.585
688.85	0.581
689.03	0.578
689.22	0.583
689.41	0.583
689.60	0.578
689.78	0.575
689.97	0.576
690.16	0.573
690.34	0.570
690.53	0.570
690.72	0.570
690.91	0.568
691.09	0.566
691.28	0.561
691.47	0.559
691.65	0.558
691.84	0.554
692.03	0.553
692.21	0.551
692.40	0.551
692.59	0.548
692.77	0.548
692.96	0.549
693.15	0.549
693.34	0.547
693.52	0.547
693.71	0.547
693.90	0.548
694.08	0.549
694.27	0.550
694.46	0.560
694.64	0.561
694.83	0.559
695.02	0.558
695.20	0.558
695.39	0.558
695.58	0.558
695.76	0.560
695.95	0.559
696.14	0.558
696.32	0.555
696.51	0.546
696.70	0.546
696.88	0.547
697.07	0.546
697.26	0.547
697.44	0.549
697.63	0.547
697.81	0.544
698.00	0.544
698.19	0.543
698.37	0.544
698.56	0.543
698.75	0.543
698.93	0.543
699.12	0.543
699.31	0.541
699.49	0.540
699.68	0.542
699.87	0.544
700.05	0.544
700.24	0.543
700.42	0.545
700.61	0.545
700.80	0.542
700.98	0.543
701.17	0.544
701.36	0.543
701.54	0.543
701.73	0.544
701.91	0.541
702.10	0.541
702.29	0.539
702.47	0.538
702.66	0.540
702.84	0.542
703.03	0.539
703.22	0.541
703.40	0.541
703.59	0.543
703.77	0.542
703.96	0.542
704.15	0.543
704.33	0.543
704.52	0.542
704.70	0.541
704.89	0.542
705.08	0.540
705.26	0.535
705.45	0.535
705.63	0.535
705.82	0.532
706.00	0.530
706.19	0.529
706.38	0.529
706.56	0.528
706.75	0.526
706.93	0.524
707.12	0.527
707.30	0.527
707.49	0.524
707.68	0.523
707.86	0.522
708.05	0.522
708.23	0.520
708.42	0.521
708.60	0.523
708.79	0.523
708.98	0.521
709.16	0.520
709.35	0.523
709.53	0.527
709.72	0.526
709.90	0.527
710.09	0.530
710.27	0.531
710.46	0.535
710.64	0.533
710.83	0.535
711.02	0.536
711.20	0.535
711.39	0.533
711.57	0.531
711.76	0.532
711.94	0.529
712.13	0.530
712.31	0.530
712.50	0.526
712.68	0.523
712.87	0.524
713.05	0.524
713.24	0.524
713.42	0.523
713.61	0.523
713.79	0.525
713.98	0.525
714.16	0.526
714.35	0.525
714.54	0.527
714.72	0.527
714.91	0.524
715.09	0.531
715.28	0.535
715.46	0.535
715.65	0.533
715.83	0.533
716.02	0.535
716.20	0.532
716.39	0.531
716.57	0.532
716.76	0.535
716.94	0.535
717.12	0.527
717.31	0.528
717.49	0.531
717.68	0.533
717.86	0.531
718.05	0.533
718.23	0.536
718.42	0.538
718.60	0.540
718.79	0.547
718.97	0.550
719.16	0.550
719.34	0.548
719.53	0.548
719.71	0.548
719.90	0.551
720.08	0.548
720.27	0.548
720.45	0.548
720.63	0.546
720.82	0.540
721.00	0.542
721.19	0.547
721.37	0.547
721.56	0.546
721.74	0.549
721.93	0.557
722.11	0.565
722.30	0.564
722.48	0.568
722.66	0.571
722.85	0.570
723.03	0.570
723.22	0.568
723.40	0.571
723.59	0.571
723.77	0.575
723.95	0.568
724.14	0.569
724.32	0.570
724.51	0.569
724.69	0.569
724.88	0.571
725.06	0.570
725.24	0.570
725.43	0.571
725.61	0.575
725.80	0.569
725.98	0.567
726.16	0.563
726.35	0.570
726.53	0.570
726.72	0.568
726.90	0.578
727.09	0.578
727.27	0.585
727.45	0.581
727.64	0.590
727.82	0.599
728.01	0.604
728.19	0.601
728.37	0.606
728.56	0.610
728.74	0.618
728.92	0.606
729.11	0.609
729.29	0.607
729.48	0.609
729.66	0.598
729.84	0.596
730.03	0.600
730.21	0.603
730.40	0.593
730.58	0.594
730.76	0.595
730.95	0.597
731.13	0.596
731.31	0.609
731.50	0.620
731.68	0.623
731.86	0.619
732.05	0.634
732.23	0.638
732.42	0.641
732.60	0.645
732.78	0.650
732.97	0.669
733.15	0.676
733.33	0.665
733.52	0.671
733.70	0.684
733.88	0.693
734.07	0.680
734.25	0.707
734.43	0.714
734.62	0.716
734.80	0.710
734.98	0.700
735.17	0.709
735.35	0.715
735.53	0.704
735.72	0.707
735.90	0.732
736.08	0.751
736.27	0.724
736.45	0.735
736.63	0.751
736.82	0.761
737.00	0.763
737.18	0.774
737.37	0.809
737.55	0.834
737.73	0.826
737.92	0.825
738.10	0.824
738.28	0.851
738.46	0.841
738.65	0.851
738.83	0.877
739.01	0.935
739.20	0.923
739.38	0.901
739.56	0.888
739.75	0.897
739.93	0.863
740.11	0.885
740.29	0.886
740.48	0.891
740.66	0.864
740.84	0.860
741.03	0.827
741.21	0.842
741.39	0.825
741.57	0.840
741.76	0.860
741.94	0.867
742.12	0.832
742.31	0.835
742.49	0.862
742.67	0.891
742.85	0.902
743.04	0.903
743.22	0.910
743.40	0.966
743.58	0.946
743.77	0.961
743.95	1.006
744.13	1.063
744.31	1.038
744.50	1.028
744.68	1.034
744.86	1.006
745.04	1.021
745.23	1.104
745.41	1.085
745.59	1.094
745.77	1.054
745.96	1.038
746.14	1.050
746.32	1.052
746.50	1.034
746.69	1.013
746.87	1.033
747.05	1.015
747.23	0.928
747.42	0.916
747.60	0.956
747.78	0.958
747.96	0.990
748.14	0.937
748.33	0.971
748.51	0.970
748.69	0.962
748.87	0.992
749.06	0.992
749.24	0.986
749.42	0.963
749.60	0.937
749.78	0.951
749.97	0.898
750.15	0.896
750.33	0.900
750.51	0.931
750.69	0.936
750.88	0.937
751.06	0.943
751.24	0.979
751.42	0.973
751.60	0.963
751.79	1.042
751.97	1.106
752.15	1.100
752.33	1.056
752.51	1.136
752.69	1.161
752.88	1.120
753.06	1.178
753.24	1.141
753.42	1.191
753.60	1.432
753.78	1.227
753.97	1.245
754.15	1.271
754.33	1.306
754.51	1.127
754.69	1.103
754.87	1.146
755.06	1.058
755.24	1.061
755.42	1.070
755.60	0.951
755.78	0.962
755.96	0.903
756.15	0.904
756.33	0.913
756.51	0.934
756.69	0.918
756.87	0.877
757.05	0.898
757.23	0.875
757.42	0.836
757.60	0.834
757.78	0.821
757.96	0.816
758.14	0.795
758.32	0.782
758.50	0.798
758.69	0.794
758.87	0.785
759.05	0.792
759.23	0.807
759.41	0.808
759.59	0.801
759.77	0.827
759.95	0.858
760.13	0.911
760.32	0.905
760.50	0.900
760.68	0.930
760.86	0.931
761.04	0.899
761.22	0.902
761.40	0.959
761.58	0.962
761.76	0.932
761.95	0.912
762.13	0.865
762.31	0.860
762.49	0.826
762.67	0.842
762.85	0.859
763.03	0.852
763.21	0.828
763.39	0.808
763.57	0.810
763.75	0.802
763.94	0.785
764.12	0.786
764.30	0.816
764.48	0.820
764.66	0.784
764.84	0.781
765.02	0.822
765.20	0.833
765.38	0.809
765.56	0.815
765.74	0.858
765.92	0.859
766.10	0.868
766.28	0.862
766.46	0.893
766.65	0.892
766.83	0.877
767.01	0.861
767.19	0.868
767.37	0.868
767.55	0.851
767.73	0.832
767.91	0.836
768.09	0.824
768.27	0.810
768.45	0.801
768.63	0.808
768.81	0.809
768.99	0.778
769.17	0.805
769.35	0.823
769.53	0.822
769.71	0.802
769.89	0.814
770.07	0.820
770.25	0.801
770.43	0.779
770.61	0.805
770.79	0.814
770.97	0.826
771.15	0.790
771.33	0.792
771.51	0.799
771.69	0.807
771.87	0.812
772.05	0.821
772.24	0.832
772.42	0.837
772.60	0.812
772.78	0.878
772.96	0.912
773.14	0.908
773.32	0.881
773.49	0.884
773.67	0.884
773.85	0.862
774.03	0.845
774.21	0.881
774.39	0.897
774.57	0.924
774.75	0.843
774.93	0.840
775.11	0.870
775.29	0.877
775.47	0.881
775.65	0.892
775.83	0.915
776.01	0.940
776.19	0.885
776.37	0.886
776.55	0.886
776.73	0.879
776.91	0.866
777.09	0.844
777.27	0.842
777.45	0.830
777.63	0.803
777.81	0.795
777.99	0.783
778.17	0.781
778.35	0.756
778.53	0.745
778.71	0.753
778.89	0.738
779.07	0.727
779.24	0.734
779.42	0.734
779.60	0.754
779.78	0.750
779.96	0.754
780.14	0.765
780.32	0.787
780.50	0.765
780.68	0.765
780.86	0.760
781.04	0.777
781.22	0.782
781.40	0.796
781.58	0.788
781.75	0.779
781.93	0.762
782.11	0.759
782.29	0.744
782.47	0.745
782.65	0.731
782.83	0.763
783.01	0.756
783.19	0.750
783.37	0.733
783.55	0.737
783.72	0.760
783.90	0.770
784.08	0.762
784.26	0.778
784.44	0.800
784.62	0.801
784.80	0.762
784.98	0.766
785.16	0.771
785.33	0.787
785.51	0.768
785.69	0.752
785.87	0.752
786.05	0.763
786.23	0.756
786.41	0.754
786.59	0.764
786.77	0.763
786.94	0.750
787.12	0.755
787.30	0.758
787.48	0.756
787.66	0.742
787.84	0.742
788.02	0.732
788.19	0.728
788.37	0.713
788.55	0.714
788.73	0.715
788.91	0.709
789.09	0.692
789.27	0.678
789.44	0.692
789.62	0.697
789.80	0.707
789.98	0.734
790.16	0.720
790.34	0.715
790.51	0.702
790.69	0.720
790.87	0.728
791.05	0.723
791.23	0.718
791.41	0.718
791.58	0.727
791.76	0.704
791.94	0.671
792.12	0.682
792.30	0.687
792.48	0.684
792.65	0.677
792.83	0.682
793.01	0.691
793.19	0.690
793.37	0.673
793.54	0.668
793.72	0.683
793.90	0.682
794.08	0.671
794.26	0.671
794.43	0.684
794.61	0.667
794.79	0.655
794.97	0.654
795.15	0.659
795.32	0.662
795.50	0.651
795.68	0.646
795.86	0.650
796.04	0.651
796.21	0.644
796.39	0.640
796.57	0.655
796.75	0.663
796.92	0.661
797.10	0.667
797.28	0.670
797.46	0.674
797.64	0.674
797.81	0.683
797.99	0.688
798.17	0.693
798.35	0.687
798.52	0.692
798.70	0.690
798.88	0.700
799.06	0.700
799.23	0.705
799.41	0.715
799.59	0.708
799.77	0.694
799.94	0.704
800.12	0.715
800.30	0.732
800.48	0.730
800.65	0.729
800.83	0.719
801.01	0.710
801.19	0.707
801.36	0.702
801.54	0.705
801.72	0.715
801.90	0.699
802.07	0.693
802.25	0.679
802.43	0.662
802.60	0.658
802.78	0.664
802.96	0.670
803.14	0.663
803.31	0.662
803.49	0.662
803.67	0.658
803.84	0.661
804.02	0.652
804.20	0.656
804.38	0.662
804.55	0.659
804.73	0.644
804.91	0.644
805.08	0.658
805.26	0.653
805.44	0.721
805.61	0.724
805.79	0.727
805.97	0.731
806.15	0.720
806.32	0.716
806.50	0.725
806.68	0.724
806.85	0.713
807.03	0.703
807.21	0.725
807.38	0.652
807.56	0.640
807.74	0.650
807.91	0.655
808.09	0.658
808.27	0.676
808.44	0.702
808.62	0.714
808.80	0.714
808.97	0.711
809.15	0.703
809.33	0.722
809.50	0.729
809.68	0.712
809.86	0.721
810.03	0.758
810.21	0.734
810.39	0.716
810.56	0.721
810.74	0.751
810.91	0.826
811.09	0.815
811.27	0.837
811.44	0.846
811.62	0.847
811.80	0.826
811.97	0.790
812.15	0.791
812.33	0.786
812.50	0.770
812.68	0.756
812.85	0.698
813.03	0.698
813.21	0.663
813.38	0.656
813.56	0.663
813.74	0.675
813.91	0.682
814.09	0.714
814.26	0.709
814.44	0.711
814.62	0.699
814.79	0.703
814.97	0.711
815.14	0.717
815.32	0.722
815.50	0.737
815.67	0.741
815.85	0.732
816.02	0.717
816.20	0.724
816.38	0.741
816.55	0.746
816.73	0.744
816.90	0.756
817.08	0.790
817.26	0.795
817.43	0.773
817.61	0.799
817.78	0.824
817.96	0.803
818.13	0.792
818.31	0.792
818.49	0.811
818.66	0.799
818.84	0.781
819.01	0.758
819.19	0.764
819.36	0.767
819.54	0.735
819.71	0.779
819.89	0.795
820.07	0.807
820.24	0.801
820.42	0.800
820.59	0.825
820.77	0.851
820.94	0.839
821.12	0.864
821.29	0.882
821.47	0.883
821.64	0.810
821.82	0.828
822.00	0.826
822.17	0.820
822.35	0.810
822.52	0.813
822.70	0.802
822.87	0.813
823.05	0.790
823.22	0.803
823.40	0.838
823.57	0.867
823.75	0.847
823.92	0.881
824.10	0.906
824.27	0.957
824.45	0.943
824.62	1.025
824.80	1.049
824.97	1.058
825.15	1.040
825.32	1.056
825.50	1.057
825.67	1.065
825.85	1.035
826.02	1.055
826.20	1.093
826.37	1.270
826.55	1.153
826.72	1.466
826.90	1.654
827.07	1.832
827.25	1.666
827.42	2.427
827.60	-0.000
827.77	-0.000
827.95	-0.000
828.12	-0.000
828.30	-0.000
828.47	-0.000
828.65	1.686
828.82	1.946
829.00	2.876
829.17	-0.000
829.34	-0.000
829.52	-0.000
829.69	-0.000
829.87	-0.000
830.04	-0.000
830.22	-0.000
830.39	-0.000
830.57	-0.000
830.74	-0.000
830.92	-0.000
831.09	-0.000
831.26	-0.000
831.44	-0.000
831.61	-0.000
831.79	-0.000
831.96	-0.000
832.14	-0.000
832.31	-0.000
832.49	-0.000
832.66	-0.000
832.83	-0.000
833.01	-0.000
833.18	-0.000
833.36	-0.000
833.53	-0.000
833.70	-0.000
833.88	-0.000
834.05	-0.000
834.23	-0.000
834.40	-0.000
834.58	-0.000
834.75	-0.000
834.92	-0.000
835.10	-0.000
835.27	-0.000
835.45	-0.000
835.62	-0.000
835.79	-0.000
835.97	-0.000
836.14	-0.000
836.32	-0.000
836.49	-0.000
836.66	-0.000
836.84	-0.000
837.01	-0.000
837.18	-0.000
837.36	-0.000
837.53	-0.000
837.71	-0.000
837.88	-0.000
838.05	-0.000
838.23	-0.000
838.40	-0.000
838.58	-0.000
838.75	-0.000
838.92	-0.000
839.10	-0.000
839.27	-0.000
839.44	-0.000
839.62	-0.000
839.79	-0.000
839.96	-0.000
840.14	-0.000
840.31	-0.000
840.48	-0.000
840.66	-0.000
840.83	-0.000
841.01	-0.000
841.18	-0.000
841.35	-0.000
841.53	-0.000
841.70	-0.000
841.87	-0.000
842.05	-0.000
842.22	-0.000
842.39	-0.000
842.57	-0.000
842.74	-0.000
842.91	-0.000
843.09	-0.000
843.26	-0.000
843.43	-0.000
843.60	-0.000
843.78	-0.000
843.95	-0.000
844.12	-0.000
844.30	-0.000
844.47	-0.000
844.64	-0.000
844.82	-0.000
844.99	-0.000
845.16	-0.000
845.34	-0.000
845.51	-0.000
845.68	-0.000
845.85	-0.000
846.03	-0.000
846.20	-0.000
846.37	-0.000
846.55	-0.000
846.72	-0.000
846.89	-0.000
847.06	-0.000
847.24	-0.000
847.41	-0.000
847.58	-0.000
847.76	-0.000
847.93	-0.000
848.10	-0.000
848.27	-0.000
848.45	-0.000
848.62	-0.000
848.79	-0.000
848.97	-0.000
849.14	-0.000
849.31	-0.000
849.48	-0.000
849.66	-0.000
849.83	-0.000
850.00	-0.000
850.17	-0.000
850.35	-0.000
850.52	-0.000
850.69	-0.000
850.86	-0.000
851.04	-0.000
851.21	-0.000
851.38	-0.000
851.55	-0.000
851.72	-0.000
851.90	-0.000
852.07	-0.000
852.24	-0.000
852.41	-0.000
852.59	-0.000
852.76	-0.000
852.93	-0.000
853.10	-0.000
853.28	-0.000
853.45	-0.000
853.62	-0.000
853.79	-0.000
853.96	-0.000
854.14	-0.000
854.31	-0.000
854.48	-0.000
854.65	-0.000
854.82	-0.000
855.00	-0.000
855.17	-0.000
855.34	-0.000
855.51	-0.000
855.68	-0.000
855.86	-0.000
856.03	-0.000
856.20	-0.000
856.37	-0.000
856.54	-0.000
856.72	-0.000
856.89	-0.000
857.06	-0.000
857.23	-0.000
857.40	-0.000
857.57	-0.000
857.75	-0.000
857.92	-0.000
858.09	-0.000
858.26	-0.000
858.43	-0.000
858.60	-0.000
858.78	-0.000
858.95	-0.000
859.12	-0.000
859.29	-0.000
859.46	-0.000
859.63	-0.000
859.81	-0.000
859.98	-0.000
860.15	-0.000
860.32	-0.000
860.49	-0.000
860.66	-0.000
860.83	-0.000
861.01	-0.000
861.18	-0.000
861.35	-0.000
861.52	-0.000
861.69	-0.000
861.86	-0.000
862.03	-0.000
862.21	-0.000
862.38	-0.000
862.55	-0.000
862.72	-0.000
862.89	-0.000
863.06	-0.000
863.23	-0.000
863.40	-0.000
863.58	-0.000
863.75	-0.000
863.92	-0.000
864.09	-0.000
864.26	-0.000
864.43	-0.000
864.60	-0.000
864.77	-0.000
864.94	-0.000
865.11	-0.000
865.29	-0.000
865.46	-0.000
865.63	-0.000
865.80	-0.000
865.97	-0.000
866.14	-0.000
866.31	-0.000
866.48	-0.000
866.65	-0.000
866.82	-0.000
866.99	-0.000
867.16	-0.000
867.34	-0.000
867.51	-0.000
867.68	-0.000
867.85	-0.000
868.02	-0.000
868.19	-0.000
868.36	-0.000
868.53	-0.000
868.70	-0.000
868.87	-0.000
869.04	-0.000
869.21	-0.000
869.38	-0.000
869.55	-0.000
869.72	-0.000
869.89	-0.000
870.06	-0.000
870.24	-0.000
870.41	-0.000
870.58	-0.000
870.75	-0.000
870.92	-0.000
871.09	-0.000
871.26	-0.000
871.43	-0.000
871.60	-0.000
871.77	-0.000
871.94	-0.000
872.11	-0.000
872.28	-0.000
872.45	-0.000
872.62	-0.000
872.79	-0.000
872.96	-0.000
873.13	-0.000
873.30	-0.000
873.47	-0.000
873.64	-0.000
873.81	-0.000
873.98	-0.000
874.15	-0.000
874.32	-0.000
874.49	-0.000
874.66	-0.000
874.83	-0.000
875.00	-0.000
875.17	-0.000
875.34	-0.000
875.51	-0.000
875.68	-0.000
875.85	-0.000
876.02	-0.000
876.19	-0.000
876.36	-0.000
876.53	-0.000
876.70	-0.000
876.87	-0.000
877.04	-0.000
877.21	-0.000
877.38	-0.000
877.55	-0.000
877.72	-0.000
877.89	-0.000
878.06	-0.000
878.23	-0.000
878.39	-0.000
878.56	-0.000
878.73	-0.000
878.90	-0.000
879.07	-0.000
879.24	-0.000
879.41	-0.000
879.58	-0.000
879.75	-0.000
879.92	-0.000
880.09	-0.000
880.26	-0.000
880.43	-0.000
880.60	-0.000
880.77	-0.000
880.94	-0.000
881.11	-0.000
881.27	-0.000
881.44	-0.000
881.61	-0.000
881.78	-0.000
881.95	-0.000
882.12	-0.000
882.29	-0.000
882.46	-0.000
882.63	-0.000
882.80	-0.000
882.97	-0.000
883.14	-0.000
883.30	-0.000
883.47	-0.000
883.64	-0.000
883.81	-0.000
883.98	-0.000
884.15	-0.000
884.32	-0.000
884.49	-0.000
884.66	-0.000
884.82	-0.000
884.99	-0.000
885.16	-0.000
885.33	-0.000
885.50	-0.000
885.67	-0.000
885.84	-0.000
886.01	-0.000
886.17	-0.000
886.34	-0.000
886.51	-0.000
886.68	-0.000
886.85	-0.000
887.02	-0.000
887.19	-0.000
887.36	-0.000
887.52	-0.000
887.69	-0.000
887.86	-0.000
888.03	-0.000
888.20	-0.000
888.37	-0.000
888.54	-0.000
888.70	-0.000
888.87	-0.000
889.04	-0.000
889.21	-0.000
889.38	-0.000
889.55	-0.000
889.71	-0.000
889.88	-0.000
890.05	-0.000
890.22	-0.000
890.39	-0.000
>>>>>End Processed Spectral Data<<<<<
