SpectraSuite Data File
++++++++++++++++++++++++++++++++++++
Date: Fri Jun 19 16:49:33 CEST 2015
User: introlabs
Dark Spectrum Present: Yes
Reference Spectrum Present: Yes
Number of Sampled Component Spectra: 1
Spectrometers: USB4H08886
Integration Time (usec): 745692 (USB4H08886)
Spectra Averaged: 5 (USB4H08886)
Boxcar Smoothing: 5 (USB4H08886)
Correct for Electrical Dark: Yes (USB4H08886)
Strobe/Lamp Enabled: No (USB4H08886)
Correct for Detector Non-linearity: Yes (USB4H08886)
Correct for Stray Light: Yes (USB4H08886)
Number of Pixels in Processed Spectrum: 3648
>>>>>Begin Processed Spectral Data<<<<<
178.14	-0.000
178.36	-0.000
178.57	-0.000
178.79	-0.000
179.01	-0.000
179.22	-0.000
179.44	-0.000
179.65	-0.000
179.87	-0.000
180.08	-0.000
180.30	-0.000
180.52	-0.000
180.73	-0.000
180.95	-0.000
181.16	-0.000
181.38	-0.000
181.59	-0.000
181.81	-0.000
182.03	-0.000
182.24	-0.000
182.46	-0.000
182.67	-0.000
182.89	-0.000
183.10	-0.000
183.32	-0.000
183.54	-0.000
183.75	-0.000
183.97	-0.000
184.18	-0.000
184.40	-0.000
184.61	-0.000
184.83	-0.000
185.04	-0.000
185.26	-0.000
185.48	-0.000
185.69	-0.000
185.91	-0.000
186.12	-0.000
186.34	-0.000
186.55	-0.000
186.77	-0.000
186.98	-0.000
187.20	-0.000
187.42	-0.000
187.63	-0.000
187.85	-0.000
188.06	-0.000
188.28	-0.000
188.49	-0.000
188.71	-0.000
188.92	-0.000
189.14	-0.000
189.36	-0.000
189.57	-0.000
189.79	-0.000
190.00	-0.000
190.22	-0.000
190.43	-0.000
190.65	-0.000
190.86	-0.000
191.08	-0.000
191.29	-0.000
191.51	-0.000
191.72	-0.000
191.94	-0.000
192.16	-0.000
192.37	-0.000
192.59	-0.000
192.80	-0.000
193.02	-0.000
193.23	-0.000
193.45	-0.000
193.66	-0.000
193.88	-0.000
194.09	-0.000
194.31	-0.000
194.52	-0.000
194.74	-0.000
194.95	-0.000
195.17	-0.000
195.38	-0.000
195.60	-0.000
195.81	-0.000
196.03	-0.000
196.25	-0.000
196.46	-0.000
196.68	-0.000
196.89	-0.000
197.11	-0.000
197.32	-0.000
197.54	-0.000
197.75	-0.000
197.97	-0.000
198.18	-0.000
198.40	-0.000
198.61	-0.000
198.83	-0.000
199.04	-0.000
199.26	-0.000
199.47	-0.000
199.69	-0.000
199.90	-0.000
200.12	-0.000
200.33	-0.000
200.55	-0.000
200.76	-0.000
200.98	-0.000
201.19	-0.000
201.41	-0.000
201.62	-0.000
201.84	-0.000
202.05	-0.000
202.27	-0.000
202.48	-0.000
202.70	-0.000
202.91	-0.000
203.13	-0.000
203.34	-0.000
203.56	-0.000
203.77	-0.000
203.99	-0.000
204.20	-0.000
204.42	-0.000
204.63	-0.000
204.85	-0.000
205.06	-0.000
205.28	-0.000
205.49	-0.000
205.71	-0.000
205.92	-0.000
206.14	-0.000
206.35	-0.000
206.56	-0.000
206.78	-0.000
206.99	-0.000
207.21	-0.000
207.42	-0.000
207.64	-0.000
207.85	-0.000
208.07	-0.000
208.28	-0.000
208.50	-0.000
208.71	-0.000
208.93	-0.000
209.14	-0.000
209.36	-0.000
209.57	-0.000
209.79	-0.000
210.00	-0.000
210.22	-0.000
210.43	-0.000
210.64	-0.000
210.86	-0.000
211.07	-0.000
211.29	-0.000
211.50	-0.000
211.72	-0.000
211.93	-0.000
212.15	-0.000
212.36	-0.000
212.58	-0.000
212.79	-0.000
213.01	-0.000
213.22	-0.000
213.43	-0.000
213.65	-0.000
213.86	-0.000
214.08	-0.000
214.29	-0.000
214.51	-0.000
214.72	-0.000
214.94	-0.000
215.15	-0.000
215.36	-0.000
215.58	-0.000
215.79	-0.000
216.01	-0.000
216.22	-0.000
216.44	-0.000
216.65	-0.000
216.87	-0.000
217.08	-0.000
217.29	-0.000
217.51	-0.000
217.72	-0.000
217.94	-0.000
218.15	-0.000
218.37	-0.000
218.58	-0.000
218.80	-0.000
219.01	-0.000
219.22	-0.000
219.44	-0.000
219.65	-0.000
219.87	-0.000
220.08	-0.000
220.30	-0.000
220.51	-0.000
220.72	-0.000
220.94	-0.000
221.15	-0.000
221.37	-0.000
221.58	-0.000
221.79	-0.000
222.01	-0.000
222.22	-0.000
222.44	-0.000
222.65	-0.000
222.87	-0.000
223.08	-0.000
223.29	-0.000
223.51	-0.000
223.72	-0.000
223.94	-0.000
224.15	-0.000
224.36	-0.000
224.58	-0.000
224.79	-0.000
225.01	-0.000
225.22	-0.000
225.44	-0.000
225.65	-0.000
225.86	-0.000
226.08	-0.000
226.29	-0.000
226.51	-0.000
226.72	-0.000
226.93	-0.000
227.15	-0.000
227.36	-0.000
227.58	-0.000
227.79	-0.000
228.00	-0.000
228.22	-0.000
228.43	-0.000
228.65	-0.000
228.86	-0.000
229.07	-0.000
229.29	-0.000
229.50	-0.000
229.72	-0.000
229.93	-0.000
230.14	-0.000
230.36	-0.000
230.57	-0.000
230.78	-0.000
231.00	-0.000
231.21	-0.000
231.43	-0.000
231.64	-0.000
231.85	-0.000
232.07	-0.000
232.28	-0.000
232.50	-0.000
232.71	-0.000
232.92	-0.000
233.14	-0.000
233.35	-0.000
233.56	-0.000
233.78	-0.000
233.99	-0.000
234.21	-0.000
234.42	-0.000
234.63	-0.000
234.85	-0.000
235.06	-0.000
235.27	-0.000
235.49	-0.000
235.70	-0.000
235.91	-0.000
236.13	-0.000
236.34	-0.000
236.56	-0.000
236.77	-0.000
236.98	-0.000
237.20	-0.000
237.41	-0.000
237.62	-0.000
237.84	-0.000
238.05	-0.000
238.26	-0.000
238.48	-0.000
238.69	-0.000
238.91	-0.000
239.12	-0.000
239.33	-0.000
239.55	-0.000
239.76	-0.000
239.97	-0.000
240.19	-0.000
240.40	-0.000
240.61	-0.000
240.83	-0.000
241.04	-0.000
241.25	-0.000
241.47	-0.000
241.68	-0.000
241.89	-0.000
242.11	-0.000
242.32	-0.000
242.53	-0.000
242.75	-0.000
242.96	-0.000
243.17	-0.000
243.39	-0.000
243.60	-0.000
243.81	-0.000
244.03	-0.000
244.24	-0.000
244.45	-0.000
244.67	-0.000
244.88	-0.000
245.09	-0.000
245.31	-0.000
245.52	-0.000
245.73	-0.000
245.95	-0.000
246.16	-0.000
246.37	-0.000
246.59	-0.000
246.80	-0.000
247.01	-0.000
247.23	-0.000
247.44	-0.000
247.65	-0.000
247.87	-0.000
248.08	-0.000
248.29	-0.000
248.51	-0.000
248.72	-0.000
248.93	-0.000
249.15	-0.000
249.36	-0.000
249.57	-0.000
249.78	-0.000
250.00	-0.000
250.21	-0.000
250.42	-0.000
250.64	-0.000
250.85	-0.000
251.06	-0.000
251.28	-0.000
251.49	-0.000
251.70	-0.000
251.92	-0.000
252.13	-0.000
252.34	-0.000
252.55	-0.000
252.77	-0.000
252.98	-0.000
253.19	-0.000
253.41	-0.000
253.62	-0.000
253.83	-0.000
254.05	-0.000
254.26	-0.000
254.47	-0.000
254.68	-0.000
254.90	-0.000
255.11	-0.000
255.32	-0.000
255.54	-0.000
255.75	-0.000
255.96	-0.000
256.17	-0.000
256.39	-0.000
256.60	-0.000
256.81	-0.000
257.03	-0.000
257.24	-0.000
257.45	-0.000
257.66	-0.000
257.88	-0.000
258.09	-0.000
258.30	-0.000
258.51	-0.000
258.73	-0.000
258.94	-0.000
259.15	-0.000
259.37	-0.000
259.58	-0.000
259.79	-0.000
260.00	-0.000
260.22	-0.000
260.43	-0.000
260.64	-0.000
260.85	-0.000
261.07	-0.000
261.28	-0.000
261.49	-0.000
261.71	-0.000
261.92	-0.000
262.13	-0.000
262.34	-0.000
262.56	-0.000
262.77	-0.000
262.98	-0.000
263.19	-0.000
263.41	-0.000
263.62	-0.000
263.83	-0.000
264.04	-0.000
264.26	-0.000
264.47	-0.000
264.68	-0.000
264.89	-0.000
265.11	-0.000
265.32	-0.000
265.53	-0.000
265.74	-0.000
265.96	-0.000
266.17	-0.000
266.38	-0.000
266.59	-0.000
266.81	-0.000
267.02	-0.000
267.23	-0.000
267.44	-0.000
267.65	-0.000
267.87	-0.000
268.08	-0.000
268.29	-0.000
268.50	-0.000
268.72	-0.000
268.93	-0.000
269.14	-0.000
269.35	-0.000
269.57	-0.000
269.78	-0.000
269.99	-0.000
270.20	-0.000
270.41	-0.000
270.63	-0.000
270.84	-0.000
271.05	-0.000
271.26	-0.000
271.48	-0.000
271.69	-0.000
271.90	-0.000
272.11	-0.000
272.32	-0.000
272.54	-0.000
272.75	-0.000
272.96	-0.000
273.17	-0.000
273.39	-0.000
273.60	-0.000
273.81	-0.000
274.02	-0.000
274.23	-0.000
274.45	-0.000
274.66	-0.000
274.87	-0.000
275.08	-0.000
275.29	-0.000
275.51	-0.000
275.72	-0.000
275.93	-0.000
276.14	-0.000
276.35	-0.000
276.57	-0.000
276.78	-0.000
276.99	-0.000
277.20	-0.000
277.41	-0.000
277.63	-0.000
277.84	-0.000
278.05	-0.000
278.26	-0.000
278.47	-0.000
278.69	-0.000
278.90	-0.000
279.11	-0.000
279.32	-0.000
279.53	-0.000
279.74	-0.000
279.96	-0.000
280.17	-0.000
280.38	-0.000
280.59	-0.000
280.80	-0.000
281.02	-0.000
281.23	-0.000
281.44	-0.000
281.65	-0.000
281.86	-0.000
282.07	-0.000
282.29	-0.000
282.50	-0.000
282.71	-0.000
282.92	-0.000
283.13	-0.000
283.35	-0.000
283.56	-0.000
283.77	-0.000
283.98	-0.000
284.19	-0.000
284.40	-0.000
284.62	-0.000
284.83	-0.000
285.04	-0.000
285.25	-0.000
285.46	-0.000
285.67	-0.000
285.88	-0.000
286.10	-0.000
286.31	-0.000
286.52	-0.000
286.73	-0.000
286.94	-0.000
287.15	-0.000
287.37	-0.000
287.58	-0.000
287.79	-0.000
288.00	-0.000
288.21	-0.000
288.42	-0.000
288.63	-0.000
288.85	-0.000
289.06	-0.000
289.27	-0.000
289.48	-0.000
289.69	-0.000
289.90	-0.000
290.11	-0.000
290.33	-0.000
290.54	-0.000
290.75	-0.000
290.96	-0.000
291.17	-0.000
291.38	-0.000
291.59	-0.000
291.81	-0.000
292.02	-0.000
292.23	-0.000
292.44	-0.000
292.65	-0.000
292.86	-0.000
293.07	-0.000
293.28	-0.000
293.50	-0.000
293.71	-0.000
293.92	-0.000
294.13	-0.000
294.34	-0.000
294.55	-0.000
294.76	-0.000
294.97	-0.000
295.19	-0.000
295.40	-0.000
295.61	-0.000
295.82	-0.000
296.03	-0.000
296.24	-0.000
296.45	-0.000
296.66	-0.000
296.87	-0.000
297.09	-0.000
297.30	-0.000
297.51	-0.000
297.72	-0.000
297.93	-0.000
298.14	-0.000
298.35	-0.000
298.56	-0.000
298.77	-0.000
298.99	-0.000
299.20	-0.000
299.41	-0.000
299.62	-0.000
299.83	-0.000
300.04	-0.000
300.25	-0.000
300.46	-0.000
300.67	-0.000
300.88	-0.000
301.10	-0.000
301.31	-0.000
301.52	-0.000
301.73	-0.000
301.94	-0.000
302.15	-0.000
302.36	-0.000
302.57	-0.000
302.78	-0.000
302.99	-0.000
303.20	-0.000
303.41	-0.000
303.63	-0.000
303.84	-0.000
304.05	-0.000
304.26	-0.000
304.47	-0.000
304.68	-0.000
304.89	-0.000
305.10	-0.000
305.31	-0.000
305.52	-0.000
305.73	-0.000
305.94	-0.000
306.15	-0.000
306.37	-0.000
306.58	-0.000
306.79	-0.000
307.00	-0.000
307.21	-0.000
307.42	-0.000
307.63	-0.000
307.84	-0.000
308.05	-0.000
308.26	-0.000
308.47	-0.000
308.68	-0.000
308.89	-0.000
309.10	-0.000
309.31	-0.000
309.52	-0.000
309.73	-0.000
309.95	-0.000
310.16	-0.000
310.37	-0.000
310.58	-0.000
310.79	-0.000
311.00	-0.000
311.21	-0.000
311.42	-0.000
311.63	-0.000
311.84	-0.000
312.05	-0.000
312.26	-0.000
312.47	-0.000
312.68	-0.000
312.89	-0.000
313.10	-0.000
313.31	-0.000
313.52	-0.000
313.73	-0.000
313.94	-0.000
314.15	-0.000
314.36	-0.000
314.57	-0.000
314.78	-0.000
314.99	-0.000
315.21	-0.000
315.42	-0.000
315.63	-0.000
315.84	-0.000
316.05	-0.000
316.26	-0.000
316.47	-0.000
316.68	-0.000
316.89	-0.000
317.10	-0.000
317.31	-0.000
317.52	-0.000
317.73	-0.000
317.94	-0.000
318.15	-0.000
318.36	-0.000
318.57	-0.000
318.78	-0.000
318.99	-0.000
319.20	-0.000
319.41	-0.000
319.62	-0.000
319.83	-0.000
320.04	-0.000
320.25	-0.000
320.46	-0.000
320.67	-0.000
320.88	-0.000
321.09	-0.000
321.30	2.807
321.51	-0.000
321.72	3.254
321.93	2.446
322.14	2.139
322.35	2.477
322.56	2.486
322.77	2.277
322.98	2.517
323.19	2.550
323.40	2.672
323.61	2.309
323.82	2.181
324.03	2.252
324.24	2.277
324.45	2.138
324.66	1.982
324.87	1.950
325.08	1.943
325.29	1.858
325.50	1.816
325.71	1.842
325.92	1.878
326.13	1.813
326.34	1.819
326.55	1.859
326.76	1.867
326.97	1.833
327.18	1.813
327.39	1.994
327.60	1.946
327.80	1.977
328.01	1.952
328.22	1.941
328.43	1.955
328.64	1.868
328.85	1.870
329.06	1.870
329.27	1.852
329.48	1.830
329.69	1.724
329.90	1.785
330.11	1.760
330.32	1.733
330.53	1.702
330.74	1.690
330.95	1.686
331.16	1.634
331.37	1.669
331.58	1.659
331.79	1.657
332.00	1.631
332.21	1.600
332.42	1.607
332.63	1.577
332.83	1.581
333.04	1.603
333.25	1.649
333.46	1.644
333.67	1.594
333.88	1.606
334.09	1.645
334.30	1.631
334.51	1.602
334.72	1.585
334.93	1.592
335.14	1.577
335.35	1.546
335.56	1.529
335.77	1.547
335.98	1.548
336.18	1.531
336.39	1.500
336.60	1.510
336.81	1.504
337.02	1.504
337.23	1.524
337.44	1.528
337.65	1.541
337.86	1.512
338.07	1.499
338.28	1.506
338.49	1.499
338.70	1.483
338.91	1.505
339.11	1.531
339.32	1.522
339.53	1.490
339.74	1.487
339.95	1.470
340.16	1.471
340.37	1.454
340.58	1.452
340.79	1.456
341.00	1.457
341.21	1.431
341.41	1.429
341.62	1.429
341.83	1.429
342.04	1.421
342.25	1.460
342.46	1.467
342.67	1.464
342.88	1.448
343.09	1.452
343.30	1.477
343.50	1.492
343.71	1.465
343.92	1.461
344.13	1.474
344.34	1.471
344.55	1.421
344.76	1.421
344.97	1.432
345.18	1.433
345.38	1.428
345.59	1.416
345.80	1.413
346.01	1.412
346.22	1.410
346.43	1.392
346.64	1.416
346.85	1.416
347.06	1.400
347.26	1.399
347.47	1.405
347.68	1.392
347.89	1.384
348.10	1.366
348.31	1.381
348.52	1.377
348.73	1.375
348.93	1.369
349.14	1.373
349.35	1.373
349.56	1.362
349.77	1.350
349.98	1.368
350.19	1.359
350.39	1.352
350.60	1.345
350.81	1.392
351.02	1.389
351.23	1.378
351.44	1.385
351.65	1.390
351.86	1.388
352.06	1.387
352.27	1.387
352.48	1.389
352.69	1.390
352.90	1.374
353.11	1.333
353.31	1.355
353.52	1.349
353.73	1.332
353.94	1.338
354.15	1.350
354.36	1.353
354.57	1.330
354.77	1.340
354.98	1.336
355.19	1.338
355.40	1.338
355.61	1.361
355.82	1.367
356.02	1.368
356.23	1.347
356.44	1.351
356.65	1.357
356.86	1.358
357.07	1.345
357.27	1.350
357.48	1.353
357.69	1.344
357.90	1.298
358.11	1.291
358.32	1.297
358.52	1.307
358.73	1.284
358.94	1.292
359.15	1.306
359.36	1.306
359.56	1.301
359.77	1.294
359.98	1.311
360.19	1.310
360.40	1.305
360.61	1.312
360.81	1.305
361.02	1.309
361.23	1.290
361.44	1.286
361.65	1.286
361.85	1.284
362.06	1.285
362.27	1.292
362.48	1.291
362.69	1.296
362.89	1.280
363.10	1.288
363.31	1.299
363.52	1.310
363.73	1.295
363.93	1.295
364.14	1.298
364.35	1.300
364.56	1.276
364.77	1.283
364.97	1.286
365.18	1.288
365.39	1.276
365.60	1.267
365.81	1.267
366.01	1.269
366.22	1.264
366.43	1.260
366.64	1.264
366.84	1.282
367.05	1.276
367.26	1.276
367.47	1.280
367.68	1.281
367.88	1.278
368.09	1.272
368.30	1.277
368.51	1.278
368.71	1.281
368.92	1.294
369.13	1.285
369.34	1.287
369.55	1.288
369.75	1.287
369.96	1.307
370.17	1.308
370.38	1.305
370.58	1.303
370.79	1.318
371.00	1.312
371.21	1.291
371.41	1.308
371.62	1.315
371.83	1.304
372.04	1.299
372.24	1.280
372.45	1.280
372.66	1.280
372.87	1.277
373.07	1.266
373.28	1.268
373.49	1.279
373.70	1.252
373.90	1.250
374.11	1.274
374.32	1.274
374.53	1.273
374.73	1.278
374.94	1.282
375.15	1.281
375.36	1.278
375.56	1.310
375.77	1.304
375.98	1.307
376.19	1.301
376.39	1.285
376.60	1.293
376.81	1.294
377.02	1.289
377.22	1.288
377.43	1.288
377.64	1.289
377.84	1.261
378.05	1.277
378.26	1.295
378.47	1.296
378.67	1.287
378.88	1.281
379.09	1.280
379.30	1.278
379.50	1.274
379.71	1.280
379.92	1.285
380.12	1.284
380.33	1.264
380.54	1.253
380.75	1.270
380.95	1.274
381.16	1.273
381.37	1.276
381.57	1.284
381.78	1.286
381.99	1.289
382.20	1.290
382.40	1.300
382.61	1.298
382.82	1.293
383.02	1.273
383.23	1.280
383.44	1.278
383.64	1.276
383.85	1.281
384.06	1.287
384.27	1.280
384.47	1.277
384.68	1.276
384.89	1.294
385.09	1.294
385.30	1.294
385.51	1.293
385.71	1.302
385.92	1.303
386.13	1.302
386.33	1.311
386.54	1.312
386.75	1.309
386.95	1.301
387.16	1.287
387.37	1.291
387.58	1.290
387.78	1.285
387.99	1.278
388.20	1.281
388.40	1.272
388.61	1.259
388.82	1.271
389.02	1.276
389.23	1.273
389.44	1.272
389.64	1.275
389.85	1.309
390.06	1.307
390.26	1.311
390.47	1.309
390.68	1.314
390.88	1.309
391.09	1.296
391.30	1.294
391.50	1.293
391.71	1.292
391.92	1.284
392.12	1.258
392.33	1.258
392.53	1.257
392.74	1.260
392.95	1.257
393.15	1.264
393.36	1.268
393.57	1.265
393.77	1.272
393.98	1.275
394.19	1.274
394.39	1.276
394.60	1.279
394.81	1.283
395.01	1.275
395.22	1.272
395.43	1.271
395.63	1.283
395.84	1.284
396.04	1.278
396.25	1.281
396.46	1.283
396.66	1.275
396.87	1.268
397.08	1.258
397.28	1.264
397.49	1.265
397.69	1.258
397.90	1.242
398.11	1.243
398.31	1.242
398.52	1.233
398.73	1.238
398.93	1.236
399.14	1.232
399.34	1.230
399.55	1.231
399.76	1.231
399.96	1.231
400.17	1.229
400.37	1.225
400.58	1.241
400.79	1.246
400.99	1.234
401.20	1.248
401.41	1.254
401.61	1.256
401.82	1.274
402.02	1.273
402.23	1.275
402.44	1.273
402.64	1.274
402.85	1.257
403.05	1.250
403.26	1.248
403.47	1.231
403.67	1.228
403.88	1.226
404.08	1.206
404.29	1.202
404.50	1.200
404.70	1.198
404.91	1.195
405.11	1.189
405.32	1.190
405.52	1.190
405.73	1.189
405.94	1.186
406.14	1.192
406.35	1.196
406.55	1.195
406.76	1.189
406.97	1.191
407.17	1.198
407.38	1.198
407.58	1.195
407.79	1.202
407.99	1.206
408.20	1.206
408.41	1.196
408.61	1.191
408.82	1.191
409.02	1.191
409.23	1.187
409.43	1.181
409.64	1.181
409.84	1.180
410.05	1.172
410.26	1.169
410.46	1.167
410.67	1.167
410.87	1.172
411.08	1.177
411.28	1.177
411.49	1.180
411.69	1.173
411.90	1.177
412.11	1.178
412.31	1.178
412.52	1.174
412.72	1.174
412.93	1.173
413.13	1.170
413.34	1.162
413.54	1.167
413.75	1.170
413.95	1.170
414.16	1.164
414.37	1.170
414.57	1.169
414.78	1.174
414.98	1.173
415.19	1.175
415.39	1.166
415.60	1.171
415.80	1.168
416.01	1.163
416.21	1.164
416.42	1.162
416.62	1.152
416.83	1.151
417.03	1.149
417.24	1.147
417.44	1.141
417.65	1.139
417.86	1.138
418.06	1.133
418.27	1.128
418.47	1.132
418.68	1.131
418.88	1.131
419.09	1.128
419.29	1.129
419.50	1.129
419.70	1.129
419.91	1.127
420.11	1.121
420.32	1.124
420.52	1.124
420.73	1.121
420.93	1.122
421.14	1.126
421.34	1.122
421.55	1.116
421.75	1.115
421.96	1.114
422.16	1.114
422.37	1.112
422.57	1.107
422.78	1.109
422.98	1.102
423.19	1.099
423.39	1.093
423.60	1.102
423.80	1.104
424.01	1.101
424.21	1.106
424.42	1.107
424.62	1.106
424.83	1.104
425.03	1.103
425.23	1.105
425.44	1.103
425.64	1.105
425.85	1.101
426.05	1.100
426.26	1.101
426.46	1.093
426.67	1.092
426.87	1.101
427.08	1.101
427.28	1.097
427.49	1.099
427.69	1.100
427.90	1.096
428.10	1.091
428.31	1.091
428.51	1.093
428.71	1.092
428.92	1.094
429.12	1.087
429.33	1.087
429.53	1.097
429.74	1.109
429.94	1.109
430.15	1.106
430.35	1.106
430.56	1.100
430.76	1.097
430.96	1.097
431.17	1.091
431.37	1.087
431.58	1.084
431.78	1.074
431.99	1.059
432.19	1.064
432.40	1.068
432.60	1.069
432.80	1.074
433.01	1.071
433.21	1.071
433.42	1.073
433.62	1.073
433.83	1.073
434.03	1.078
434.23	1.082
434.44	1.078
434.64	1.073
434.85	1.083
435.05	1.085
435.26	1.085
435.46	1.083
435.66	1.081
435.87	1.081
436.07	1.081
436.28	1.073
436.48	1.068
436.69	1.066
436.89	1.067
437.09	1.055
437.30	1.052
437.50	1.051
437.71	1.079
437.91	1.078
438.11	1.079
438.32	1.087
438.52	1.085
438.73	1.084
438.93	1.080
439.13	1.079
439.34	1.086
439.54	1.082
439.75	1.083
439.95	1.059
440.15	1.069
440.36	1.067
440.56	1.062
440.77	1.064
440.97	1.065
441.17	1.062
441.38	1.064
441.58	1.058
441.79	1.058
441.99	1.056
442.19	1.051
442.40	1.044
442.60	1.043
442.81	1.039
443.01	1.038
443.21	1.037
443.42	1.038
443.62	1.036
443.82	1.035
444.03	1.038
444.23	1.037
444.44	1.039
444.64	1.039
444.84	1.042
445.05	1.042
445.25	1.039
445.45	1.039
445.66	1.041
445.86	1.040
446.06	1.043
446.27	1.040
446.47	1.045
446.68	1.041
446.88	1.037
447.08	1.036
447.29	1.038
447.49	1.038
447.69	1.039
447.90	1.037
448.10	1.042
448.30	1.037
448.51	1.041
448.71	1.036
448.91	1.038
449.12	1.037
449.32	1.041
449.52	1.039
449.73	1.045
449.93	1.043
450.14	1.045
450.34	1.042
450.54	1.046
450.75	1.040
450.95	1.039
451.15	1.039
451.36	1.044
451.56	1.037
451.76	1.036
451.97	1.030
452.17	1.030
452.37	1.027
452.58	1.024
452.78	1.024
452.98	1.028
453.19	1.028
453.39	1.031
453.59	1.026
453.79	1.027
454.00	1.028
454.20	1.027
454.40	1.029
454.61	1.032
454.81	1.031
455.01	1.029
455.22	1.030
455.42	1.031
455.62	1.026
455.83	1.027
456.03	1.033
456.23	1.033
456.44	1.033
456.64	1.031
456.84	1.031
457.04	1.032
457.25	1.031
457.45	1.024
457.65	1.022
457.86	1.024
458.06	1.023
458.26	1.016
458.47	1.015
458.67	1.017
458.87	1.017
459.07	1.013
459.28	1.016
459.48	1.018
459.68	1.018
459.89	1.017
460.09	1.013
460.29	1.014
460.49	1.015
460.70	1.015
460.90	1.014
461.10	1.015
461.31	1.015
461.51	1.011
461.71	1.018
461.91	1.019
462.12	1.020
462.32	1.020
462.52	1.021
462.72	1.025
462.93	1.025
463.13	1.023
463.33	1.026
463.53	1.026
463.74	1.025
463.94	1.015
464.14	1.017
464.35	1.018
464.55	1.018
464.75	1.016
464.95	1.012
465.16	1.014
465.36	1.013
465.56	1.012
465.76	1.011
465.97	1.012
466.17	1.013
466.37	1.009
466.57	1.010
466.78	1.011
466.98	1.009
467.18	1.007
467.38	1.004
467.59	1.005
467.79	1.008
467.99	1.007
468.19	1.008
468.39	1.011
468.60	1.011
468.80	1.009
469.00	1.010
469.20	1.012
469.41	1.013
469.61	1.012
469.81	1.013
470.01	1.011
470.22	1.011
470.42	1.010
470.62	1.006
470.82	1.008
471.02	1.007
471.23	1.004
471.43	1.004
471.63	1.008
471.83	1.007
472.04	1.005
472.24	1.001
472.44	1.011
472.64	1.011
472.84	1.009
473.05	1.008
473.25	1.011
473.45	1.010
473.65	1.007
473.85	1.005
474.06	1.007
474.26	1.006
474.46	1.010
474.66	1.002
474.86	1.002
475.07	1.002
475.27	1.000
475.47	0.996
475.67	0.996
475.87	1.001
476.08	0.997
476.28	0.998
476.48	1.001
476.68	0.998
476.88	0.995
477.09	0.997
477.29	0.999
477.49	0.998
477.69	0.998
477.89	0.999
478.09	0.996
478.30	1.000
478.50	0.995
478.70	0.992
478.90	0.993
479.10	0.998
479.31	1.000
479.51	0.998
479.71	0.998
479.91	0.996
480.11	0.994
480.31	0.995
480.52	0.991
480.72	0.991
480.92	0.989
481.12	0.987
481.32	0.981
481.52	0.978
481.72	0.978
481.93	0.984
482.13	0.986
482.33	0.985
482.53	0.982
482.73	0.984
482.93	0.984
483.14	0.984
483.34	0.983
483.54	0.984
483.74	0.981
483.94	0.979
484.14	0.972
484.34	0.972
484.55	0.972
484.75	0.971
484.95	0.968
485.15	0.968
485.35	0.967
485.55	0.967
485.75	0.964
485.96	0.965
486.16	0.967
486.36	0.967
486.56	0.964
486.76	0.965
486.96	0.966
487.16	0.964
487.36	0.962
487.57	0.961
487.77	0.962
487.97	0.963
488.17	0.959
488.37	0.958
488.57	0.958
488.77	0.958
488.97	0.956
489.18	0.955
489.38	0.959
489.58	0.960
489.78	0.960
489.98	0.959
490.18	0.958
490.38	0.959
490.58	0.957
490.78	0.959
490.98	0.960
491.19	0.960
491.39	0.959
491.59	0.957
491.79	0.962
491.99	0.962
492.19	0.962
492.39	0.968
492.59	0.968
492.79	0.971
492.99	0.971
493.20	0.972
493.40	0.972
493.60	0.974
493.80	0.971
494.00	0.966
494.20	0.966
494.40	0.965
494.60	0.961
494.80	0.968
495.00	0.965
495.20	0.963
495.40	0.962
495.61	0.964
495.81	0.963
496.01	0.969
496.21	0.972
496.41	0.971
496.61	0.973
496.81	0.971
497.01	0.962
497.21	0.961
497.41	0.961
497.61	0.960
497.81	0.957
498.01	0.957
498.21	0.952
498.41	0.949
498.61	0.949
498.82	0.950
499.02	0.953
499.22	0.954
499.42	0.953
499.62	0.956
499.82	0.956
500.02	0.958
500.22	0.957
500.42	0.960
500.62	0.960
500.82	0.960
501.02	0.957
501.22	0.957
501.42	0.956
501.62	0.961
501.82	0.960
502.02	0.961
502.22	0.959
502.42	0.963
502.62	0.958
502.82	0.959
503.02	0.960
503.22	0.959
503.42	0.957
503.63	0.957
503.83	0.953
504.03	0.951
504.23	0.949
504.43	0.950
504.63	0.951
504.83	0.951
505.03	0.949
505.23	0.951
505.43	0.954
505.63	0.954
505.83	0.954
506.03	0.956
506.23	0.958
506.43	0.957
506.63	0.956
506.83	0.954
507.03	0.956
507.23	0.956
507.43	0.953
507.63	0.954
507.83	0.953
508.03	0.954
508.23	0.953
508.43	0.951
508.63	0.954
508.83	0.955
509.03	0.957
509.23	0.955
509.43	0.957
509.63	0.957
509.83	0.956
510.03	0.961
510.23	0.962
510.43	0.963
510.63	0.964
510.83	0.962
511.03	0.964
511.23	0.960
511.43	0.960
511.63	0.962
511.83	0.964
512.03	0.963
512.22	0.959
512.42	0.960
512.62	0.961
512.82	0.961
513.02	0.962
513.22	0.961
513.42	0.964
513.62	0.969
513.82	0.966
514.02	0.964
514.22	0.965
514.42	0.964
514.62	0.964
514.82	0.963
515.02	0.966
515.22	0.972
515.42	0.972
515.62	0.975
515.82	0.973
516.02	0.974
516.22	0.976
516.42	0.979
516.62	0.982
516.82	0.984
517.01	0.981
517.21	0.980
517.41	0.985
517.61	0.986
517.81	0.980
518.01	0.978
518.21	0.978
518.41	0.976
518.61	0.974
518.81	0.975
519.01	0.975
519.21	0.976
519.41	0.975
519.61	0.965
519.81	0.968
520.00	0.969
520.20	0.970
520.40	0.975
520.60	0.975
520.80	0.974
521.00	0.976
521.20	0.977
521.40	0.985
521.60	0.985
521.80	0.984
522.00	0.983
522.20	0.985
522.39	0.985
522.59	0.980
522.79	0.983
522.99	0.986
523.19	0.983
523.39	0.979
523.59	0.975
523.79	0.980
523.99	0.984
524.19	0.982
524.38	0.980
524.58	0.982
524.78	0.983
524.98	0.979
525.18	0.982
525.38	0.982
525.58	0.983
525.78	0.981
525.98	0.977
526.18	0.976
526.37	0.975
526.57	0.980
526.77	0.979
526.97	0.980
527.17	0.980
527.37	0.975
527.57	0.980
527.77	0.981
527.96	0.982
528.16	0.981
528.36	0.984
528.56	0.986
528.76	0.981
528.96	0.981
529.16	0.983
529.36	0.988
529.55	0.987
529.75	0.982
529.95	0.982
530.15	0.983
530.35	0.988
530.55	0.982
530.75	0.983
530.94	0.984
531.14	0.984
531.34	0.982
531.54	0.979
531.74	0.983
531.94	0.989
532.13	0.987
532.33	0.991
532.53	0.986
532.73	0.987
532.93	0.984
533.13	0.985
533.33	0.985
533.52	0.985
533.72	0.991
533.92	0.989
534.12	0.985
534.32	0.984
534.52	0.980
534.71	0.984
534.91	0.987
535.11	0.991
535.31	0.988
535.51	0.991
535.71	0.992
535.90	0.987
536.10	0.989
536.30	0.992
536.50	0.992
536.70	0.994
536.89	0.991
537.09	0.991
537.29	0.992
537.49	0.994
537.69	0.991
537.89	0.994
538.08	0.992
538.28	0.989
538.48	0.991
538.68	0.993
538.88	0.995
539.07	0.995
539.27	0.992
539.47	0.991
539.67	0.990
539.87	0.992
540.06	0.987
540.26	0.989
540.46	0.992
540.66	0.987
540.86	0.985
541.05	0.985
541.25	0.987
541.45	0.988
541.65	0.985
541.84	0.989
542.04	0.989
542.24	0.991
542.44	0.989
542.64	0.991
542.83	0.994
543.03	0.995
543.23	0.992
543.43	0.993
543.62	0.995
543.82	0.996
544.02	0.992
544.22	0.992
544.42	0.997
544.61	0.997
544.81	0.994
545.01	0.991
545.21	0.993
545.40	0.993
545.60	0.991
545.80	0.996
546.00	0.995
546.19	0.994
546.39	0.993
546.59	0.989
546.79	0.991
546.98	0.992
547.18	0.991
547.38	0.991
547.58	0.994
547.77	0.993
547.97	0.986
548.17	0.988
548.37	0.989
548.56	0.989
548.76	0.989
548.96	0.991
549.16	0.992
549.35	0.992
549.55	0.990
549.75	0.991
549.95	0.996
550.14	0.997
550.34	0.996
550.54	1.004
550.73	1.008
550.93	1.010
551.13	1.006
551.33	1.005
551.52	1.006
551.72	1.006
551.92	1.003
552.12	1.005
552.31	1.005
552.51	1.005
552.71	0.997
552.90	0.998
553.10	0.997
553.30	0.997
553.50	0.997
553.69	0.998
553.89	0.998
554.09	0.999
554.28	0.992
554.48	0.993
554.68	0.996
554.87	0.995
555.07	0.991
555.27	0.990
555.47	0.993
555.66	0.993
555.86	0.993
556.06	0.996
556.25	0.998
556.45	1.014
556.65	1.013
556.84	1.020
557.04	1.026
557.24	1.027
557.43	1.028
557.63	1.035
557.83	1.036
558.02	1.038
558.22	1.047
558.42	1.047
558.61	1.032
558.81	1.032
559.01	1.024
559.21	1.022
559.40	1.023
559.60	1.023
559.80	1.016
559.99	1.018
560.19	1.021
560.39	1.010
560.58	1.008
560.78	1.007
560.97	1.013
561.17	1.011
561.37	1.010
561.56	1.011
561.76	1.013
561.96	1.012
562.15	1.009
562.35	1.012
562.55	1.012
562.74	1.012
562.94	1.011
563.14	1.007
563.33	1.008
563.53	1.007
563.73	1.004
563.92	1.007
564.12	1.009
564.31	1.012
564.51	1.009
564.71	1.013
564.90	1.015
565.10	1.016
565.30	1.023
565.49	1.024
565.69	1.026
565.89	1.027
566.08	1.022
566.28	1.026
566.47	1.028
566.67	1.025
566.87	1.022
567.06	1.026
567.26	1.036
567.46	1.028
567.65	1.027
567.85	1.031
568.04	1.036
568.24	1.035
568.44	1.031
568.63	1.027
568.83	1.029
569.02	1.026
569.22	1.018
569.42	1.012
569.61	1.014
569.81	1.012
570.00	1.009
570.20	1.010
570.40	1.011
570.59	1.011
570.79	1.008
570.98	1.004
571.18	1.006
571.38	1.006
571.57	1.003
571.77	1.000
571.96	1.005
572.16	1.001
572.35	0.992
572.55	0.994
572.75	0.990
572.94	0.991
573.14	0.988
573.33	0.988
573.53	0.988
573.73	0.986
573.92	0.984
574.12	0.981
574.31	0.985
574.51	0.987
574.70	0.982
574.90	0.985
575.09	0.988
575.29	0.988
575.49	0.984
575.68	0.986
575.88	0.987
576.07	0.988
576.27	0.985
576.46	0.981
576.66	0.980
576.86	0.978
577.05	0.976
577.25	0.974
577.44	0.976
577.64	0.976
577.83	0.973
578.03	0.975
578.22	0.974
578.42	0.973
578.61	0.971
578.81	0.972
579.00	0.972
579.20	0.971
579.40	0.969
579.59	0.967
579.79	0.967
579.98	0.966
580.18	0.966
580.37	0.966
580.57	0.970
580.76	0.978
580.96	0.976
581.15	0.978
581.35	0.979
581.54	0.980
581.74	0.979
581.93	0.981
582.13	0.982
582.32	0.978
582.52	0.975
582.71	0.973
582.91	0.964
583.10	0.965
583.30	0.963
583.49	0.962
583.69	0.967
583.88	0.969
584.08	0.968
584.27	0.972
584.47	0.977
584.66	0.979
584.86	0.979
585.05	0.982
585.25	0.986
585.44	0.986
585.64	0.985
585.83	0.979
586.03	0.979
586.22	0.976
586.42	0.970
586.61	0.973
586.81	0.976
587.00	0.975
587.20	0.971
587.39	0.972
587.59	0.974
587.78	0.975
587.98	0.976
588.17	0.978
588.37	0.981
588.56	0.984
588.76	0.977
588.95	0.977
589.15	0.984
589.34	0.990
589.54	0.987
589.73	0.988
589.92	0.992
590.12	0.993
590.31	0.991
590.51	1.001
590.70	1.004
590.90	1.005
591.09	1.003
591.29	0.999
591.48	0.997
591.68	1.000
591.87	0.998
592.06	0.998
592.26	1.001
592.45	0.999
592.65	0.989
592.84	0.987
593.04	0.990
593.23	0.993
593.43	0.990
593.62	0.989
593.81	0.988
594.01	0.987
594.20	0.983
594.40	0.981
594.59	0.983
594.79	0.984
594.98	0.983
595.17	0.982
595.37	0.982
595.56	0.985
595.76	0.986
595.95	0.989
596.14	0.994
596.34	0.996
596.53	0.995
596.73	0.997
596.92	0.998
597.12	1.003
597.31	1.004
597.50	1.002
597.70	1.005
597.89	1.004
598.09	0.999
598.28	1.001
598.47	1.005
598.67	1.002
598.86	0.999
599.06	1.002
599.25	1.001
599.44	0.997
599.64	0.993
599.83	0.989
600.03	0.993
600.22	0.993
600.41	0.993
600.61	0.988
600.80	0.992
601.00	0.991
601.19	0.985
601.38	0.981
601.58	0.984
601.77	0.987
601.96	0.992
602.16	0.991
602.35	1.006
602.55	1.002
602.74	1.005
602.93	1.007
603.13	1.015
603.32	1.016
603.51	1.018
603.71	1.025
603.90	1.026
604.09	1.028
604.29	1.025
604.48	1.014
604.68	1.015
604.87	1.014
605.06	1.009
605.26	1.005
605.45	1.005
605.64	1.003
605.84	0.996
606.03	0.996
606.22	0.992
606.42	0.991
606.61	0.987
606.80	0.988
607.00	0.990
607.19	0.990
607.38	0.989
607.58	0.994
607.77	0.997
607.96	0.996
608.16	0.994
608.35	1.002
608.54	1.007
608.74	1.012
608.93	1.022
609.12	1.026
609.32	1.030
609.51	1.035
609.70	1.031
609.90	1.035
610.09	1.041
610.28	1.051
610.48	1.040
610.67	1.041
610.86	1.042
611.06	1.031
611.25	1.027
611.44	1.029
611.64	1.029
611.83	1.035
612.02	1.031
612.21	1.030
612.41	1.027
612.60	1.026
612.79	1.020
612.99	1.020
613.18	1.024
613.37	1.020
613.57	1.017
613.76	1.019
613.95	1.013
614.14	1.012
614.34	1.008
614.53	1.008
614.72	1.013
614.92	1.014
615.11	1.010
615.30	1.003
615.49	1.005
615.69	1.009
615.88	1.004
616.07	1.006
616.26	1.009
616.46	1.010
616.65	1.006
616.84	1.005
617.04	1.005
617.23	1.009
617.42	1.012
617.61	1.017
617.81	1.016
618.00	1.020
618.19	1.017
618.38	1.025
618.58	1.030
618.77	1.033
618.96	1.034
619.15	1.039
619.35	1.043
619.54	1.045
619.73	1.039
619.92	1.043
620.12	1.050
620.31	1.052
620.50	1.042
620.69	1.042
620.89	1.046
621.08	1.046
621.27	1.047
621.46	1.045
621.66	1.050
621.85	1.051
622.04	1.046
622.23	1.050
622.43	1.050
622.62	1.051
622.81	1.051
623.00	1.049
623.19	1.052
623.39	1.049
623.58	1.045
623.77	1.042
623.96	1.044
624.16	1.044
624.35	1.035
624.54	1.041
624.73	1.046
624.92	1.042
625.12	1.040
625.31	1.041
625.50	1.046
625.69	1.047
625.88	1.043
626.08	1.044
626.27	1.045
626.46	1.046
626.65	1.040
626.84	1.040
627.04	1.048
627.23	1.048
627.42	1.043
627.61	1.048
627.80	1.051
628.00	1.051
628.19	1.049
628.38	1.054
628.57	1.057
628.76	1.057
628.96	1.053
629.15	1.054
629.34	1.059
629.53	1.059
629.72	1.050
629.91	1.052
630.11	1.059
630.30	1.059
630.49	1.066
630.68	1.068
630.87	1.073
631.06	1.077
631.26	1.069
631.45	1.072
631.64	1.086
631.83	1.088
632.02	1.085
632.21	1.082
632.41	1.094
632.60	1.080
632.79	1.077
632.98	1.079
633.17	1.080
633.36	1.084
633.55	1.080
633.75	1.072
633.94	1.073
634.13	1.073
634.32	1.071
634.51	1.060
634.70	1.064
634.89	1.064
635.09	1.058
635.28	1.059
635.47	1.057
635.66	1.062
635.85	1.057
636.04	1.062
636.23	1.071
636.43	1.072
636.62	1.073
636.81	1.070
637.00	1.072
637.19	1.078
637.38	1.074
637.57	1.076
637.76	1.077
637.95	1.076
638.15	1.068
638.34	1.062
638.53	1.064
638.72	1.065
638.91	1.063
639.10	1.062
639.29	1.059
639.48	1.061
639.67	1.061
639.87	1.059
640.06	1.070
640.25	1.071
640.44	1.071
640.63	1.074
640.82	1.078
641.01	1.080
641.20	1.080
641.39	1.085
641.58	1.087
641.78	1.083
641.97	1.076
642.16	1.106
642.35	1.107
642.54	1.107
642.73	1.100
642.92	1.095
643.11	1.101
643.30	1.100
643.49	1.092
643.68	1.096
643.87	1.098
644.06	1.100
644.25	1.061
644.45	1.067
644.64	1.069
644.83	1.068
645.02	1.067
645.21	1.064
645.40	1.066
645.59	1.067
645.78	1.058
645.97	1.063
646.16	1.062
646.35	1.060
646.54	1.057
646.73	1.059
646.92	1.064
647.11	1.063
647.30	1.057
647.49	1.062
647.68	1.060
647.88	1.057
648.07	1.049
648.26	1.055
648.45	1.056
648.64	1.052
648.83	1.048
649.02	1.051
649.21	1.067
649.40	1.066
649.59	1.058
649.78	1.058
649.97	1.086
650.16	1.084
650.35	1.073
650.54	1.080
650.73	1.094
650.92	1.089
651.11	1.078
651.30	1.076
651.49	1.081
651.68	1.082
651.87	1.079
652.06	1.057
652.25	1.061
652.44	1.064
652.63	1.059
652.82	1.062
653.01	1.062
653.20	1.059
653.39	1.039
653.58	1.036
653.77	1.034
653.96	1.026
654.15	1.014
654.34	1.010
654.53	1.003
654.72	0.993
654.91	0.977
655.10	0.970
655.29	0.966
655.48	0.962
655.67	0.954
655.86	0.950
656.05	0.947
656.24	0.946
656.43	0.938
656.62	0.938
656.81	0.939
657.00	0.933
657.19	0.927
657.38	0.925
657.57	0.923
657.76	0.926
657.95	0.922
658.14	0.928
658.33	0.932
658.51	0.940
658.70	0.940
658.89	0.940
659.08	0.956
659.27	0.972
659.46	0.975
659.65	0.988
659.84	0.995
660.03	1.001
660.22	1.003
660.41	1.009
660.60	1.008
660.79	1.010
660.98	1.022
661.17	1.019
661.36	1.016
661.55	1.019
661.74	1.014
661.92	1.017
662.11	1.018
662.30	1.014
662.49	1.004
662.68	1.003
662.87	1.006
663.06	0.993
663.25	0.996
663.44	0.994
663.63	0.994
663.82	0.992
664.01	0.983
664.20	0.983
664.38	0.987
664.57	0.988
664.76	0.987
664.95	0.990
665.14	0.997
665.33	0.991
665.52	1.009
665.71	1.018
665.90	1.019
666.09	1.023
666.28	1.017
666.46	1.013
666.65	1.012
666.84	1.010
667.03	1.002
667.22	1.000
667.41	1.003
667.60	0.985
667.79	0.972
667.98	0.975
668.16	0.975
668.35	0.977
668.54	0.974
668.73	0.976
668.92	0.978
669.11	0.977
669.30	0.969
669.49	0.963
669.67	0.966
669.86	0.971
670.05	0.966
670.24	0.962
670.43	0.959
670.62	0.957
670.81	0.949
671.00	0.949
671.18	0.946
671.37	0.944
671.56	0.941
671.75	0.937
671.94	0.931
672.13	0.929
672.32	0.923
672.50	0.922
672.69	0.921
672.88	0.921
673.07	0.915
673.26	0.919
673.45	0.921
673.63	0.920
673.82	0.915
674.01	0.916
674.20	0.915
674.39	0.914
674.58	0.913
674.76	0.914
674.95	0.913
675.14	0.914
675.33	0.908
675.52	0.907
675.71	0.908
675.89	0.909
676.08	0.905
676.27	0.904
676.46	0.905
676.65	0.904
676.84	0.904
677.02	0.905
677.21	0.906
677.40	0.905
677.59	0.903
677.78	0.903
677.96	0.907
678.15	0.905
678.34	0.904
678.53	0.905
678.72	0.904
678.90	0.901
679.09	0.897
679.28	0.893
679.47	0.893
679.66	0.891
679.84	0.888
680.03	0.883
680.22	0.883
680.41	0.885
680.60	0.880
680.78	0.878
680.97	0.880
681.16	0.879
681.35	0.877
681.53	0.876
681.72	0.878
681.91	0.880
682.10	0.879
682.29	0.882
682.47	0.878
682.66	0.875
682.85	0.873
683.04	0.871
683.22	0.870
683.41	0.873
683.60	0.871
683.79	0.873
683.97	0.871
684.16	0.870
684.35	0.865
684.54	0.868
684.72	0.870
684.91	0.872
685.10	0.869
685.29	0.872
685.47	0.868
685.66	0.867
685.85	0.862
686.04	0.859
686.22	0.862
686.41	0.866
686.60	0.862
686.79	0.867
686.97	0.866
687.16	0.868
687.35	0.864
687.54	0.869
687.72	0.874
687.91	0.874
688.10	0.879
688.29	0.879
688.47	0.873
688.66	0.873
688.85	0.867
689.03	0.865
689.22	0.873
689.41	0.874
689.60	0.868
689.78	0.864
689.97	0.864
690.16	0.860
690.34	0.855
690.53	0.856
690.72	0.855
690.91	0.853
691.09	0.851
691.28	0.841
691.47	0.839
691.65	0.837
691.84	0.835
692.03	0.834
692.21	0.831
692.40	0.830
692.59	0.826
692.77	0.825
692.96	0.827
693.15	0.827
693.34	0.825
693.52	0.824
693.71	0.824
693.90	0.826
694.08	0.828
694.27	0.830
694.46	0.845
694.64	0.846
694.83	0.845
695.02	0.845
695.20	0.844
695.39	0.844
695.58	0.844
695.76	0.846
695.95	0.843
696.14	0.841
696.32	0.836
696.51	0.819
696.70	0.820
696.88	0.822
697.07	0.820
697.26	0.821
697.44	0.822
697.63	0.819
697.81	0.816
698.00	0.816
698.19	0.814
698.37	0.814
698.56	0.814
698.75	0.813
698.93	0.810
699.12	0.810
699.31	0.809
699.49	0.808
699.68	0.810
699.87	0.814
700.05	0.813
700.24	0.813
700.42	0.815
700.61	0.815
700.80	0.813
700.98	0.814
701.17	0.815
701.36	0.815
701.54	0.814
701.73	0.815
701.91	0.811
702.10	0.810
702.29	0.809
702.47	0.807
702.66	0.809
702.84	0.810
703.03	0.808
703.22	0.810
703.40	0.808
703.59	0.812
703.77	0.812
703.96	0.811
704.15	0.811
704.33	0.811
704.52	0.811
704.70	0.809
704.89	0.808
705.08	0.806
705.26	0.800
705.45	0.800
705.63	0.798
705.82	0.794
706.00	0.792
706.19	0.792
706.38	0.791
706.56	0.790
706.75	0.787
706.93	0.787
707.12	0.788
707.30	0.788
707.49	0.785
707.68	0.783
707.86	0.780
708.05	0.779
708.23	0.776
708.42	0.776
708.60	0.779
708.79	0.778
708.98	0.776
709.16	0.775
709.35	0.776
709.53	0.782
709.72	0.781
709.90	0.784
710.09	0.787
710.27	0.788
710.46	0.795
710.64	0.791
710.83	0.793
711.02	0.795
711.20	0.794
711.39	0.792
711.57	0.787
711.76	0.787
711.94	0.784
712.13	0.785
712.31	0.784
712.50	0.776
712.68	0.774
712.87	0.775
713.05	0.775
713.24	0.774
713.42	0.773
713.61	0.774
713.79	0.775
713.98	0.774
714.16	0.776
714.35	0.775
714.54	0.775
714.72	0.775
714.91	0.772
715.09	0.782
715.28	0.785
715.46	0.785
715.65	0.782
715.83	0.782
716.02	0.784
716.20	0.779
716.39	0.779
716.57	0.781
716.76	0.783
716.94	0.782
717.12	0.771
717.31	0.774
717.49	0.778
717.68	0.780
717.86	0.780
718.05	0.783
718.23	0.785
718.42	0.788
718.60	0.790
718.79	0.803
718.97	0.807
719.16	0.807
719.34	0.804
719.53	0.802
719.71	0.801
719.90	0.802
720.08	0.798
720.27	0.798
720.45	0.798
720.63	0.794
720.82	0.783
721.00	0.785
721.19	0.788
721.37	0.785
721.56	0.786
721.74	0.789
721.93	0.800
722.11	0.807
722.30	0.806
722.48	0.811
722.66	0.809
722.85	0.806
723.03	0.807
723.22	0.805
723.40	0.808
723.59	0.806
723.77	0.812
723.95	0.801
724.14	0.803
724.32	0.805
724.51	0.805
724.69	0.807
724.88	0.806
725.06	0.802
725.24	0.804
725.43	0.807
725.61	0.809
725.80	0.801
725.98	0.801
726.16	0.793
726.35	0.800
726.53	0.798
726.72	0.797
726.90	0.812
727.09	0.813
727.27	0.820
727.45	0.816
727.64	0.828
727.82	0.837
728.01	0.842
728.19	0.841
728.37	0.848
728.56	0.851
728.74	0.861
728.92	0.842
729.11	0.845
729.29	0.839
729.48	0.840
729.66	0.826
729.84	0.825
730.03	0.825
730.21	0.826
730.40	0.812
730.58	0.814
730.76	0.810
730.95	0.813
731.13	0.813
731.31	0.831
731.50	0.840
731.68	0.843
731.86	0.838
732.05	0.858
732.23	0.860
732.42	0.864
732.60	0.866
732.78	0.870
732.97	0.889
733.15	0.896
733.33	0.880
733.52	0.887
733.70	0.898
733.88	0.909
734.07	0.889
734.25	0.926
734.43	0.936
734.62	0.941
734.80	0.938
734.98	0.926
735.17	0.932
735.35	0.942
735.53	0.931
735.72	0.934
735.90	0.965
736.08	0.991
736.27	0.956
736.45	0.966
736.63	0.977
736.82	0.991
737.00	0.990
737.18	1.006
737.37	1.048
737.55	1.085
737.73	1.079
737.92	1.077
738.10	1.073
738.28	1.104
738.46	1.089
738.65	1.115
738.83	1.142
739.01	1.247
739.20	1.235
739.38	1.199
739.56	1.171
739.75	1.185
739.93	1.139
740.11	1.179
740.29	1.167
740.48	1.182
740.66	1.152
740.84	1.143
741.03	1.076
741.21	1.087
741.39	1.072
741.57	1.099
741.76	1.116
741.94	1.126
742.12	1.077
742.31	1.091
742.49	1.119
742.67	1.156
742.85	1.191
743.04	1.208
743.22	1.220
743.40	1.326
743.58	1.304
743.77	1.339
743.95	1.429
744.13	1.589
744.31	1.554
744.50	1.523
744.68	1.507
744.86	1.444
745.04	1.488
745.23	1.798
745.41	1.653
745.59	1.660
745.77	1.640
745.96	1.574
746.14	1.558
746.32	1.568
746.50	1.562
746.69	1.535
746.87	1.561
747.05	1.498
747.23	1.324
747.42	1.311
747.60	1.342
747.78	1.319
747.96	1.405
748.14	1.312
748.33	1.374
748.51	1.371
748.69	1.384
748.87	1.430
749.06	1.423
749.24	1.382
749.42	1.349
749.60	1.335
749.78	1.349
749.97	1.250
750.15	1.249
750.33	1.236
750.51	1.272
750.69	1.249
750.88	1.282
751.06	1.288
751.24	1.326
751.42	1.327
751.60	1.304
751.79	1.468
751.97	1.597
752.15	1.588
752.33	1.497
752.51	1.720
752.69	1.829
752.88	1.677
753.06	1.987
753.24	1.890
753.42	1.997
753.60	-0.000
753.78	-0.000
753.97	-0.000
754.15	-0.000
754.33	-0.000
754.51	2.081
754.69	1.928
754.87	2.035
755.06	1.639
755.24	1.650
755.42	1.681
755.60	1.327
755.78	1.334
755.96	1.224
756.15	1.214
756.33	1.209
756.51	1.243
756.69	1.222
756.87	1.167
757.05	1.185
757.23	1.157
757.42	1.110
757.60	1.109
757.78	1.089
757.96	1.091
758.14	1.068
758.32	1.039
758.50	1.053
758.69	1.052
758.87	1.045
759.05	1.051
759.23	1.056
759.41	1.057
759.59	1.056
759.77	1.086
759.95	1.129
760.13	1.233
760.32	1.246
760.50	1.239
760.68	1.271
760.86	1.279
761.04	1.245
761.22	1.270
761.40	1.374
761.58	1.362
761.76	1.314
761.95	1.273
762.13	1.172
762.31	1.176
762.49	1.127
762.67	1.168
762.85	1.179
763.03	1.171
763.21	1.139
763.39	1.096
763.57	1.096
763.75	1.086
763.94	1.064
764.12	1.068
764.30	1.108
764.48	1.112
764.66	1.053
764.84	1.055
765.02	1.114
765.20	1.122
765.38	1.099
765.56	1.112
765.74	1.183
765.92	1.188
766.10	1.200
766.28	1.181
766.46	1.223
766.65	1.223
766.83	1.195
767.01	1.162
767.19	1.169
767.37	1.170
767.55	1.151
767.73	1.108
767.91	1.102
768.09	1.087
768.27	1.070
768.45	1.052
768.63	1.055
768.81	1.059
768.99	1.023
769.17	1.057
769.35	1.069
769.53	1.063
769.71	1.039
769.89	1.051
770.07	1.053
770.25	1.026
770.43	1.001
770.61	1.039
770.79	1.043
770.97	1.057
771.15	1.013
771.33	1.017
771.51	1.017
771.69	1.031
771.87	1.051
772.05	1.051
772.24	1.059
772.42	1.075
772.60	1.037
772.78	1.142
772.96	1.180
773.14	1.187
773.32	1.165
773.49	1.176
773.67	1.172
773.85	1.137
774.03	1.130
774.21	1.190
774.39	1.206
774.57	1.271
774.75	1.129
774.93	1.122
775.11	1.144
775.29	1.152
775.47	1.161
775.65	1.179
775.83	1.214
776.01	1.267
776.19	1.195
776.37	1.192
776.55	1.188
776.73	1.183
776.91	1.188
777.09	1.160
777.27	1.158
777.45	1.142
777.63	1.111
777.81	1.100
777.99	1.062
778.17	1.057
778.35	1.028
778.53	1.003
778.71	1.006
778.89	0.985
779.07	0.973
779.24	0.975
779.42	0.970
779.60	1.001
779.78	0.997
779.96	1.000
780.14	1.004
780.32	1.041
780.50	1.015
780.68	1.014
780.86	0.995
781.04	1.027
781.22	1.042
781.40	1.057
781.58	1.030
781.75	1.014
781.93	1.000
782.11	0.997
782.29	0.967
782.47	0.969
782.65	0.957
782.83	0.999
783.01	0.976
783.19	0.960
783.37	0.943
783.55	0.947
783.72	0.971
783.90	0.986
784.08	0.981
784.26	1.005
784.44	1.033
784.62	1.036
784.80	0.988
784.98	1.001
785.16	1.009
785.33	1.033
785.51	1.020
785.69	0.997
785.87	0.990
786.05	1.009
786.23	1.004
786.41	0.996
786.59	1.004
786.77	1.008
786.94	0.990
787.12	0.994
787.30	0.995
787.48	0.987
787.66	0.980
787.84	0.985
788.02	0.968
788.19	0.964
788.37	0.945
788.55	0.946
788.73	0.942
788.91	0.938
789.09	0.917
789.27	0.902
789.44	0.920
789.62	0.924
789.80	0.939
789.98	0.975
790.16	0.953
790.34	0.950
790.51	0.936
790.69	0.967
790.87	0.970
791.05	0.972
791.23	0.964
791.41	0.965
791.58	0.968
791.76	0.937
791.94	0.894
792.12	0.908
792.30	0.911
792.48	0.909
792.65	0.906
792.83	0.918
793.01	0.922
793.19	0.920
793.37	0.900
793.54	0.899
793.72	0.912
793.90	0.910
794.08	0.895
794.26	0.894
794.43	0.904
794.61	0.879
794.79	0.864
794.97	0.864
795.15	0.868
795.32	0.873
795.50	0.861
795.68	0.852
795.86	0.855
796.04	0.857
796.21	0.853
796.39	0.849
796.57	0.865
796.75	0.878
796.92	0.881
797.10	0.885
797.28	0.885
797.46	0.889
797.64	0.895
797.81	0.907
797.99	0.910
798.17	0.914
798.35	0.911
798.52	0.918
798.70	0.903
798.88	0.918
799.06	0.923
799.23	0.926
799.41	0.935
799.59	0.926
799.77	0.911
799.94	0.921
800.12	0.932
800.30	0.960
800.48	0.960
800.65	0.965
800.83	0.942
801.01	0.929
801.19	0.936
801.36	0.930
801.54	0.930
801.72	0.948
801.90	0.933
802.07	0.926
802.25	0.903
802.43	0.881
802.60	0.878
802.78	0.889
802.96	0.894
803.14	0.881
803.31	0.884
803.49	0.884
803.67	0.872
803.84	0.876
804.02	0.865
804.20	0.865
804.38	0.865
804.55	0.863
804.73	0.844
804.91	0.844
805.08	0.858
805.26	0.853
805.44	0.970
805.61	0.976
805.79	0.977
805.97	0.976
806.15	0.968
806.32	0.960
806.50	0.966
806.68	0.968
806.85	0.957
807.03	0.940
807.21	0.968
807.38	0.848
807.56	0.838
807.74	0.850
807.91	0.857
808.09	0.860
808.27	0.892
808.44	0.935
808.62	0.943
808.80	0.948
808.97	0.943
809.15	0.928
809.33	0.949
809.50	0.959
809.68	0.937
809.86	0.948
810.03	1.001
810.21	0.970
810.39	0.945
810.56	0.956
810.74	0.993
810.91	1.137
811.09	1.124
811.27	1.171
811.44	1.182
811.62	1.198
811.80	1.168
811.97	1.101
812.15	1.098
812.33	1.087
812.50	1.070
812.68	1.043
812.85	0.931
813.03	0.934
813.21	0.890
813.38	0.883
813.56	0.883
813.74	0.899
813.91	0.911
814.09	0.950
814.26	0.938
814.44	0.942
814.62	0.930
814.79	0.932
814.97	0.934
815.14	0.935
815.32	0.933
815.50	0.953
815.67	0.948
815.85	0.931
816.02	0.918
816.20	0.926
816.38	0.939
816.55	0.945
816.73	0.950
816.90	0.963
817.08	1.010
817.26	1.024
817.43	1.002
817.61	1.051
817.78	1.075
817.96	1.044
818.13	1.026
818.31	1.025
818.49	1.043
818.66	1.025
818.84	1.011
819.01	0.969
819.19	0.971
819.36	0.971
819.54	0.925
819.71	0.992
819.89	1.006
820.07	1.028
820.24	1.023
820.42	1.016
820.59	1.037
820.77	1.068
820.94	1.064
821.12	1.092
821.29	1.112
821.47	1.121
821.64	1.022
821.82	1.037
822.00	1.030
822.17	1.032
822.35	1.026
822.52	1.030
822.70	1.013
822.87	1.022
823.05	0.998
823.22	1.012
823.40	1.039
823.57	1.075
823.75	1.063
823.92	1.094
824.10	1.112
824.27	1.188
824.45	1.188
824.62	1.302
824.80	1.343
824.97	1.391
825.15	1.379
825.32	1.423
825.50	1.406
825.67	1.414
825.85	1.386
826.02	1.449
826.20	1.467
826.37	1.955
826.55	1.768
826.72	-0.000
826.90	-0.000
827.07	-0.000
827.25	-0.000
827.42	-0.000
827.60	-0.000
827.77	-0.000
827.95	-0.000
828.12	-0.000
828.30	-0.000
828.47	-0.000
828.65	-0.000
828.82	-0.000
829.00	-0.000
829.17	-0.000
829.34	-0.000
829.52	-0.000
829.69	-0.000
829.87	-0.000
830.04	-0.000
830.22	-0.000
830.39	-0.000
830.57	-0.000
830.74	-0.000
830.92	-0.000
831.09	-0.000
831.26	-0.000
831.44	-0.000
831.61	-0.000
831.79	-0.000
831.96	-0.000
832.14	-0.000
832.31	-0.000
832.49	-0.000
832.66	-0.000
832.83	-0.000
833.01	-0.000
833.18	-0.000
833.36	-0.000
833.53	-0.000
833.70	-0.000
833.88	-0.000
834.05	-0.000
834.23	-0.000
834.40	-0.000
834.58	-0.000
834.75	-0.000
834.92	-0.000
835.10	-0.000
835.27	-0.000
835.45	-0.000
835.62	-0.000
835.79	-0.000
835.97	-0.000
836.14	-0.000
836.32	-0.000
836.49	-0.000
836.66	-0.000
836.84	-0.000
837.01	-0.000
837.18	-0.000
837.36	-0.000
837.53	-0.000
837.71	-0.000
837.88	-0.000
838.05	-0.000
838.23	-0.000
838.40	-0.000
838.58	-0.000
838.75	-0.000
838.92	-0.000
839.10	-0.000
839.27	-0.000
839.44	-0.000
839.62	-0.000
839.79	-0.000
839.96	-0.000
840.14	-0.000
840.31	-0.000
840.48	-0.000
840.66	-0.000
840.83	-0.000
841.01	-0.000
841.18	-0.000
841.35	-0.000
841.53	-0.000
841.70	-0.000
841.87	-0.000
842.05	-0.000
842.22	-0.000
842.39	-0.000
842.57	-0.000
842.74	-0.000
842.91	-0.000
843.09	-0.000
843.26	-0.000
843.43	-0.000
843.60	-0.000
843.78	-0.000
843.95	-0.000
844.12	-0.000
844.30	-0.000
844.47	-0.000
844.64	-0.000
844.82	-0.000
844.99	-0.000
845.16	-0.000
845.34	-0.000
845.51	-0.000
845.68	-0.000
845.85	-0.000
846.03	-0.000
846.20	-0.000
846.37	-0.000
846.55	-0.000
846.72	-0.000
846.89	-0.000
847.06	-0.000
847.24	-0.000
847.41	-0.000
847.58	-0.000
847.76	-0.000
847.93	-0.000
848.10	-0.000
848.27	-0.000
848.45	-0.000
848.62	-0.000
848.79	-0.000
848.97	-0.000
849.14	-0.000
849.31	-0.000
849.48	-0.000
849.66	-0.000
849.83	-0.000
850.00	-0.000
850.17	-0.000
850.35	-0.000
850.52	-0.000
850.69	-0.000
850.86	-0.000
851.04	-0.000
851.21	-0.000
851.38	-0.000
851.55	-0.000
851.72	-0.000
851.90	-0.000
852.07	-0.000
852.24	-0.000
852.41	-0.000
852.59	-0.000
852.76	-0.000
852.93	-0.000
853.10	-0.000
853.28	-0.000
853.45	-0.000
853.62	-0.000
853.79	-0.000
853.96	-0.000
854.14	-0.000
854.31	-0.000
854.48	-0.000
854.65	-0.000
854.82	-0.000
855.00	-0.000
855.17	-0.000
855.34	-0.000
855.51	-0.000
855.68	-0.000
855.86	-0.000
856.03	-0.000
856.20	-0.000
856.37	-0.000
856.54	-0.000
856.72	-0.000
856.89	-0.000
857.06	-0.000
857.23	-0.000
857.40	-0.000
857.57	-0.000
857.75	-0.000
857.92	-0.000
858.09	-0.000
858.26	-0.000
858.43	-0.000
858.60	-0.000
858.78	-0.000
858.95	-0.000
859.12	-0.000
859.29	-0.000
859.46	-0.000
859.63	-0.000
859.81	-0.000
859.98	-0.000
860.15	-0.000
860.32	-0.000
860.49	-0.000
860.66	-0.000
860.83	-0.000
861.01	-0.000
861.18	-0.000
861.35	-0.000
861.52	-0.000
861.69	-0.000
861.86	-0.000
862.03	-0.000
862.21	-0.000
862.38	-0.000
862.55	-0.000
862.72	-0.000
862.89	-0.000
863.06	-0.000
863.23	-0.000
863.40	-0.000
863.58	-0.000
863.75	-0.000
863.92	-0.000
864.09	-0.000
864.26	-0.000
864.43	-0.000
864.60	-0.000
864.77	-0.000
864.94	-0.000
865.11	-0.000
865.29	-0.000
865.46	-0.000
865.63	-0.000
865.80	-0.000
865.97	-0.000
866.14	-0.000
866.31	-0.000
866.48	-0.000
866.65	-0.000
866.82	-0.000
866.99	-0.000
867.16	-0.000
867.34	-0.000
867.51	-0.000
867.68	-0.000
867.85	-0.000
868.02	-0.000
868.19	-0.000
868.36	-0.000
868.53	-0.000
868.70	-0.000
868.87	-0.000
869.04	-0.000
869.21	-0.000
869.38	-0.000
869.55	-0.000
869.72	-0.000
869.89	-0.000
870.06	-0.000
870.24	-0.000
870.41	-0.000
870.58	-0.000
870.75	-0.000
870.92	-0.000
871.09	-0.000
871.26	-0.000
871.43	-0.000
871.60	-0.000
871.77	-0.000
871.94	-0.000
872.11	-0.000
872.28	-0.000
872.45	-0.000
872.62	-0.000
872.79	-0.000
872.96	-0.000
873.13	-0.000
873.30	-0.000
873.47	-0.000
873.64	-0.000
873.81	-0.000
873.98	-0.000
874.15	-0.000
874.32	-0.000
874.49	-0.000
874.66	-0.000
874.83	-0.000
875.00	-0.000
875.17	-0.000
875.34	-0.000
875.51	-0.000
875.68	-0.000
875.85	-0.000
876.02	-0.000
876.19	-0.000
876.36	-0.000
876.53	-0.000
876.70	-0.000
876.87	-0.000
877.04	-0.000
877.21	-0.000
877.38	-0.000
877.55	-0.000
877.72	-0.000
877.89	-0.000
878.06	-0.000
878.23	-0.000
878.39	-0.000
878.56	-0.000
878.73	-0.000
878.90	-0.000
879.07	-0.000
879.24	-0.000
879.41	-0.000
879.58	-0.000
879.75	-0.000
879.92	-0.000
880.09	-0.000
880.26	-0.000
880.43	-0.000
880.60	-0.000
880.77	-0.000
880.94	-0.000
881.11	-0.000
881.27	-0.000
881.44	-0.000
881.61	-0.000
881.78	-0.000
881.95	-0.000
882.12	-0.000
882.29	-0.000
882.46	-0.000
882.63	-0.000
882.80	-0.000
882.97	-0.000
883.14	-0.000
883.30	-0.000
883.47	-0.000
883.64	-0.000
883.81	-0.000
883.98	-0.000
884.15	-0.000
884.32	-0.000
884.49	-0.000
884.66	-0.000
884.82	-0.000
884.99	-0.000
885.16	-0.000
885.33	-0.000
885.50	-0.000
885.67	-0.000
885.84	-0.000
886.01	-0.000
886.17	-0.000
886.34	-0.000
886.51	-0.000
886.68	-0.000
886.85	-0.000
887.02	-0.000
887.19	-0.000
887.36	-0.000
887.52	-0.000
887.69	-0.000
887.86	-0.000
888.03	-0.000
888.20	-0.000
888.37	-0.000
888.54	-0.000
888.70	-0.000
888.87	-0.000
889.04	-0.000
889.21	-0.000
889.38	-0.000
889.55	-0.000
889.71	-0.000
889.88	-0.000
890.05	-0.000
890.22	-0.000
890.39	-0.000
>>>>>End Processed Spectral Data<<<<<
