SpectraSuite Data File
++++++++++++++++++++++++++++++++++++
Date: Fri Jun 19 15:50:02 CEST 2015
User: introlabs
Dark Spectrum Present: Yes
Reference Spectrum Present: Yes
Number of Sampled Component Spectra: 1
Spectrometers: USB4H08886
Integration Time (usec): 745692 (USB4H08886)
Spectra Averaged: 5 (USB4H08886)
Boxcar Smoothing: 5 (USB4H08886)
Correct for Electrical Dark: Yes (USB4H08886)
Strobe/Lamp Enabled: No (USB4H08886)
Correct for Detector Non-linearity: Yes (USB4H08886)
Correct for Stray Light: Yes (USB4H08886)
Number of Pixels in Processed Spectrum: 3648
>>>>>Begin Processed Spectral Data<<<<<
178.14	-0.000
178.36	-0.000
178.57	-0.000
178.79	-0.000
179.01	-0.000
179.22	-0.000
179.44	-0.000
179.65	-0.000
179.87	-0.000
180.08	-0.000
180.30	-0.000
180.52	-0.000
180.73	-0.000
180.95	-0.000
181.16	-0.000
181.38	-0.000
181.59	-0.000
181.81	-0.000
182.03	-0.000
182.24	-0.000
182.46	-0.000
182.67	-0.000
182.89	-0.000
183.10	-0.000
183.32	-0.000
183.54	-0.000
183.75	-0.000
183.97	-0.000
184.18	-0.000
184.40	-0.000
184.61	-0.000
184.83	-0.000
185.04	-0.000
185.26	-0.000
185.48	-0.000
185.69	-0.000
185.91	-0.000
186.12	-0.000
186.34	-0.000
186.55	-0.000
186.77	-0.000
186.98	-0.000
187.20	-0.000
187.42	-0.000
187.63	-0.000
187.85	-0.000
188.06	-0.000
188.28	-0.000
188.49	-0.000
188.71	-0.000
188.92	-0.000
189.14	-0.000
189.36	-0.000
189.57	-0.000
189.79	-0.000
190.00	-0.000
190.22	-0.000
190.43	-0.000
190.65	-0.000
190.86	-0.000
191.08	-0.000
191.29	-0.000
191.51	-0.000
191.72	-0.000
191.94	-0.000
192.16	-0.000
192.37	-0.000
192.59	-0.000
192.80	-0.000
193.02	-0.000
193.23	-0.000
193.45	-0.000
193.66	-0.000
193.88	-0.000
194.09	-0.000
194.31	-0.000
194.52	-0.000
194.74	-0.000
194.95	-0.000
195.17	-0.000
195.38	-0.000
195.60	-0.000
195.81	-0.000
196.03	-0.000
196.25	-0.000
196.46	-0.000
196.68	-0.000
196.89	-0.000
197.11	-0.000
197.32	-0.000
197.54	-0.000
197.75	-0.000
197.97	-0.000
198.18	-0.000
198.40	-0.000
198.61	-0.000
198.83	-0.000
199.04	-0.000
199.26	-0.000
199.47	-0.000
199.69	-0.000
199.90	-0.000
200.12	-0.000
200.33	-0.000
200.55	-0.000
200.76	-0.000
200.98	-0.000
201.19	-0.000
201.41	-0.000
201.62	-0.000
201.84	-0.000
202.05	-0.000
202.27	-0.000
202.48	-0.000
202.70	-0.000
202.91	-0.000
203.13	-0.000
203.34	-0.000
203.56	-0.000
203.77	-0.000
203.99	-0.000
204.20	-0.000
204.42	-0.000
204.63	-0.000
204.85	-0.000
205.06	-0.000
205.28	-0.000
205.49	-0.000
205.71	-0.000
205.92	-0.000
206.14	-0.000
206.35	-0.000
206.56	-0.000
206.78	-0.000
206.99	-0.000
207.21	-0.000
207.42	-0.000
207.64	-0.000
207.85	-0.000
208.07	-0.000
208.28	-0.000
208.50	-0.000
208.71	-0.000
208.93	-0.000
209.14	-0.000
209.36	-0.000
209.57	-0.000
209.79	-0.000
210.00	-0.000
210.22	-0.000
210.43	-0.000
210.64	-0.000
210.86	-0.000
211.07	-0.000
211.29	-0.000
211.50	-0.000
211.72	-0.000
211.93	-0.000
212.15	-0.000
212.36	-0.000
212.58	-0.000
212.79	-0.000
213.01	-0.000
213.22	-0.000
213.43	-0.000
213.65	-0.000
213.86	-0.000
214.08	-0.000
214.29	-0.000
214.51	-0.000
214.72	-0.000
214.94	-0.000
215.15	-0.000
215.36	-0.000
215.58	-0.000
215.79	-0.000
216.01	-0.000
216.22	-0.000
216.44	-0.000
216.65	-0.000
216.87	-0.000
217.08	-0.000
217.29	-0.000
217.51	-0.000
217.72	-0.000
217.94	-0.000
218.15	-0.000
218.37	-0.000
218.58	-0.000
218.80	-0.000
219.01	-0.000
219.22	-0.000
219.44	-0.000
219.65	-0.000
219.87	-0.000
220.08	-0.000
220.30	-0.000
220.51	-0.000
220.72	-0.000
220.94	-0.000
221.15	-0.000
221.37	-0.000
221.58	-0.000
221.79	-0.000
222.01	-0.000
222.22	-0.000
222.44	-0.000
222.65	-0.000
222.87	-0.000
223.08	-0.000
223.29	-0.000
223.51	-0.000
223.72	-0.000
223.94	-0.000
224.15	-0.000
224.36	-0.000
224.58	-0.000
224.79	-0.000
225.01	-0.000
225.22	-0.000
225.44	-0.000
225.65	-0.000
225.86	-0.000
226.08	-0.000
226.29	-0.000
226.51	-0.000
226.72	-0.000
226.93	-0.000
227.15	-0.000
227.36	-0.000
227.58	-0.000
227.79	-0.000
228.00	-0.000
228.22	-0.000
228.43	-0.000
228.65	-0.000
228.86	-0.000
229.07	-0.000
229.29	-0.000
229.50	-0.000
229.72	-0.000
229.93	-0.000
230.14	-0.000
230.36	-0.000
230.57	-0.000
230.78	-0.000
231.00	-0.000
231.21	-0.000
231.43	-0.000
231.64	-0.000
231.85	-0.000
232.07	-0.000
232.28	-0.000
232.50	-0.000
232.71	-0.000
232.92	-0.000
233.14	-0.000
233.35	-0.000
233.56	-0.000
233.78	-0.000
233.99	-0.000
234.21	-0.000
234.42	-0.000
234.63	-0.000
234.85	-0.000
235.06	-0.000
235.27	-0.000
235.49	-0.000
235.70	-0.000
235.91	-0.000
236.13	-0.000
236.34	-0.000
236.56	-0.000
236.77	-0.000
236.98	-0.000
237.20	-0.000
237.41	-0.000
237.62	-0.000
237.84	-0.000
238.05	-0.000
238.26	-0.000
238.48	-0.000
238.69	-0.000
238.91	-0.000
239.12	-0.000
239.33	-0.000
239.55	-0.000
239.76	-0.000
239.97	-0.000
240.19	-0.000
240.40	-0.000
240.61	-0.000
240.83	-0.000
241.04	-0.000
241.25	-0.000
241.47	-0.000
241.68	-0.000
241.89	-0.000
242.11	-0.000
242.32	-0.000
242.53	-0.000
242.75	-0.000
242.96	-0.000
243.17	-0.000
243.39	-0.000
243.60	-0.000
243.81	-0.000
244.03	-0.000
244.24	-0.000
244.45	-0.000
244.67	-0.000
244.88	-0.000
245.09	-0.000
245.31	-0.000
245.52	-0.000
245.73	-0.000
245.95	-0.000
246.16	-0.000
246.37	-0.000
246.59	-0.000
246.80	-0.000
247.01	-0.000
247.23	-0.000
247.44	-0.000
247.65	-0.000
247.87	-0.000
248.08	-0.000
248.29	-0.000
248.51	-0.000
248.72	-0.000
248.93	-0.000
249.15	-0.000
249.36	-0.000
249.57	-0.000
249.78	-0.000
250.00	-0.000
250.21	-0.000
250.42	-0.000
250.64	-0.000
250.85	-0.000
251.06	-0.000
251.28	-0.000
251.49	-0.000
251.70	-0.000
251.92	-0.000
252.13	-0.000
252.34	-0.000
252.55	-0.000
252.77	-0.000
252.98	-0.000
253.19	-0.000
253.41	-0.000
253.62	-0.000
253.83	-0.000
254.05	-0.000
254.26	-0.000
254.47	-0.000
254.68	-0.000
254.90	-0.000
255.11	-0.000
255.32	-0.000
255.54	-0.000
255.75	-0.000
255.96	-0.000
256.17	-0.000
256.39	-0.000
256.60	-0.000
256.81	-0.000
257.03	-0.000
257.24	-0.000
257.45	-0.000
257.66	-0.000
257.88	-0.000
258.09	-0.000
258.30	-0.000
258.51	-0.000
258.73	-0.000
258.94	-0.000
259.15	-0.000
259.37	-0.000
259.58	-0.000
259.79	-0.000
260.00	-0.000
260.22	-0.000
260.43	-0.000
260.64	-0.000
260.85	-0.000
261.07	-0.000
261.28	-0.000
261.49	-0.000
261.71	-0.000
261.92	-0.000
262.13	-0.000
262.34	-0.000
262.56	-0.000
262.77	-0.000
262.98	-0.000
263.19	-0.000
263.41	-0.000
263.62	-0.000
263.83	-0.000
264.04	-0.000
264.26	-0.000
264.47	-0.000
264.68	-0.000
264.89	-0.000
265.11	-0.000
265.32	-0.000
265.53	-0.000
265.74	-0.000
265.96	-0.000
266.17	-0.000
266.38	-0.000
266.59	-0.000
266.81	-0.000
267.02	-0.000
267.23	-0.000
267.44	-0.000
267.65	-0.000
267.87	-0.000
268.08	-0.000
268.29	-0.000
268.50	-0.000
268.72	-0.000
268.93	-0.000
269.14	-0.000
269.35	-0.000
269.57	-0.000
269.78	-0.000
269.99	-0.000
270.20	-0.000
270.41	-0.000
270.63	-0.000
270.84	-0.000
271.05	-0.000
271.26	-0.000
271.48	-0.000
271.69	-0.000
271.90	-0.000
272.11	-0.000
272.32	-0.000
272.54	-0.000
272.75	-0.000
272.96	-0.000
273.17	-0.000
273.39	-0.000
273.60	-0.000
273.81	-0.000
274.02	-0.000
274.23	-0.000
274.45	-0.000
274.66	-0.000
274.87	-0.000
275.08	-0.000
275.29	-0.000
275.51	-0.000
275.72	-0.000
275.93	-0.000
276.14	-0.000
276.35	-0.000
276.57	-0.000
276.78	-0.000
276.99	-0.000
277.20	-0.000
277.41	-0.000
277.63	-0.000
277.84	-0.000
278.05	-0.000
278.26	-0.000
278.47	-0.000
278.69	-0.000
278.90	-0.000
279.11	-0.000
279.32	-0.000
279.53	-0.000
279.74	-0.000
279.96	-0.000
280.17	-0.000
280.38	-0.000
280.59	-0.000
280.80	-0.000
281.02	-0.000
281.23	-0.000
281.44	-0.000
281.65	-0.000
281.86	-0.000
282.07	-0.000
282.29	-0.000
282.50	-0.000
282.71	-0.000
282.92	-0.000
283.13	-0.000
283.35	-0.000
283.56	-0.000
283.77	-0.000
283.98	-0.000
284.19	-0.000
284.40	-0.000
284.62	-0.000
284.83	-0.000
285.04	-0.000
285.25	-0.000
285.46	-0.000
285.67	-0.000
285.88	-0.000
286.10	-0.000
286.31	-0.000
286.52	-0.000
286.73	-0.000
286.94	-0.000
287.15	-0.000
287.37	-0.000
287.58	-0.000
287.79	-0.000
288.00	-0.000
288.21	-0.000
288.42	-0.000
288.63	-0.000
288.85	-0.000
289.06	-0.000
289.27	-0.000
289.48	-0.000
289.69	-0.000
289.90	-0.000
290.11	-0.000
290.33	-0.000
290.54	-0.000
290.75	-0.000
290.96	-0.000
291.17	-0.000
291.38	-0.000
291.59	-0.000
291.81	-0.000
292.02	-0.000
292.23	-0.000
292.44	-0.000
292.65	-0.000
292.86	-0.000
293.07	-0.000
293.28	2.512
293.50	3.182
293.71	-0.000
293.92	-0.000
294.13	-0.000
294.34	-0.000
294.55	-0.000
294.76	-0.000
294.97	3.476
295.19	-0.000
295.40	-0.000
295.61	-0.000
295.82	2.796
296.03	2.260
296.24	2.344
296.45	1.838
296.66	1.635
296.87	1.653
297.09	1.686
297.30	1.820
297.51	1.600
297.72	1.594
297.93	1.653
298.14	1.617
298.35	1.595
298.56	1.577
298.77	1.654
298.99	1.635
299.20	1.636
299.41	1.622
299.62	1.568
299.83	1.554
300.04	1.497
300.25	1.491
300.46	1.521
300.67	1.502
300.88	1.467
301.10	1.472
301.31	1.524
301.52	1.464
301.73	1.425
301.94	1.432
302.15	1.438
302.36	1.409
302.57	1.360
302.78	1.365
302.99	1.388
303.20	1.406
303.41	1.335
303.63	1.319
303.84	1.321
304.05	1.318
304.26	1.272
304.47	1.277
304.68	1.273
304.89	1.268
305.10	1.241
305.31	1.228
305.52	1.266
305.73	1.265
305.94	1.232
306.15	1.226
306.37	1.244
306.58	1.251
306.79	1.229
307.00	1.251
307.21	1.285
307.42	1.278
307.63	1.256
307.84	1.220
308.05	1.250
308.26	1.249
308.47	1.234
308.68	1.233
308.89	1.227
309.10	1.223
309.31	1.189
309.52	1.179
309.73	1.189
309.95	1.183
310.16	1.160
310.37	1.150
310.58	1.164
310.79	1.162
311.00	1.161
311.21	1.162
311.42	1.163
311.63	1.159
311.84	1.144
312.05	1.141
312.26	1.158
312.47	1.170
312.68	1.148
312.89	1.133
313.10	1.137
313.31	1.112
313.52	1.117
313.73	1.119
313.94	1.118
314.15	1.101
314.36	1.086
314.57	1.083
314.78	1.070
314.99	1.065
315.21	1.055
315.42	1.060
315.63	1.070
315.84	1.049
316.05	1.036
316.26	1.044
316.47	1.058
316.68	1.055
316.89	1.037
317.10	1.056
317.31	1.060
317.52	1.063
317.73	1.046
317.94	1.046
318.15	1.082
318.36	1.081
318.57	1.067
318.78	1.058
318.99	1.087
319.20	1.083
319.41	1.054
319.62	1.055
319.83	1.065
320.04	1.061
320.25	1.050
320.46	1.019
320.67	1.022
320.88	1.018
321.09	1.006
321.30	0.995
321.51	1.008
321.72	1.006
321.93	0.994
322.14	0.987
322.35	1.011
322.56	1.013
322.77	1.004
322.98	1.015
323.19	1.021
323.40	1.029
323.61	1.007
323.82	1.002
324.03	1.005
324.24	1.002
324.45	0.992
324.66	0.972
324.87	0.967
325.08	0.966
325.29	0.949
325.50	0.941
325.71	0.945
325.92	0.953
326.13	0.941
326.34	0.942
326.55	0.948
326.76	0.947
326.97	0.939
327.18	0.935
327.39	0.958
327.60	0.959
327.80	0.963
328.01	0.961
328.22	0.959
328.43	0.963
328.64	0.952
328.85	0.956
329.06	0.957
329.27	0.956
329.48	0.953
329.69	0.935
329.90	0.943
330.11	0.935
330.32	0.930
330.53	0.924
330.74	0.923
330.95	0.922
331.16	0.909
331.37	0.917
331.58	0.916
331.79	0.917
332.00	0.910
332.21	0.904
332.42	0.908
332.63	0.898
332.83	0.896
333.04	0.899
333.25	0.909
333.46	0.909
333.67	0.896
333.88	0.898
334.09	0.906
334.30	0.904
334.51	0.897
334.72	0.893
334.93	0.896
335.14	0.895
335.35	0.887
335.56	0.883
335.77	0.888
335.98	0.887
336.18	0.881
336.39	0.873
336.60	0.876
336.81	0.875
337.02	0.874
337.23	0.878
337.44	0.880
337.65	0.883
337.86	0.874
338.07	0.871
338.28	0.873
338.49	0.872
338.70	0.867
338.91	0.873
339.11	0.879
339.32	0.877
339.53	0.867
339.74	0.864
339.95	0.859
340.16	0.857
340.37	0.850
340.58	0.849
340.79	0.852
341.00	0.851
341.21	0.842
341.41	0.841
341.62	0.841
341.83	0.841
342.04	0.837
342.25	0.847
342.46	0.849
342.67	0.849
342.88	0.844
343.09	0.843
343.30	0.848
343.50	0.851
343.71	0.843
343.92	0.842
344.13	0.846
344.34	0.846
344.55	0.832
344.76	0.830
344.97	0.833
345.18	0.832
345.38	0.830
345.59	0.826
345.80	0.825
346.01	0.823
346.22	0.820
346.43	0.815
346.64	0.821
346.85	0.820
347.06	0.816
347.26	0.816
347.47	0.820
347.68	0.815
347.89	0.812
348.10	0.807
348.31	0.813
348.52	0.811
348.73	0.809
348.93	0.807
349.14	0.808
349.35	0.807
349.56	0.802
349.77	0.797
349.98	0.802
350.19	0.800
350.39	0.796
350.60	0.791
350.81	0.806
351.02	0.806
351.23	0.801
351.44	0.805
351.65	0.808
351.86	0.806
352.06	0.805
352.27	0.805
352.48	0.806
352.69	0.805
352.90	0.800
353.11	0.787
353.31	0.794
353.52	0.790
353.73	0.783
353.94	0.785
354.15	0.790
354.36	0.789
354.57	0.782
354.77	0.784
354.98	0.785
355.19	0.785
355.40	0.784
355.61	0.789
355.82	0.792
356.02	0.791
356.23	0.784
356.44	0.786
356.65	0.788
356.86	0.789
357.07	0.782
357.27	0.784
357.48	0.786
357.69	0.782
357.90	0.768
358.11	0.766
358.32	0.768
358.52	0.771
358.73	0.762
358.94	0.765
359.15	0.768
359.36	0.769
359.56	0.765
359.77	0.763
359.98	0.769
360.19	0.769
360.40	0.766
360.61	0.768
360.81	0.766
361.02	0.766
361.23	0.758
361.44	0.756
361.65	0.757
361.85	0.756
362.06	0.755
362.27	0.757
362.48	0.757
362.69	0.758
362.89	0.752
363.10	0.754
363.31	0.759
363.52	0.762
363.73	0.758
363.93	0.758
364.14	0.759
364.35	0.760
364.56	0.751
364.77	0.753
364.97	0.754
365.18	0.755
365.39	0.751
365.60	0.747
365.81	0.746
366.01	0.747
366.22	0.744
366.43	0.743
366.64	0.745
366.84	0.750
367.05	0.746
367.26	0.746
367.47	0.747
367.68	0.747
367.88	0.745
368.09	0.743
368.30	0.745
368.51	0.745
368.71	0.744
368.92	0.748
369.13	0.745
369.34	0.745
369.55	0.745
369.75	0.744
369.96	0.750
370.17	0.749
370.38	0.747
370.58	0.747
370.79	0.751
371.00	0.750
371.21	0.743
371.41	0.748
371.62	0.752
371.83	0.747
372.04	0.746
372.24	0.740
372.45	0.740
372.66	0.740
372.87	0.737
373.07	0.734
373.28	0.735
373.49	0.738
373.70	0.730
373.90	0.728
374.11	0.737
374.32	0.737
374.53	0.737
374.73	0.738
374.94	0.740
375.15	0.740
375.36	0.738
375.56	0.747
375.77	0.747
375.98	0.746
376.19	0.744
376.39	0.738
376.60	0.741
376.81	0.741
377.02	0.739
377.22	0.738
377.43	0.738
377.64	0.738
377.84	0.729
378.05	0.734
378.26	0.740
378.47	0.739
378.67	0.737
378.88	0.735
379.09	0.735
379.30	0.735
379.50	0.733
379.71	0.735
379.92	0.737
380.12	0.736
380.33	0.729
380.54	0.725
380.75	0.732
380.95	0.731
381.16	0.730
381.37	0.730
381.57	0.730
381.78	0.731
381.99	0.731
382.20	0.731
382.40	0.734
382.61	0.735
382.82	0.731
383.02	0.725
383.23	0.728
383.44	0.728
383.64	0.727
383.85	0.729
384.06	0.732
384.27	0.729
384.47	0.728
384.68	0.729
384.89	0.734
385.09	0.734
385.30	0.734
385.51	0.732
385.71	0.736
385.92	0.737
386.13	0.736
386.33	0.738
386.54	0.738
386.75	0.737
386.95	0.733
387.16	0.729
387.37	0.731
387.58	0.731
387.78	0.730
387.99	0.727
388.20	0.728
388.40	0.726
388.61	0.722
388.82	0.726
389.02	0.728
389.23	0.728
389.44	0.727
389.64	0.728
389.85	0.739
390.06	0.739
390.26	0.740
390.47	0.740
390.68	0.742
390.88	0.740
391.09	0.736
391.30	0.735
391.50	0.735
391.71	0.735
391.92	0.732
392.12	0.724
392.33	0.724
392.53	0.724
392.74	0.725
392.95	0.724
393.15	0.727
393.36	0.728
393.57	0.727
393.77	0.730
393.98	0.731
394.19	0.731
394.39	0.731
394.60	0.734
394.81	0.735
395.01	0.733
395.22	0.731
395.43	0.732
395.63	0.737
395.84	0.738
396.04	0.734
396.25	0.736
396.46	0.737
396.66	0.736
396.87	0.734
397.08	0.732
397.28	0.734
397.49	0.736
397.69	0.733
397.90	0.727
398.11	0.728
398.31	0.729
398.52	0.726
398.73	0.727
398.93	0.726
399.14	0.725
399.34	0.723
399.55	0.724
399.76	0.724
399.96	0.725
400.17	0.724
400.37	0.723
400.58	0.730
400.79	0.731
400.99	0.729
401.20	0.735
401.41	0.738
401.61	0.740
401.82	0.746
402.02	0.745
402.23	0.747
402.44	0.746
402.64	0.746
402.85	0.741
403.05	0.740
403.26	0.739
403.47	0.733
403.67	0.732
403.88	0.731
404.08	0.725
404.29	0.723
404.50	0.723
404.70	0.723
404.91	0.723
405.11	0.720
405.32	0.720
405.52	0.720
405.73	0.720
405.94	0.720
406.14	0.722
406.35	0.724
406.55	0.724
406.76	0.722
406.97	0.723
407.17	0.726
407.38	0.726
407.58	0.724
407.79	0.727
407.99	0.728
408.20	0.729
408.41	0.725
408.61	0.723
408.82	0.724
409.02	0.724
409.23	0.721
409.43	0.720
409.64	0.721
409.84	0.721
410.05	0.718
410.26	0.717
410.46	0.716
410.67	0.716
410.87	0.718
411.08	0.720
411.28	0.721
411.49	0.722
411.69	0.720
411.90	0.722
412.11	0.724
412.31	0.725
412.52	0.724
412.72	0.725
412.93	0.725
413.13	0.724
413.34	0.720
413.54	0.722
413.75	0.724
413.95	0.723
414.16	0.720
414.37	0.722
414.57	0.722
414.78	0.724
414.98	0.723
415.19	0.723
415.39	0.721
415.60	0.723
415.80	0.722
416.01	0.720
416.21	0.722
416.42	0.722
416.62	0.718
416.83	0.718
417.03	0.718
417.24	0.717
417.44	0.715
417.65	0.715
417.86	0.715
418.06	0.712
418.27	0.710
418.47	0.711
418.68	0.711
418.88	0.712
419.09	0.710
419.29	0.710
419.50	0.711
419.70	0.711
419.91	0.710
420.11	0.708
420.32	0.710
420.52	0.710
420.73	0.710
420.93	0.711
421.14	0.712
421.34	0.711
421.55	0.708
421.75	0.707
421.96	0.708
422.16	0.707
422.37	0.706
422.57	0.704
422.78	0.705
422.98	0.702
423.19	0.699
423.39	0.697
423.60	0.701
423.80	0.703
424.01	0.702
424.21	0.704
424.42	0.705
424.62	0.704
424.83	0.703
425.03	0.704
425.23	0.706
425.44	0.706
425.64	0.707
425.85	0.706
426.05	0.706
426.26	0.706
426.46	0.703
426.67	0.703
426.87	0.707
427.08	0.708
427.28	0.706
427.49	0.707
427.69	0.708
427.90	0.706
428.10	0.703
428.31	0.703
428.51	0.705
428.71	0.704
428.92	0.705
429.12	0.703
429.33	0.703
429.53	0.707
429.74	0.712
429.94	0.711
430.15	0.711
430.35	0.711
430.56	0.708
430.76	0.707
430.96	0.708
431.17	0.705
431.37	0.702
431.58	0.700
431.78	0.697
431.99	0.689
432.19	0.692
432.40	0.693
432.60	0.694
432.80	0.696
433.01	0.694
433.21	0.694
433.42	0.696
433.62	0.697
433.83	0.696
434.03	0.699
434.23	0.702
434.44	0.700
434.64	0.698
434.85	0.703
435.05	0.704
435.26	0.705
435.46	0.703
435.66	0.702
435.87	0.702
436.07	0.702
436.28	0.697
436.48	0.695
436.69	0.694
436.89	0.694
437.09	0.687
437.30	0.685
437.50	0.685
437.71	0.697
437.91	0.696
438.11	0.697
438.32	0.701
438.52	0.701
438.73	0.700
438.93	0.698
439.13	0.697
439.34	0.701
439.54	0.700
439.75	0.700
439.95	0.690
440.15	0.694
440.36	0.692
440.56	0.690
440.77	0.690
440.97	0.690
441.17	0.690
441.38	0.692
441.58	0.689
441.79	0.688
441.99	0.687
442.19	0.686
442.40	0.683
442.60	0.684
442.81	0.682
443.01	0.681
443.21	0.682
443.42	0.681
443.62	0.679
443.82	0.679
444.03	0.680
444.23	0.680
444.44	0.680
444.64	0.679
444.84	0.680
445.05	0.680
445.25	0.678
445.45	0.678
445.66	0.680
445.86	0.680
446.06	0.681
446.27	0.680
446.47	0.682
446.68	0.681
446.88	0.680
447.08	0.679
447.29	0.681
447.49	0.680
447.69	0.680
447.90	0.679
448.10	0.682
448.30	0.679
448.51	0.680
448.71	0.678
448.91	0.680
449.12	0.679
449.32	0.680
449.52	0.679
449.73	0.683
449.93	0.682
450.14	0.682
450.34	0.681
450.54	0.683
450.75	0.681
450.95	0.680
451.15	0.679
451.36	0.682
451.56	0.679
451.76	0.678
451.97	0.675
452.17	0.675
452.37	0.674
452.58	0.671
452.78	0.671
452.98	0.672
453.19	0.671
453.39	0.673
453.59	0.671
453.79	0.672
454.00	0.672
454.20	0.671
454.40	0.671
454.61	0.674
454.81	0.674
455.01	0.672
455.22	0.674
455.42	0.675
455.62	0.673
455.83	0.673
456.03	0.676
456.23	0.676
456.44	0.677
456.64	0.676
456.84	0.675
457.04	0.676
457.25	0.675
457.45	0.671
457.65	0.671
457.86	0.671
458.06	0.670
458.26	0.666
458.47	0.666
458.67	0.667
458.87	0.667
459.07	0.665
459.28	0.667
459.48	0.669
459.68	0.669
459.89	0.668
460.09	0.666
460.29	0.667
460.49	0.669
460.70	0.667
460.90	0.666
461.10	0.667
461.31	0.666
461.51	0.663
461.71	0.665
461.91	0.666
462.12	0.666
462.32	0.666
462.52	0.666
462.72	0.669
462.93	0.670
463.13	0.669
463.33	0.671
463.53	0.672
463.74	0.672
463.94	0.667
464.14	0.668
464.35	0.668
464.55	0.668
464.75	0.666
464.95	0.664
465.16	0.666
465.36	0.664
465.56	0.664
465.76	0.663
465.97	0.663
466.17	0.664
466.37	0.662
466.57	0.663
466.78	0.664
466.98	0.664
467.18	0.662
467.38	0.660
467.59	0.662
467.79	0.663
467.99	0.662
468.19	0.664
468.39	0.666
468.60	0.667
468.80	0.665
469.00	0.666
469.20	0.667
469.41	0.667
469.61	0.666
469.81	0.666
470.01	0.665
470.22	0.666
470.42	0.664
470.62	0.662
470.82	0.663
471.02	0.662
471.23	0.661
471.43	0.661
471.63	0.663
471.83	0.663
472.04	0.662
472.24	0.661
472.44	0.666
472.64	0.665
472.84	0.664
473.05	0.664
473.25	0.667
473.45	0.666
473.65	0.665
473.85	0.666
474.06	0.667
474.26	0.667
474.46	0.668
474.66	0.664
474.86	0.665
475.07	0.665
475.27	0.663
475.47	0.660
475.67	0.661
475.87	0.662
476.08	0.659
476.28	0.660
476.48	0.661
476.68	0.659
476.88	0.657
477.09	0.658
477.29	0.659
477.49	0.659
477.69	0.658
477.89	0.658
478.09	0.657
478.30	0.660
478.50	0.658
478.70	0.657
478.90	0.658
479.10	0.660
479.31	0.661
479.51	0.660
479.71	0.661
479.91	0.661
480.11	0.660
480.31	0.661
480.52	0.660
480.72	0.659
480.92	0.658
481.12	0.657
481.32	0.655
481.52	0.652
481.72	0.652
481.93	0.656
482.13	0.656
482.33	0.655
482.53	0.653
482.73	0.654
482.93	0.655
483.14	0.655
483.34	0.654
483.54	0.655
483.74	0.654
483.94	0.653
484.14	0.650
484.34	0.650
484.55	0.650
484.75	0.650
484.95	0.648
485.15	0.647
485.35	0.647
485.55	0.647
485.75	0.644
485.96	0.645
486.16	0.646
486.36	0.645
486.56	0.644
486.76	0.644
486.96	0.644
487.16	0.643
487.36	0.642
487.57	0.641
487.77	0.642
487.97	0.642
488.17	0.640
488.37	0.639
488.57	0.640
488.77	0.640
488.97	0.639
489.18	0.638
489.38	0.641
489.58	0.642
489.78	0.642
489.98	0.641
490.18	0.641
490.38	0.642
490.58	0.641
490.78	0.642
490.98	0.643
491.19	0.644
491.39	0.643
491.59	0.642
491.79	0.645
491.99	0.645
492.19	0.645
492.39	0.648
492.59	0.648
492.79	0.649
492.99	0.649
493.20	0.650
493.40	0.649
493.60	0.651
493.80	0.649
494.00	0.646
494.20	0.647
494.40	0.646
494.60	0.644
494.80	0.649
495.00	0.647
495.20	0.646
495.40	0.645
495.61	0.646
495.81	0.645
496.01	0.649
496.21	0.650
496.41	0.650
496.61	0.650
496.81	0.649
497.01	0.644
497.21	0.644
497.41	0.644
497.61	0.644
497.81	0.641
498.01	0.641
498.21	0.639
498.41	0.637
498.61	0.637
498.82	0.638
499.02	0.640
499.22	0.640
499.42	0.640
499.62	0.641
499.82	0.642
500.02	0.643
500.22	0.642
500.42	0.644
500.62	0.645
500.82	0.645
501.02	0.643
501.22	0.643
501.42	0.642
501.62	0.645
501.82	0.644
502.02	0.645
502.22	0.644
502.42	0.646
502.62	0.644
502.82	0.643
503.02	0.643
503.22	0.643
503.42	0.642
503.63	0.642
503.83	0.640
504.03	0.639
504.23	0.637
504.43	0.637
504.63	0.638
504.83	0.638
505.03	0.637
505.23	0.639
505.43	0.640
505.63	0.641
505.83	0.641
506.03	0.642
506.23	0.643
506.43	0.643
506.63	0.643
506.83	0.641
507.03	0.643
507.23	0.643
507.43	0.641
507.63	0.642
507.83	0.641
508.03	0.641
508.23	0.641
508.43	0.641
508.63	0.643
508.83	0.643
509.03	0.644
509.23	0.644
509.43	0.644
509.63	0.644
509.83	0.643
510.03	0.646
510.23	0.648
510.43	0.649
510.63	0.649
510.83	0.648
511.03	0.650
511.23	0.647
511.43	0.646
511.63	0.648
511.83	0.651
512.03	0.650
512.22	0.648
512.42	0.647
512.62	0.648
512.82	0.647
513.02	0.647
513.22	0.647
513.42	0.648
513.62	0.651
513.82	0.649
514.02	0.648
514.22	0.649
514.42	0.649
514.62	0.648
514.82	0.648
515.02	0.650
515.22	0.654
515.42	0.653
515.62	0.656
515.82	0.654
516.02	0.656
516.22	0.656
516.42	0.657
516.62	0.659
516.82	0.660
517.01	0.659
517.21	0.658
517.41	0.661
517.61	0.661
517.81	0.658
518.01	0.657
518.21	0.656
518.41	0.655
518.61	0.654
518.81	0.654
519.01	0.655
519.21	0.655
519.41	0.655
519.61	0.649
519.81	0.651
520.00	0.652
520.20	0.652
520.40	0.655
520.60	0.656
520.80	0.656
521.00	0.657
521.20	0.657
521.40	0.662
521.60	0.661
521.80	0.661
522.00	0.661
522.20	0.663
522.39	0.663
522.59	0.660
522.79	0.661
522.99	0.663
523.19	0.661
523.39	0.659
523.59	0.657
523.79	0.660
523.99	0.662
524.19	0.661
524.38	0.659
524.58	0.660
524.78	0.660
524.98	0.659
525.18	0.661
525.38	0.662
525.58	0.663
525.78	0.661
525.98	0.660
526.18	0.660
526.37	0.659
526.57	0.661
526.77	0.661
526.97	0.661
527.17	0.661
527.37	0.658
527.57	0.660
527.77	0.661
527.96	0.661
528.16	0.659
528.36	0.660
528.56	0.662
528.76	0.660
528.96	0.659
529.16	0.660
529.36	0.663
529.55	0.662
529.75	0.659
529.95	0.660
530.15	0.661
530.35	0.664
530.55	0.661
530.75	0.661
530.94	0.663
531.14	0.663
531.34	0.662
531.54	0.660
531.74	0.663
531.94	0.666
532.13	0.665
532.33	0.667
532.53	0.666
532.73	0.666
532.93	0.665
533.13	0.666
533.33	0.666
533.52	0.667
533.72	0.670
533.92	0.668
534.12	0.666
534.32	0.667
534.52	0.665
534.71	0.666
534.91	0.669
535.11	0.670
535.31	0.669
535.51	0.670
535.71	0.671
535.90	0.669
536.10	0.670
536.30	0.672
536.50	0.672
536.70	0.672
536.89	0.670
537.09	0.669
537.29	0.670
537.49	0.671
537.69	0.669
537.89	0.671
538.08	0.670
538.28	0.668
538.48	0.669
538.68	0.671
538.88	0.673
539.07	0.672
539.27	0.671
539.47	0.670
539.67	0.670
539.87	0.671
540.06	0.669
540.26	0.670
540.46	0.672
540.66	0.669
540.86	0.667
541.05	0.667
541.25	0.669
541.45	0.668
541.65	0.667
541.84	0.669
542.04	0.669
542.24	0.671
542.44	0.670
542.64	0.671
542.83	0.674
543.03	0.675
543.23	0.672
543.43	0.673
543.62	0.674
543.82	0.674
544.02	0.673
544.22	0.673
544.42	0.675
544.61	0.675
544.81	0.672
545.01	0.671
545.21	0.672
545.40	0.673
545.60	0.671
545.80	0.674
546.00	0.674
546.19	0.673
546.39	0.673
546.59	0.670
546.79	0.672
546.98	0.673
547.18	0.671
547.38	0.672
547.58	0.675
547.77	0.676
547.97	0.672
548.17	0.674
548.37	0.675
548.56	0.675
548.76	0.675
548.96	0.676
549.16	0.678
549.35	0.678
549.55	0.676
549.75	0.676
549.95	0.679
550.14	0.679
550.34	0.678
550.54	0.682
550.73	0.686
550.93	0.686
551.13	0.684
551.33	0.683
551.52	0.684
551.72	0.684
551.92	0.683
552.12	0.683
552.31	0.683
552.51	0.683
552.71	0.678
552.90	0.678
553.10	0.678
553.30	0.678
553.50	0.678
553.69	0.679
553.89	0.680
554.09	0.680
554.28	0.677
554.48	0.678
554.68	0.680
554.87	0.680
555.07	0.677
555.27	0.677
555.47	0.678
555.66	0.678
555.86	0.677
556.06	0.679
556.25	0.680
556.45	0.688
556.65	0.687
556.84	0.690
557.04	0.693
557.24	0.695
557.43	0.695
557.63	0.698
557.83	0.700
558.02	0.701
558.22	0.705
558.42	0.706
558.61	0.698
558.81	0.699
559.01	0.695
559.21	0.695
559.40	0.696
559.60	0.696
559.80	0.693
559.99	0.693
560.19	0.695
560.39	0.689
560.58	0.687
560.78	0.687
560.97	0.690
561.17	0.689
561.37	0.687
561.56	0.688
561.76	0.688
561.96	0.687
562.15	0.684
562.35	0.687
562.55	0.687
562.74	0.687
562.94	0.686
563.14	0.684
563.33	0.685
563.53	0.685
563.73	0.683
563.92	0.685
564.12	0.687
564.31	0.689
564.51	0.687
564.71	0.689
564.90	0.691
565.10	0.691
565.30	0.695
565.49	0.696
565.69	0.698
565.89	0.699
566.08	0.697
566.28	0.699
566.47	0.700
566.67	0.699
566.87	0.697
567.06	0.699
567.26	0.705
567.46	0.701
567.65	0.700
567.85	0.702
568.04	0.704
568.24	0.703
568.44	0.700
568.63	0.699
568.83	0.700
569.02	0.698
569.22	0.694
569.42	0.690
569.61	0.692
569.81	0.691
570.00	0.689
570.20	0.690
570.40	0.691
570.59	0.691
570.79	0.689
570.98	0.687
571.18	0.689
571.38	0.688
571.57	0.686
571.77	0.684
571.96	0.687
572.16	0.684
572.35	0.679
572.55	0.680
572.75	0.678
572.94	0.678
573.14	0.676
573.33	0.676
573.53	0.677
573.73	0.676
573.92	0.674
574.12	0.672
574.31	0.675
574.51	0.676
574.70	0.673
574.90	0.675
575.09	0.677
575.29	0.677
575.49	0.675
575.68	0.675
575.88	0.677
576.07	0.678
576.27	0.676
576.46	0.674
576.66	0.674
576.86	0.672
577.05	0.670
577.25	0.667
577.44	0.669
577.64	0.669
577.83	0.667
578.03	0.668
578.22	0.668
578.42	0.667
578.61	0.667
578.81	0.667
579.00	0.668
579.20	0.667
579.40	0.667
579.59	0.665
579.79	0.666
579.98	0.665
580.18	0.664
580.37	0.664
580.57	0.665
580.76	0.669
580.96	0.668
581.15	0.669
581.35	0.671
581.54	0.670
581.74	0.670
581.93	0.672
582.13	0.673
582.32	0.670
582.52	0.668
582.71	0.667
582.91	0.663
583.10	0.663
583.30	0.661
583.49	0.661
583.69	0.664
583.88	0.665
584.08	0.664
584.27	0.666
584.47	0.670
584.66	0.671
584.86	0.671
585.05	0.673
585.25	0.675
585.44	0.675
585.64	0.674
585.83	0.671
586.03	0.670
586.22	0.669
586.42	0.664
586.61	0.665
586.81	0.667
587.00	0.666
587.20	0.664
587.39	0.664
587.59	0.666
587.78	0.667
587.98	0.668
588.17	0.668
588.37	0.671
588.56	0.672
588.76	0.669
588.95	0.668
589.15	0.673
589.34	0.675
589.54	0.674
589.73	0.675
589.92	0.678
590.12	0.678
590.31	0.677
590.51	0.682
590.70	0.684
590.90	0.685
591.09	0.684
591.29	0.682
591.48	0.682
591.68	0.683
591.87	0.682
592.06	0.681
592.26	0.683
592.45	0.683
592.65	0.676
592.84	0.676
593.04	0.678
593.23	0.680
593.43	0.678
593.62	0.677
593.81	0.677
594.01	0.676
594.20	0.673
594.40	0.672
594.59	0.672
594.79	0.674
594.98	0.672
595.17	0.671
595.37	0.672
595.56	0.675
595.76	0.675
595.95	0.677
596.14	0.679
596.34	0.681
596.53	0.681
596.73	0.683
596.92	0.684
597.12	0.687
597.31	0.688
597.50	0.687
597.70	0.688
597.89	0.688
598.09	0.684
598.28	0.686
598.47	0.688
598.67	0.686
598.86	0.683
599.06	0.684
599.25	0.683
599.44	0.680
599.64	0.678
599.83	0.675
600.03	0.677
600.22	0.678
600.41	0.677
600.61	0.674
600.80	0.676
601.00	0.676
601.19	0.672
601.38	0.671
601.58	0.673
601.77	0.675
601.96	0.678
602.16	0.678
602.35	0.686
602.55	0.684
602.74	0.687
602.93	0.689
603.13	0.694
603.32	0.696
603.51	0.697
603.71	0.701
603.90	0.702
604.09	0.703
604.29	0.701
604.48	0.695
604.68	0.696
604.87	0.694
605.06	0.690
605.26	0.687
605.45	0.687
605.64	0.686
605.84	0.681
606.03	0.679
606.22	0.678
606.42	0.677
606.61	0.674
606.80	0.674
607.00	0.675
607.19	0.674
607.38	0.672
607.58	0.674
607.77	0.675
607.96	0.675
608.16	0.674
608.35	0.678
608.54	0.682
608.74	0.684
608.93	0.689
609.12	0.692
609.32	0.695
609.51	0.698
609.70	0.697
609.90	0.700
610.09	0.704
610.28	0.710
610.48	0.705
610.67	0.706
610.86	0.706
611.06	0.701
611.25	0.699
611.44	0.700
611.64	0.700
611.83	0.703
612.02	0.700
612.21	0.698
612.41	0.697
612.60	0.695
612.79	0.692
612.99	0.692
613.18	0.694
613.37	0.692
613.57	0.689
613.76	0.691
613.95	0.687
614.14	0.687
614.34	0.684
614.53	0.684
614.72	0.687
614.92	0.687
615.11	0.684
615.30	0.680
615.49	0.681
615.69	0.683
615.88	0.680
616.07	0.680
616.26	0.682
616.46	0.683
616.65	0.681
616.84	0.679
617.04	0.680
617.23	0.683
617.42	0.685
617.61	0.688
617.81	0.689
618.00	0.690
618.19	0.689
618.38	0.694
618.58	0.697
618.77	0.699
618.96	0.699
619.15	0.701
619.35	0.702
619.54	0.703
619.73	0.699
619.92	0.701
620.12	0.706
620.31	0.706
620.50	0.701
620.69	0.701
620.89	0.703
621.08	0.703
621.27	0.703
621.46	0.702
621.66	0.705
621.85	0.706
622.04	0.702
622.23	0.703
622.43	0.704
622.62	0.704
622.81	0.703
623.00	0.703
623.19	0.707
623.39	0.705
623.58	0.703
623.77	0.702
623.96	0.704
624.16	0.705
624.35	0.700
624.54	0.703
624.73	0.706
624.92	0.702
625.12	0.700
625.31	0.700
625.50	0.703
625.69	0.703
625.88	0.700
626.08	0.699
626.27	0.700
626.46	0.701
626.65	0.698
626.84	0.698
627.04	0.703
627.23	0.703
627.42	0.700
627.61	0.702
627.80	0.704
628.00	0.704
628.19	0.703
628.38	0.705
628.57	0.706
628.76	0.705
628.96	0.703
629.15	0.704
629.34	0.706
629.53	0.707
629.72	0.702
629.91	0.702
630.11	0.706
630.30	0.706
630.49	0.709
630.68	0.710
630.87	0.713
631.06	0.715
631.26	0.711
631.45	0.712
631.64	0.719
631.83	0.721
632.02	0.719
632.21	0.718
632.41	0.725
632.60	0.719
632.79	0.718
632.98	0.719
633.17	0.719
633.36	0.721
633.55	0.718
633.75	0.715
633.94	0.716
634.13	0.716
634.32	0.714
634.51	0.709
634.70	0.710
634.89	0.710
635.09	0.706
635.28	0.706
635.47	0.706
635.66	0.709
635.85	0.705
636.04	0.707
636.23	0.712
636.43	0.713
636.62	0.711
636.81	0.710
637.00	0.712
637.19	0.715
637.38	0.712
637.57	0.711
637.76	0.712
637.95	0.713
638.15	0.710
638.34	0.706
638.53	0.709
638.72	0.710
638.91	0.708
639.10	0.706
639.29	0.706
639.48	0.707
639.67	0.708
639.87	0.707
640.06	0.712
640.25	0.711
640.44	0.712
640.63	0.712
640.82	0.714
641.01	0.714
641.20	0.715
641.39	0.717
641.58	0.718
641.78	0.717
641.97	0.713
642.16	0.726
642.35	0.727
642.54	0.726
642.73	0.721
642.92	0.720
643.11	0.723
643.30	0.722
643.49	0.719
643.68	0.720
643.87	0.721
644.06	0.721
644.25	0.702
644.45	0.705
644.64	0.707
644.83	0.707
645.02	0.705
645.21	0.705
645.40	0.706
645.59	0.705
645.78	0.701
645.97	0.703
646.16	0.704
646.35	0.704
646.54	0.702
646.73	0.703
646.92	0.704
647.11	0.704
647.30	0.701
647.49	0.703
647.68	0.702
647.88	0.701
648.07	0.695
648.26	0.699
648.45	0.700
648.64	0.697
648.83	0.695
649.02	0.697
649.21	0.706
649.40	0.705
649.59	0.700
649.78	0.701
649.97	0.713
650.16	0.712
650.35	0.706
650.54	0.709
650.73	0.715
650.92	0.712
651.11	0.706
651.30	0.704
651.49	0.707
651.68	0.709
651.87	0.706
652.06	0.697
652.25	0.700
652.44	0.705
652.63	0.706
652.82	0.708
653.01	0.709
653.20	0.709
653.39	0.699
653.58	0.696
653.77	0.695
653.96	0.691
654.15	0.682
654.34	0.680
654.53	0.675
654.72	0.667
654.91	0.657
655.10	0.652
655.29	0.649
655.48	0.647
655.67	0.641
655.86	0.639
656.05	0.637
656.24	0.637
656.43	0.632
656.62	0.630
656.81	0.629
657.00	0.625
657.19	0.621
657.38	0.619
657.57	0.616
657.76	0.618
657.95	0.615
658.14	0.617
658.33	0.618
658.51	0.622
658.70	0.622
658.89	0.624
659.08	0.635
659.27	0.644
659.46	0.646
659.65	0.653
659.84	0.657
660.03	0.662
660.22	0.663
660.41	0.668
660.60	0.667
660.79	0.668
660.98	0.674
661.17	0.672
661.36	0.672
661.55	0.673
661.74	0.672
661.92	0.674
662.11	0.677
662.30	0.676
662.49	0.670
662.68	0.670
662.87	0.673
663.06	0.668
663.25	0.669
663.44	0.669
663.63	0.669
663.82	0.667
664.01	0.662
664.20	0.660
664.38	0.660
664.57	0.660
664.76	0.660
664.95	0.659
665.14	0.663
665.33	0.658
665.52	0.666
665.71	0.669
665.90	0.669
666.09	0.671
666.28	0.670
666.46	0.669
666.65	0.669
666.84	0.667
667.03	0.663
667.22	0.661
667.41	0.664
667.60	0.654
667.79	0.648
667.98	0.649
668.16	0.650
668.35	0.650
668.54	0.647
668.73	0.648
668.92	0.648
669.11	0.646
669.30	0.641
669.49	0.637
669.67	0.639
669.86	0.642
670.05	0.639
670.24	0.637
670.43	0.635
670.62	0.634
670.81	0.629
671.00	0.630
671.18	0.630
671.37	0.629
671.56	0.627
671.75	0.626
671.94	0.622
672.13	0.621
672.32	0.616
672.50	0.616
672.69	0.615
672.88	0.615
673.07	0.611
673.26	0.613
673.45	0.613
673.63	0.613
673.82	0.609
674.01	0.611
674.20	0.610
674.39	0.610
674.58	0.610
674.76	0.610
674.95	0.609
675.14	0.610
675.33	0.606
675.52	0.604
675.71	0.604
675.89	0.604
676.08	0.600
676.27	0.600
676.46	0.600
676.65	0.600
676.84	0.600
677.02	0.602
677.21	0.603
677.40	0.602
677.59	0.600
677.78	0.600
677.96	0.602
678.15	0.601
678.34	0.600
678.53	0.600
678.72	0.600
678.90	0.596
679.09	0.593
679.28	0.589
679.47	0.589
679.66	0.589
679.84	0.586
680.03	0.583
680.22	0.582
680.41	0.583
680.60	0.579
680.78	0.578
680.97	0.580
681.16	0.580
681.35	0.579
681.53	0.579
681.72	0.580
681.91	0.582
682.10	0.581
682.29	0.584
682.47	0.581
682.66	0.580
682.85	0.577
683.04	0.576
683.22	0.576
683.41	0.578
683.60	0.576
683.79	0.577
683.97	0.576
684.16	0.575
684.35	0.571
684.54	0.573
684.72	0.573
684.91	0.574
685.10	0.572
685.29	0.573
685.47	0.570
685.66	0.569
685.85	0.566
686.04	0.565
686.22	0.567
686.41	0.570
686.60	0.567
686.79	0.571
686.97	0.571
687.16	0.573
687.35	0.570
687.54	0.574
687.72	0.577
687.91	0.578
688.10	0.581
688.29	0.581
688.47	0.579
688.66	0.579
688.85	0.575
689.03	0.573
689.22	0.577
689.41	0.578
689.60	0.574
689.78	0.572
689.97	0.572
690.16	0.569
690.34	0.565
690.53	0.564
690.72	0.565
690.91	0.563
691.09	0.561
691.28	0.555
691.47	0.553
691.65	0.551
691.84	0.548
692.03	0.546
692.21	0.544
692.40	0.544
692.59	0.542
692.77	0.540
692.96	0.541
693.15	0.542
693.34	0.540
693.52	0.540
693.71	0.540
693.90	0.542
694.08	0.543
694.27	0.544
694.46	0.553
694.64	0.554
694.83	0.553
695.02	0.552
695.20	0.552
695.39	0.552
695.58	0.552
695.76	0.552
695.95	0.550
696.14	0.550
696.32	0.547
696.51	0.538
696.70	0.538
696.88	0.539
697.07	0.538
697.26	0.539
697.44	0.539
697.63	0.538
697.81	0.537
698.00	0.536
698.19	0.535
698.37	0.535
698.56	0.535
698.75	0.535
698.93	0.534
699.12	0.534
699.31	0.533
699.49	0.533
699.68	0.533
699.87	0.536
700.05	0.537
700.24	0.536
700.42	0.537
700.61	0.536
700.80	0.535
700.98	0.535
701.17	0.536
701.36	0.535
701.54	0.535
701.73	0.536
701.91	0.534
702.10	0.533
702.29	0.532
702.47	0.530
702.66	0.532
702.84	0.533
703.03	0.530
703.22	0.532
703.40	0.532
703.59	0.533
703.77	0.533
703.96	0.533
704.15	0.533
704.33	0.533
704.52	0.532
704.70	0.531
704.89	0.531
705.08	0.530
705.26	0.527
705.45	0.526
705.63	0.525
705.82	0.522
706.00	0.521
706.19	0.521
706.38	0.521
706.56	0.521
706.75	0.519
706.93	0.518
707.12	0.519
707.30	0.520
707.49	0.518
707.68	0.516
707.86	0.516
708.05	0.516
708.23	0.513
708.42	0.513
708.60	0.515
708.79	0.515
708.98	0.514
709.16	0.513
709.35	0.514
709.53	0.517
709.72	0.517
709.90	0.518
710.09	0.520
710.27	0.522
710.46	0.526
710.64	0.524
710.83	0.526
711.02	0.528
711.20	0.528
711.39	0.526
711.57	0.523
711.76	0.524
711.94	0.523
712.13	0.524
712.31	0.523
712.50	0.519
712.68	0.516
712.87	0.517
713.05	0.516
713.24	0.516
713.42	0.516
713.61	0.516
713.79	0.517
713.98	0.517
714.16	0.518
714.35	0.518
714.54	0.519
714.72	0.520
714.91	0.518
715.09	0.524
715.28	0.527
715.46	0.527
715.65	0.525
715.83	0.525
716.02	0.528
716.20	0.523
716.39	0.523
716.57	0.524
716.76	0.525
716.94	0.525
717.12	0.518
717.31	0.519
717.49	0.522
717.68	0.524
717.86	0.524
718.05	0.525
718.23	0.527
718.42	0.530
718.60	0.531
718.79	0.538
718.97	0.540
719.16	0.541
719.34	0.539
719.53	0.538
719.71	0.538
719.90	0.539
720.08	0.536
720.27	0.537
720.45	0.536
720.63	0.535
720.82	0.530
721.00	0.532
721.19	0.535
721.37	0.535
721.56	0.535
721.74	0.537
721.93	0.545
722.11	0.550
722.30	0.550
722.48	0.554
722.66	0.555
722.85	0.554
723.03	0.555
723.22	0.554
723.40	0.556
723.59	0.556
723.77	0.560
723.95	0.555
724.14	0.557
724.32	0.558
724.51	0.558
724.69	0.559
724.88	0.559
725.06	0.557
725.24	0.559
725.43	0.559
725.61	0.561
725.80	0.556
725.98	0.554
726.16	0.552
726.35	0.557
726.53	0.556
726.72	0.555
726.90	0.565
727.09	0.566
727.27	0.572
727.45	0.570
727.64	0.578
727.82	0.586
728.01	0.590
728.19	0.588
728.37	0.592
728.56	0.596
728.74	0.601
728.92	0.591
729.11	0.593
729.29	0.590
729.48	0.593
729.66	0.585
729.84	0.583
730.03	0.584
730.21	0.587
730.40	0.579
730.58	0.580
730.76	0.579
730.95	0.582
731.13	0.583
731.31	0.596
731.50	0.604
731.68	0.607
731.86	0.606
732.05	0.621
732.23	0.623
732.42	0.625
732.60	0.630
732.78	0.635
732.97	0.651
733.15	0.657
733.33	0.646
733.52	0.652
733.70	0.661
733.88	0.670
734.07	0.658
734.25	0.682
734.43	0.689
734.62	0.691
734.80	0.686
734.98	0.679
735.17	0.684
735.35	0.691
735.53	0.680
735.72	0.683
735.90	0.700
736.08	0.719
736.27	0.700
736.45	0.709
736.63	0.718
736.82	0.730
737.00	0.731
737.18	0.739
737.37	0.767
737.55	0.790
737.73	0.789
737.92	0.793
738.10	0.786
738.28	0.802
738.46	0.792
738.65	0.805
738.83	0.821
739.01	0.866
739.20	0.862
739.38	0.842
739.56	0.834
739.75	0.837
739.93	0.807
740.11	0.830
740.29	0.826
740.48	0.833
740.66	0.810
740.84	0.808
741.03	0.774
741.21	0.782
741.39	0.769
741.57	0.780
741.76	0.788
741.94	0.793
742.12	0.764
742.31	0.770
742.49	0.788
742.67	0.815
742.85	0.830
743.04	0.831
743.22	0.838
743.40	0.890
743.58	0.874
743.77	0.893
743.95	0.917
744.13	0.964
744.31	0.952
744.50	0.942
744.68	0.934
744.86	0.912
745.04	0.926
745.23	0.988
745.41	0.956
745.59	0.962
745.77	0.934
745.96	0.927
746.14	0.931
746.32	0.932
746.50	0.929
746.69	0.909
746.87	0.911
747.05	0.902
747.23	0.836
747.42	0.826
747.60	0.848
747.78	0.850
747.96	0.882
748.14	0.847
748.33	0.868
748.51	0.866
748.69	0.869
748.87	0.894
749.06	0.887
749.24	0.882
749.42	0.873
749.60	0.858
749.78	0.863
749.97	0.821
750.15	0.812
750.33	0.809
750.51	0.827
750.69	0.828
750.88	0.835
751.06	0.841
751.24	0.862
751.42	0.855
751.60	0.847
751.79	0.907
751.97	0.941
752.15	0.941
752.33	0.918
752.51	0.970
752.69	0.979
752.88	0.953
753.06	1.006
753.24	0.984
753.42	1.008
753.60	1.150
753.78	1.039
753.97	1.056
754.15	1.069
754.33	1.096
754.51	0.998
754.69	0.986
754.87	1.008
755.06	0.937
755.24	0.939
755.42	0.952
755.60	0.859
755.78	0.865
755.96	0.821
756.15	0.818
756.33	0.818
756.51	0.832
756.69	0.823
756.87	0.793
757.05	0.808
757.23	0.795
757.42	0.766
757.60	0.765
757.78	0.755
757.96	0.753
758.14	0.742
758.32	0.728
758.50	0.736
758.69	0.735
758.87	0.728
759.05	0.730
759.23	0.736
759.41	0.737
759.59	0.732
759.77	0.750
759.95	0.773
760.13	0.816
760.32	0.817
760.50	0.810
760.68	0.828
760.86	0.833
761.04	0.813
761.22	0.822
761.40	0.863
761.58	0.863
761.76	0.842
761.95	0.822
762.13	0.779
762.31	0.779
762.49	0.756
762.67	0.770
762.85	0.777
763.03	0.772
763.21	0.756
763.39	0.736
763.57	0.735
763.75	0.729
763.94	0.721
764.12	0.723
764.30	0.744
764.48	0.749
764.66	0.721
764.84	0.717
765.02	0.749
765.20	0.756
765.38	0.741
765.56	0.749
765.74	0.783
765.92	0.783
766.10	0.792
766.28	0.787
766.46	0.810
766.65	0.809
766.83	0.803
767.01	0.788
767.19	0.793
767.37	0.793
767.55	0.781
767.73	0.761
767.91	0.763
768.09	0.753
768.27	0.741
768.45	0.729
768.63	0.736
768.81	0.737
768.99	0.714
769.17	0.734
769.35	0.745
769.53	0.743
769.71	0.728
769.89	0.731
770.07	0.729
770.25	0.717
770.43	0.700
770.61	0.718
770.79	0.723
770.97	0.733
771.15	0.709
771.33	0.710
771.51	0.713
771.69	0.723
771.87	0.733
772.05	0.739
772.24	0.744
772.42	0.753
772.60	0.734
772.78	0.786
772.96	0.805
773.14	0.801
773.32	0.787
773.49	0.792
773.67	0.789
773.85	0.773
774.03	0.765
774.21	0.795
774.39	0.804
774.57	0.823
774.75	0.761
774.93	0.758
775.11	0.778
775.29	0.784
775.47	0.787
775.65	0.798
775.83	0.809
776.01	0.833
776.19	0.791
776.37	0.788
776.55	0.787
776.73	0.782
776.91	0.780
777.09	0.763
777.27	0.759
777.45	0.747
777.63	0.727
777.81	0.724
777.99	0.711
778.17	0.711
778.35	0.695
778.53	0.683
778.71	0.688
778.89	0.677
779.07	0.669
779.24	0.672
779.42	0.675
779.60	0.690
779.78	0.691
779.96	0.695
780.14	0.701
780.32	0.719
780.50	0.707
780.68	0.704
780.86	0.696
781.04	0.711
781.22	0.715
781.40	0.723
781.58	0.713
781.75	0.705
781.93	0.691
782.11	0.689
782.29	0.675
782.47	0.674
782.65	0.665
782.83	0.689
783.01	0.681
783.19	0.678
783.37	0.665
783.55	0.667
783.72	0.682
783.90	0.690
784.08	0.686
784.26	0.695
784.44	0.713
784.62	0.719
784.80	0.690
784.98	0.696
785.16	0.700
785.33	0.715
785.51	0.704
785.69	0.689
785.87	0.688
786.05	0.698
786.23	0.699
786.41	0.695
786.59	0.696
786.77	0.697
786.94	0.688
787.12	0.690
787.30	0.688
787.48	0.687
787.66	0.678
787.84	0.680
788.02	0.670
788.19	0.667
788.37	0.657
788.55	0.657
788.73	0.655
788.91	0.650
789.09	0.637
789.27	0.626
789.44	0.634
789.62	0.641
789.80	0.648
789.98	0.670
790.16	0.657
790.34	0.652
790.51	0.645
790.69	0.664
790.87	0.669
791.05	0.666
791.23	0.662
791.41	0.663
791.58	0.666
791.76	0.647
791.94	0.621
792.12	0.629
792.30	0.632
792.48	0.629
792.65	0.625
792.83	0.630
793.01	0.635
793.19	0.635
793.37	0.622
793.54	0.620
793.72	0.631
793.90	0.628
794.08	0.619
794.26	0.617
794.43	0.624
794.61	0.608
794.79	0.599
794.97	0.596
795.15	0.599
795.32	0.604
795.50	0.596
795.68	0.589
795.86	0.592
796.04	0.594
796.21	0.591
796.39	0.589
796.57	0.600
796.75	0.606
796.92	0.610
797.10	0.614
797.28	0.611
797.46	0.615
797.64	0.618
797.81	0.626
797.99	0.630
798.17	0.634
798.35	0.630
798.52	0.633
798.70	0.628
798.88	0.637
799.06	0.637
799.23	0.642
799.41	0.648
799.59	0.642
799.77	0.631
799.94	0.636
800.12	0.642
800.30	0.659
800.48	0.660
800.65	0.661
800.83	0.649
801.01	0.642
801.19	0.641
801.36	0.636
801.54	0.637
801.72	0.646
801.90	0.636
802.07	0.633
802.25	0.617
802.43	0.604
802.60	0.601
802.78	0.608
802.96	0.612
803.14	0.607
803.31	0.609
803.49	0.610
803.67	0.606
803.84	0.611
804.02	0.604
804.20	0.608
804.38	0.612
804.55	0.611
804.73	0.599
804.91	0.599
805.08	0.610
805.26	0.608
805.44	0.670
805.61	0.671
805.79	0.669
805.97	0.668
806.15	0.662
806.32	0.657
806.50	0.663
806.68	0.663
806.85	0.655
807.03	0.646
807.21	0.659
807.38	0.597
807.56	0.589
807.74	0.597
807.91	0.601
808.09	0.604
808.27	0.622
808.44	0.645
808.62	0.652
808.80	0.653
808.97	0.649
809.15	0.643
809.33	0.658
809.50	0.665
809.68	0.653
809.86	0.660
810.03	0.687
810.21	0.668
810.39	0.652
810.56	0.658
810.74	0.679
810.91	0.745
811.09	0.739
811.27	0.757
811.44	0.761
811.62	0.766
811.80	0.750
811.97	0.722
812.15	0.723
812.33	0.719
812.50	0.708
812.68	0.698
812.85	0.645
813.03	0.645
813.21	0.617
813.38	0.611
813.56	0.610
813.74	0.621
813.91	0.629
814.09	0.653
814.26	0.645
814.44	0.648
814.62	0.639
814.79	0.643
814.97	0.644
815.14	0.648
815.32	0.656
815.50	0.673
815.67	0.674
815.85	0.666
816.02	0.659
816.20	0.666
816.38	0.677
816.55	0.682
816.73	0.682
816.90	0.693
817.08	0.718
817.26	0.719
817.43	0.700
817.61	0.723
817.78	0.739
817.96	0.719
818.13	0.712
818.31	0.712
818.49	0.721
818.66	0.714
818.84	0.703
819.01	0.685
819.19	0.689
819.36	0.691
819.54	0.665
819.71	0.704
819.89	0.717
820.07	0.727
820.24	0.725
820.42	0.728
820.59	0.743
820.77	0.766
820.94	0.760
821.12	0.777
821.29	0.786
821.47	0.787
821.64	0.730
821.82	0.741
822.00	0.740
822.17	0.738
822.35	0.733
822.52	0.734
822.70	0.722
822.87	0.729
823.05	0.713
823.22	0.726
823.40	0.747
823.57	0.770
823.75	0.756
823.92	0.774
824.10	0.792
824.27	0.830
824.45	0.823
824.62	0.875
824.80	0.887
824.97	0.900
825.15	0.892
825.32	0.907
825.50	0.901
825.67	0.908
825.85	0.891
826.02	0.900
826.20	0.914
826.37	1.021
826.55	0.956
826.72	1.116
826.90	1.156
827.07	1.196
827.25	1.153
827.42	1.273
827.60	1.371
827.77	1.491
827.95	1.491
828.12	1.545
828.30	1.270
828.47	1.335
828.65	1.088
828.82	1.127
829.00	1.143
829.17	1.195
829.34	1.193
829.52	1.223
829.69	2.420
829.87	-0.000
830.04	-0.000
830.22	-0.000
830.39	-0.000
830.57	-0.000
830.74	-0.000
830.92	-0.000
831.09	-0.000
831.26	-0.000
831.44	-0.000
831.61	-0.000
831.79	-0.000
831.96	-0.000
832.14	-0.000
832.31	-0.000
832.49	-0.000
832.66	-0.000
832.83	-0.000
833.01	-0.000
833.18	-0.000
833.36	-0.000
833.53	-0.000
833.70	-0.000
833.88	-0.000
834.05	-0.000
834.23	-0.000
834.40	-0.000
834.58	-0.000
834.75	-0.000
834.92	-0.000
835.10	-0.000
835.27	-0.000
835.45	-0.000
835.62	-0.000
835.79	-0.000
835.97	-0.000
836.14	-0.000
836.32	-0.000
836.49	-0.000
836.66	-0.000
836.84	-0.000
837.01	-0.000
837.18	-0.000
837.36	-0.000
837.53	-0.000
837.71	-0.000
837.88	-0.000
838.05	-0.000
838.23	-0.000
838.40	-0.000
838.58	-0.000
838.75	-0.000
838.92	-0.000
839.10	-0.000
839.27	-0.000
839.44	-0.000
839.62	-0.000
839.79	-0.000
839.96	-0.000
840.14	-0.000
840.31	-0.000
840.48	-0.000
840.66	-0.000
840.83	-0.000
841.01	-0.000
841.18	-0.000
841.35	-0.000
841.53	-0.000
841.70	-0.000
841.87	-0.000
842.05	-0.000
842.22	-0.000
842.39	-0.000
842.57	-0.000
842.74	-0.000
842.91	-0.000
843.09	-0.000
843.26	-0.000
843.43	-0.000
843.60	-0.000
843.78	-0.000
843.95	-0.000
844.12	-0.000
844.30	-0.000
844.47	-0.000
844.64	-0.000
844.82	-0.000
844.99	-0.000
845.16	-0.000
845.34	-0.000
845.51	-0.000
845.68	-0.000
845.85	-0.000
846.03	-0.000
846.20	-0.000
846.37	-0.000
846.55	-0.000
846.72	-0.000
846.89	-0.000
847.06	-0.000
847.24	-0.000
847.41	-0.000
847.58	-0.000
847.76	-0.000
847.93	-0.000
848.10	-0.000
848.27	-0.000
848.45	-0.000
848.62	-0.000
848.79	-0.000
848.97	-0.000
849.14	-0.000
849.31	-0.000
849.48	-0.000
849.66	-0.000
849.83	-0.000
850.00	-0.000
850.17	-0.000
850.35	-0.000
850.52	-0.000
850.69	-0.000
850.86	-0.000
851.04	-0.000
851.21	-0.000
851.38	-0.000
851.55	-0.000
851.72	-0.000
851.90	-0.000
852.07	-0.000
852.24	-0.000
852.41	-0.000
852.59	-0.000
852.76	-0.000
852.93	-0.000
853.10	-0.000
853.28	-0.000
853.45	-0.000
853.62	-0.000
853.79	-0.000
853.96	-0.000
854.14	-0.000
854.31	-0.000
854.48	-0.000
854.65	-0.000
854.82	-0.000
855.00	-0.000
855.17	-0.000
855.34	-0.000
855.51	-0.000
855.68	-0.000
855.86	-0.000
856.03	-0.000
856.20	-0.000
856.37	-0.000
856.54	-0.000
856.72	-0.000
856.89	-0.000
857.06	-0.000
857.23	-0.000
857.40	-0.000
857.57	-0.000
857.75	-0.000
857.92	-0.000
858.09	-0.000
858.26	-0.000
858.43	-0.000
858.60	-0.000
858.78	-0.000
858.95	-0.000
859.12	-0.000
859.29	-0.000
859.46	-0.000
859.63	-0.000
859.81	-0.000
859.98	-0.000
860.15	-0.000
860.32	-0.000
860.49	-0.000
860.66	-0.000
860.83	-0.000
861.01	-0.000
861.18	-0.000
861.35	-0.000
861.52	-0.000
861.69	-0.000
861.86	-0.000
862.03	-0.000
862.21	-0.000
862.38	-0.000
862.55	-0.000
862.72	-0.000
862.89	-0.000
863.06	-0.000
863.23	-0.000
863.40	-0.000
863.58	-0.000
863.75	-0.000
863.92	-0.000
864.09	-0.000
864.26	-0.000
864.43	-0.000
864.60	-0.000
864.77	-0.000
864.94	-0.000
865.11	-0.000
865.29	-0.000
865.46	-0.000
865.63	-0.000
865.80	-0.000
865.97	-0.000
866.14	-0.000
866.31	-0.000
866.48	-0.000
866.65	-0.000
866.82	-0.000
866.99	-0.000
867.16	-0.000
867.34	-0.000
867.51	-0.000
867.68	-0.000
867.85	-0.000
868.02	-0.000
868.19	-0.000
868.36	-0.000
868.53	-0.000
868.70	-0.000
868.87	-0.000
869.04	-0.000
869.21	-0.000
869.38	-0.000
869.55	-0.000
869.72	-0.000
869.89	-0.000
870.06	-0.000
870.24	-0.000
870.41	-0.000
870.58	-0.000
870.75	-0.000
870.92	-0.000
871.09	-0.000
871.26	-0.000
871.43	-0.000
871.60	-0.000
871.77	-0.000
871.94	-0.000
872.11	-0.000
872.28	-0.000
872.45	-0.000
872.62	-0.000
872.79	-0.000
872.96	-0.000
873.13	-0.000
873.30	-0.000
873.47	-0.000
873.64	-0.000
873.81	-0.000
873.98	-0.000
874.15	-0.000
874.32	-0.000
874.49	-0.000
874.66	-0.000
874.83	-0.000
875.00	-0.000
875.17	-0.000
875.34	-0.000
875.51	-0.000
875.68	-0.000
875.85	-0.000
876.02	-0.000
876.19	-0.000
876.36	-0.000
876.53	-0.000
876.70	-0.000
876.87	-0.000
877.04	-0.000
877.21	-0.000
877.38	-0.000
877.55	-0.000
877.72	-0.000
877.89	-0.000
878.06	-0.000
878.23	-0.000
878.39	-0.000
878.56	-0.000
878.73	-0.000
878.90	-0.000
879.07	-0.000
879.24	-0.000
879.41	-0.000
879.58	-0.000
879.75	-0.000
879.92	-0.000
880.09	-0.000
880.26	-0.000
880.43	-0.000
880.60	-0.000
880.77	-0.000
880.94	-0.000
881.11	-0.000
881.27	-0.000
881.44	-0.000
881.61	-0.000
881.78	-0.000
881.95	-0.000
882.12	-0.000
882.29	-0.000
882.46	-0.000
882.63	-0.000
882.80	-0.000
882.97	-0.000
883.14	-0.000
883.30	-0.000
883.47	-0.000
883.64	-0.000
883.81	-0.000
883.98	-0.000
884.15	-0.000
884.32	-0.000
884.49	-0.000
884.66	-0.000
884.82	-0.000
884.99	-0.000
885.16	-0.000
885.33	-0.000
885.50	-0.000
885.67	-0.000
885.84	-0.000
886.01	-0.000
886.17	-0.000
886.34	-0.000
886.51	-0.000
886.68	-0.000
886.85	-0.000
887.02	-0.000
887.19	-0.000
887.36	-0.000
887.52	-0.000
887.69	-0.000
887.86	-0.000
888.03	-0.000
888.20	-0.000
888.37	-0.000
888.54	-0.000
888.70	-0.000
888.87	-0.000
889.04	-0.000
889.21	-0.000
889.38	-0.000
889.55	-0.000
889.71	-0.000
889.88	-0.000
890.05	-0.000
890.22	-0.000
890.39	-0.000
>>>>>End Processed Spectral Data<<<<<
