SpectraSuite Data File
++++++++++++++++++++++++++++++++++++
Date: Fri Jun 19 13:20:28 CEST 2015
User: introlabs
Dark Spectrum Present: Yes
Reference Spectrum Present: Yes
Number of Sampled Component Spectra: 1
Spectrometers: USB4H08886
Integration Time (usec): 745692 (USB4H08886)
Spectra Averaged: 5 (USB4H08886)
Boxcar Smoothing: 5 (USB4H08886)
Correct for Electrical Dark: Yes (USB4H08886)
Strobe/Lamp Enabled: No (USB4H08886)
Correct for Detector Non-linearity: Yes (USB4H08886)
Correct for Stray Light: Yes (USB4H08886)
Number of Pixels in Processed Spectrum: 3648
>>>>>Begin Processed Spectral Data<<<<<
178.14	-0.000
178.36	-0.000
178.57	-0.000
178.79	-0.000
179.01	-0.000
179.22	-0.000
179.44	-0.000
179.65	-0.000
179.87	-0.000
180.08	-0.000
180.30	-0.000
180.52	-0.000
180.73	-0.000
180.95	-0.000
181.16	-0.000
181.38	-0.000
181.59	-0.000
181.81	-0.000
182.03	-0.000
182.24	-0.000
182.46	-0.000
182.67	-0.000
182.89	-0.000
183.10	-0.000
183.32	-0.000
183.54	-0.000
183.75	-0.000
183.97	-0.000
184.18	-0.000
184.40	-0.000
184.61	-0.000
184.83	-0.000
185.04	-0.000
185.26	-0.000
185.48	-0.000
185.69	-0.000
185.91	-0.000
186.12	-0.000
186.34	-0.000
186.55	-0.000
186.77	-0.000
186.98	-0.000
187.20	-0.000
187.42	-0.000
187.63	-0.000
187.85	-0.000
188.06	-0.000
188.28	-0.000
188.49	-0.000
188.71	-0.000
188.92	-0.000
189.14	-0.000
189.36	-0.000
189.57	-0.000
189.79	-0.000
190.00	-0.000
190.22	-0.000
190.43	-0.000
190.65	-0.000
190.86	-0.000
191.08	-0.000
191.29	-0.000
191.51	-0.000
191.72	-0.000
191.94	-0.000
192.16	-0.000
192.37	-0.000
192.59	-0.000
192.80	-0.000
193.02	-0.000
193.23	-0.000
193.45	-0.000
193.66	-0.000
193.88	-0.000
194.09	-0.000
194.31	-0.000
194.52	-0.000
194.74	-0.000
194.95	-0.000
195.17	-0.000
195.38	-0.000
195.60	-0.000
195.81	-0.000
196.03	-0.000
196.25	-0.000
196.46	-0.000
196.68	-0.000
196.89	-0.000
197.11	-0.000
197.32	-0.000
197.54	-0.000
197.75	-0.000
197.97	-0.000
198.18	-0.000
198.40	-0.000
198.61	-0.000
198.83	-0.000
199.04	-0.000
199.26	-0.000
199.47	-0.000
199.69	-0.000
199.90	-0.000
200.12	-0.000
200.33	-0.000
200.55	-0.000
200.76	-0.000
200.98	-0.000
201.19	-0.000
201.41	-0.000
201.62	-0.000
201.84	-0.000
202.05	-0.000
202.27	-0.000
202.48	-0.000
202.70	-0.000
202.91	-0.000
203.13	-0.000
203.34	-0.000
203.56	-0.000
203.77	-0.000
203.99	-0.000
204.20	-0.000
204.42	-0.000
204.63	-0.000
204.85	-0.000
205.06	-0.000
205.28	-0.000
205.49	-0.000
205.71	-0.000
205.92	-0.000
206.14	-0.000
206.35	-0.000
206.56	-0.000
206.78	-0.000
206.99	-0.000
207.21	-0.000
207.42	-0.000
207.64	-0.000
207.85	-0.000
208.07	-0.000
208.28	-0.000
208.50	-0.000
208.71	-0.000
208.93	-0.000
209.14	-0.000
209.36	-0.000
209.57	-0.000
209.79	-0.000
210.00	-0.000
210.22	-0.000
210.43	-0.000
210.64	-0.000
210.86	-0.000
211.07	-0.000
211.29	-0.000
211.50	-0.000
211.72	-0.000
211.93	-0.000
212.15	-0.000
212.36	-0.000
212.58	-0.000
212.79	-0.000
213.01	-0.000
213.22	-0.000
213.43	-0.000
213.65	-0.000
213.86	-0.000
214.08	-0.000
214.29	-0.000
214.51	-0.000
214.72	-0.000
214.94	-0.000
215.15	-0.000
215.36	-0.000
215.58	-0.000
215.79	-0.000
216.01	-0.000
216.22	-0.000
216.44	-0.000
216.65	-0.000
216.87	-0.000
217.08	-0.000
217.29	-0.000
217.51	-0.000
217.72	-0.000
217.94	-0.000
218.15	-0.000
218.37	-0.000
218.58	-0.000
218.80	-0.000
219.01	-0.000
219.22	-0.000
219.44	-0.000
219.65	-0.000
219.87	-0.000
220.08	-0.000
220.30	-0.000
220.51	-0.000
220.72	-0.000
220.94	-0.000
221.15	-0.000
221.37	-0.000
221.58	-0.000
221.79	-0.000
222.01	-0.000
222.22	-0.000
222.44	-0.000
222.65	-0.000
222.87	-0.000
223.08	-0.000
223.29	-0.000
223.51	-0.000
223.72	-0.000
223.94	-0.000
224.15	-0.000
224.36	-0.000
224.58	-0.000
224.79	-0.000
225.01	-0.000
225.22	-0.000
225.44	-0.000
225.65	-0.000
225.86	-0.000
226.08	-0.000
226.29	-0.000
226.51	-0.000
226.72	-0.000
226.93	-0.000
227.15	-0.000
227.36	-0.000
227.58	-0.000
227.79	-0.000
228.00	-0.000
228.22	-0.000
228.43	-0.000
228.65	-0.000
228.86	-0.000
229.07	-0.000
229.29	-0.000
229.50	-0.000
229.72	-0.000
229.93	-0.000
230.14	-0.000
230.36	-0.000
230.57	-0.000
230.78	-0.000
231.00	-0.000
231.21	-0.000
231.43	-0.000
231.64	-0.000
231.85	-0.000
232.07	-0.000
232.28	-0.000
232.50	-0.000
232.71	-0.000
232.92	-0.000
233.14	-0.000
233.35	-0.000
233.56	-0.000
233.78	-0.000
233.99	-0.000
234.21	-0.000
234.42	-0.000
234.63	-0.000
234.85	-0.000
235.06	-0.000
235.27	-0.000
235.49	-0.000
235.70	-0.000
235.91	-0.000
236.13	-0.000
236.34	-0.000
236.56	-0.000
236.77	-0.000
236.98	-0.000
237.20	-0.000
237.41	-0.000
237.62	-0.000
237.84	-0.000
238.05	-0.000
238.26	-0.000
238.48	-0.000
238.69	-0.000
238.91	-0.000
239.12	-0.000
239.33	-0.000
239.55	-0.000
239.76	-0.000
239.97	-0.000
240.19	-0.000
240.40	-0.000
240.61	-0.000
240.83	-0.000
241.04	-0.000
241.25	-0.000
241.47	-0.000
241.68	-0.000
241.89	-0.000
242.11	-0.000
242.32	-0.000
242.53	-0.000
242.75	-0.000
242.96	-0.000
243.17	-0.000
243.39	-0.000
243.60	-0.000
243.81	-0.000
244.03	-0.000
244.24	-0.000
244.45	-0.000
244.67	-0.000
244.88	-0.000
245.09	-0.000
245.31	-0.000
245.52	-0.000
245.73	-0.000
245.95	-0.000
246.16	-0.000
246.37	-0.000
246.59	-0.000
246.80	-0.000
247.01	-0.000
247.23	-0.000
247.44	-0.000
247.65	-0.000
247.87	-0.000
248.08	-0.000
248.29	-0.000
248.51	-0.000
248.72	-0.000
248.93	-0.000
249.15	-0.000
249.36	-0.000
249.57	-0.000
249.78	-0.000
250.00	-0.000
250.21	-0.000
250.42	-0.000
250.64	-0.000
250.85	-0.000
251.06	-0.000
251.28	-0.000
251.49	-0.000
251.70	-0.000
251.92	-0.000
252.13	-0.000
252.34	-0.000
252.55	-0.000
252.77	-0.000
252.98	-0.000
253.19	-0.000
253.41	-0.000
253.62	-0.000
253.83	-0.000
254.05	-0.000
254.26	-0.000
254.47	-0.000
254.68	-0.000
254.90	-0.000
255.11	-0.000
255.32	-0.000
255.54	-0.000
255.75	-0.000
255.96	-0.000
256.17	-0.000
256.39	-0.000
256.60	-0.000
256.81	-0.000
257.03	-0.000
257.24	-0.000
257.45	-0.000
257.66	-0.000
257.88	-0.000
258.09	-0.000
258.30	-0.000
258.51	-0.000
258.73	-0.000
258.94	-0.000
259.15	-0.000
259.37	-0.000
259.58	-0.000
259.79	-0.000
260.00	-0.000
260.22	-0.000
260.43	-0.000
260.64	-0.000
260.85	-0.000
261.07	-0.000
261.28	-0.000
261.49	-0.000
261.71	-0.000
261.92	-0.000
262.13	-0.000
262.34	-0.000
262.56	-0.000
262.77	-0.000
262.98	-0.000
263.19	-0.000
263.41	-0.000
263.62	-0.000
263.83	-0.000
264.04	-0.000
264.26	-0.000
264.47	-0.000
264.68	-0.000
264.89	-0.000
265.11	-0.000
265.32	-0.000
265.53	-0.000
265.74	-0.000
265.96	-0.000
266.17	-0.000
266.38	-0.000
266.59	-0.000
266.81	-0.000
267.02	-0.000
267.23	-0.000
267.44	-0.000
267.65	-0.000
267.87	-0.000
268.08	-0.000
268.29	-0.000
268.50	-0.000
268.72	-0.000
268.93	-0.000
269.14	-0.000
269.35	-0.000
269.57	-0.000
269.78	-0.000
269.99	-0.000
270.20	-0.000
270.41	-0.000
270.63	-0.000
270.84	-0.000
271.05	-0.000
271.26	-0.000
271.48	-0.000
271.69	-0.000
271.90	-0.000
272.11	-0.000
272.32	-0.000
272.54	-0.000
272.75	-0.000
272.96	-0.000
273.17	-0.000
273.39	-0.000
273.60	-0.000
273.81	-0.000
274.02	-0.000
274.23	-0.000
274.45	-0.000
274.66	-0.000
274.87	-0.000
275.08	-0.000
275.29	-0.000
275.51	-0.000
275.72	-0.000
275.93	-0.000
276.14	-0.000
276.35	-0.000
276.57	-0.000
276.78	-0.000
276.99	-0.000
277.20	-0.000
277.41	-0.000
277.63	-0.000
277.84	-0.000
278.05	-0.000
278.26	-0.000
278.47	-0.000
278.69	-0.000
278.90	-0.000
279.11	-0.000
279.32	-0.000
279.53	-0.000
279.74	-0.000
279.96	-0.000
280.17	-0.000
280.38	-0.000
280.59	-0.000
280.80	-0.000
281.02	-0.000
281.23	-0.000
281.44	-0.000
281.65	-0.000
281.86	-0.000
282.07	-0.000
282.29	-0.000
282.50	-0.000
282.71	-0.000
282.92	-0.000
283.13	-0.000
283.35	-0.000
283.56	-0.000
283.77	-0.000
283.98	-0.000
284.19	-0.000
284.40	-0.000
284.62	-0.000
284.83	-0.000
285.04	-0.000
285.25	-0.000
285.46	-0.000
285.67	-0.000
285.88	-0.000
286.10	-0.000
286.31	-0.000
286.52	-0.000
286.73	-0.000
286.94	-0.000
287.15	-0.000
287.37	-0.000
287.58	-0.000
287.79	-0.000
288.00	-0.000
288.21	-0.000
288.42	-0.000
288.63	-0.000
288.85	-0.000
289.06	-0.000
289.27	-0.000
289.48	-0.000
289.69	-0.000
289.90	-0.000
290.11	-0.000
290.33	-0.000
290.54	-0.000
290.75	-0.000
290.96	-0.000
291.17	-0.000
291.38	-0.000
291.59	-0.000
291.81	-0.000
292.02	-0.000
292.23	-0.000
292.44	-0.000
292.65	-0.000
292.86	-0.000
293.07	-0.000
293.28	-0.000
293.50	-0.000
293.71	-0.000
293.92	-0.000
294.13	-0.000
294.34	-0.000
294.55	-0.000
294.76	-0.000
294.97	-0.000
295.19	-0.000
295.40	-0.000
295.61	-0.000
295.82	-0.000
296.03	-0.000
296.24	-0.000
296.45	-0.000
296.66	-0.000
296.87	-0.000
297.09	-0.000
297.30	-0.000
297.51	3.477
297.72	2.611
297.93	-0.000
298.14	-0.000
298.35	2.572
298.56	2.392
298.77	-0.000
298.99	-0.000
299.20	2.712
299.41	2.503
299.62	2.291
299.83	2.222
300.04	2.003
300.25	1.956
300.46	2.101
300.67	2.020
300.88	1.878
301.10	1.869
301.31	2.042
301.52	1.894
301.73	1.770
301.94	1.764
302.15	1.798
302.36	1.712
302.57	1.604
302.78	1.609
302.99	1.674
303.20	1.704
303.41	1.561
303.63	1.535
303.84	1.545
304.05	1.544
304.26	1.456
304.47	1.461
304.68	1.470
304.89	1.453
305.10	1.397
305.31	1.385
305.52	1.444
305.73	1.428
305.94	1.372
306.15	1.364
306.37	1.394
306.58	1.400
306.79	1.359
307.00	1.383
307.21	1.440
307.42	1.426
307.63	1.374
307.84	1.332
308.05	1.384
308.26	1.386
308.47	1.352
308.68	1.342
308.89	1.345
309.10	1.345
309.31	1.296
309.52	1.284
309.73	1.308
309.95	1.302
310.16	1.263
310.37	1.247
310.58	1.265
310.79	1.264
311.00	1.259
311.21	1.261
311.42	1.262
311.63	1.255
311.84	1.231
312.05	1.227
312.26	1.253
312.47	1.269
312.68	1.237
312.89	1.217
313.10	1.226
313.31	1.193
313.52	1.192
313.73	1.194
313.94	1.198
314.15	1.179
314.36	1.152
314.57	1.144
314.78	1.128
314.99	1.123
315.21	1.112
315.42	1.117
315.63	1.132
315.84	1.107
316.05	1.090
316.26	1.099
316.47	1.119
316.68	1.115
316.89	1.092
317.10	1.116
317.31	1.124
317.52	1.123
317.73	1.098
317.94	1.100
318.15	1.148
318.36	1.146
318.57	1.123
318.78	1.111
318.99	1.152
319.20	1.150
319.41	1.112
319.62	1.112
319.83	1.127
320.04	1.122
320.25	1.103
320.46	1.068
320.67	1.071
320.88	1.066
321.09	1.046
321.30	1.029
321.51	1.046
321.72	1.043
321.93	1.025
322.14	1.016
322.35	1.045
322.56	1.047
322.77	1.031
322.98	1.042
323.19	1.050
323.40	1.059
323.61	1.035
323.82	1.029
324.03	1.034
324.24	1.031
324.45	1.018
324.66	0.999
324.87	0.996
325.08	0.995
325.29	0.976
325.50	0.968
325.71	0.974
325.92	0.982
326.13	0.967
326.34	0.966
326.55	0.977
326.76	0.976
326.97	0.964
327.18	0.959
327.39	0.987
327.60	0.987
327.80	0.988
328.01	0.986
328.22	0.987
328.43	0.992
328.64	0.980
328.85	0.983
329.06	0.985
329.27	0.983
329.48	0.977
329.69	0.957
329.90	0.968
330.11	0.960
330.32	0.953
330.53	0.945
330.74	0.945
330.95	0.943
331.16	0.927
331.37	0.935
331.58	0.937
331.79	0.935
332.00	0.926
332.21	0.919
332.42	0.923
332.63	0.915
332.83	0.909
333.04	0.911
333.25	0.924
333.46	0.923
333.67	0.908
333.88	0.909
334.09	0.920
334.30	0.915
334.51	0.905
334.72	0.900
334.93	0.902
335.14	0.901
335.35	0.892
335.56	0.887
335.77	0.896
335.98	0.893
336.18	0.887
336.39	0.880
336.60	0.886
336.81	0.885
337.02	0.885
337.23	0.889
337.44	0.892
337.65	0.894
337.86	0.883
338.07	0.877
338.28	0.884
338.49	0.881
338.70	0.872
338.91	0.879
339.11	0.885
339.32	0.881
339.53	0.868
339.74	0.867
339.95	0.864
340.16	0.863
340.37	0.855
340.58	0.852
340.79	0.857
341.00	0.857
341.21	0.845
341.41	0.847
341.62	0.849
341.83	0.851
342.04	0.844
342.25	0.856
342.46	0.861
342.67	0.860
342.88	0.852
343.09	0.851
343.30	0.859
343.50	0.863
343.71	0.852
343.92	0.850
344.13	0.855
344.34	0.855
344.55	0.838
344.76	0.836
344.97	0.843
345.18	0.842
345.38	0.840
345.59	0.834
345.80	0.833
346.01	0.832
346.22	0.826
346.43	0.821
346.64	0.829
346.85	0.829
347.06	0.822
347.26	0.821
347.47	0.824
347.68	0.818
347.89	0.815
348.10	0.810
348.31	0.818
348.52	0.816
348.73	0.814
348.93	0.810
349.14	0.812
349.35	0.812
349.56	0.806
349.77	0.802
349.98	0.809
350.19	0.804
350.39	0.800
350.60	0.795
350.81	0.811
351.02	0.810
351.23	0.805
351.44	0.807
351.65	0.810
351.86	0.807
352.06	0.805
352.27	0.805
352.48	0.808
352.69	0.806
352.90	0.801
353.11	0.787
353.31	0.795
353.52	0.792
353.73	0.783
353.94	0.785
354.15	0.792
354.36	0.792
354.57	0.782
354.77	0.784
354.98	0.785
355.19	0.785
355.40	0.784
355.61	0.789
355.82	0.794
356.02	0.793
356.23	0.786
356.44	0.787
356.65	0.791
356.86	0.792
357.07	0.785
357.27	0.789
357.48	0.792
357.69	0.787
357.90	0.771
358.11	0.767
358.32	0.771
358.52	0.775
358.73	0.765
358.94	0.767
359.15	0.772
359.36	0.772
359.56	0.767
359.77	0.764
359.98	0.771
360.19	0.771
360.40	0.767
360.61	0.767
360.81	0.766
361.02	0.766
361.23	0.758
361.44	0.756
361.65	0.757
361.85	0.756
362.06	0.754
362.27	0.756
362.48	0.756
362.69	0.758
362.89	0.752
363.10	0.753
363.31	0.759
363.52	0.761
363.73	0.756
363.93	0.756
364.14	0.758
364.35	0.760
364.56	0.750
364.77	0.753
364.97	0.756
365.18	0.756
365.39	0.750
365.60	0.746
365.81	0.748
366.01	0.748
366.22	0.744
366.43	0.743
366.64	0.745
366.84	0.751
367.05	0.747
367.26	0.746
367.47	0.748
367.68	0.748
367.88	0.746
368.09	0.743
368.30	0.745
368.51	0.745
368.71	0.744
368.92	0.748
369.13	0.747
369.34	0.746
369.55	0.745
369.75	0.745
369.96	0.752
370.17	0.751
370.38	0.748
370.58	0.748
370.79	0.754
371.00	0.752
371.21	0.743
371.41	0.748
371.62	0.753
371.83	0.747
372.04	0.744
372.24	0.738
372.45	0.738
372.66	0.738
372.87	0.735
373.07	0.732
373.28	0.732
373.49	0.735
373.70	0.725
373.90	0.725
374.11	0.735
374.32	0.736
374.53	0.733
374.73	0.734
374.94	0.737
375.15	0.737
375.36	0.735
375.56	0.744
375.77	0.745
375.98	0.745
376.19	0.742
376.39	0.735
376.60	0.738
376.81	0.739
377.02	0.736
377.22	0.734
377.43	0.734
377.64	0.734
377.84	0.725
378.05	0.729
378.26	0.736
378.47	0.735
378.67	0.731
378.88	0.728
379.09	0.730
379.30	0.730
379.50	0.728
379.71	0.730
379.92	0.733
380.12	0.732
380.33	0.723
380.54	0.719
380.75	0.726
380.95	0.726
381.16	0.724
381.37	0.724
381.57	0.726
381.78	0.726
381.99	0.725
382.20	0.724
382.40	0.728
382.61	0.728
382.82	0.725
383.02	0.717
383.23	0.721
383.44	0.721
383.64	0.718
383.85	0.721
384.06	0.725
384.27	0.722
384.47	0.719
384.68	0.719
384.89	0.725
385.09	0.724
385.30	0.724
385.51	0.722
385.71	0.726
385.92	0.727
386.13	0.724
386.33	0.726
386.54	0.728
386.75	0.727
386.95	0.723
387.16	0.718
387.37	0.721
387.58	0.721
387.78	0.718
387.99	0.715
388.20	0.717
388.40	0.714
388.61	0.710
388.82	0.712
389.02	0.714
389.23	0.714
389.44	0.712
389.64	0.713
389.85	0.724
390.06	0.724
390.26	0.725
390.47	0.724
390.68	0.727
390.88	0.725
391.09	0.721
391.30	0.720
391.50	0.719
391.71	0.719
391.92	0.717
392.12	0.709
392.33	0.709
392.53	0.709
392.74	0.709
392.95	0.709
393.15	0.712
393.36	0.713
393.57	0.711
393.77	0.714
393.98	0.716
394.19	0.716
394.39	0.714
394.60	0.716
394.81	0.718
395.01	0.715
395.22	0.713
395.43	0.714
395.63	0.719
395.84	0.720
396.04	0.716
396.25	0.717
396.46	0.719
396.66	0.717
396.87	0.714
397.08	0.711
397.28	0.712
397.49	0.713
397.69	0.709
397.90	0.704
398.11	0.704
398.31	0.705
398.52	0.701
398.73	0.702
398.93	0.701
399.14	0.701
399.34	0.700
399.55	0.701
399.76	0.701
399.96	0.702
400.17	0.701
400.37	0.700
400.58	0.707
400.79	0.708
400.99	0.705
401.20	0.711
401.41	0.713
401.61	0.714
401.82	0.718
402.02	0.718
402.23	0.719
402.44	0.719
402.64	0.718
402.85	0.712
403.05	0.711
403.26	0.710
403.47	0.704
403.67	0.702
403.88	0.703
404.08	0.697
404.29	0.695
404.50	0.694
404.70	0.695
404.91	0.694
405.11	0.691
405.32	0.691
405.52	0.692
405.73	0.692
405.94	0.690
406.14	0.693
406.35	0.695
406.55	0.694
406.76	0.692
406.97	0.692
407.17	0.695
407.38	0.695
407.58	0.692
407.79	0.695
407.99	0.697
408.20	0.698
408.41	0.693
408.61	0.692
408.82	0.693
409.02	0.693
409.23	0.691
409.43	0.690
409.64	0.692
409.84	0.692
410.05	0.688
410.26	0.687
410.46	0.686
410.67	0.686
410.87	0.687
411.08	0.689
411.28	0.690
411.49	0.692
411.69	0.690
411.90	0.691
412.11	0.692
412.31	0.693
412.52	0.691
412.72	0.693
412.93	0.693
413.13	0.692
413.34	0.688
413.54	0.690
413.75	0.691
413.95	0.691
414.16	0.687
414.37	0.689
414.57	0.690
414.78	0.693
414.98	0.691
415.19	0.692
415.39	0.690
415.60	0.692
415.80	0.691
416.01	0.689
416.21	0.691
416.42	0.691
416.62	0.686
416.83	0.686
417.03	0.685
417.24	0.685
417.44	0.682
417.65	0.682
417.86	0.682
418.06	0.681
418.27	0.679
418.47	0.680
418.68	0.681
418.88	0.682
419.09	0.680
419.29	0.681
419.50	0.681
419.70	0.681
419.91	0.680
420.11	0.678
420.32	0.681
420.52	0.680
420.73	0.679
420.93	0.680
421.14	0.681
421.34	0.680
421.55	0.677
421.75	0.677
421.96	0.678
422.16	0.678
422.37	0.677
422.57	0.674
422.78	0.676
422.98	0.672
423.19	0.670
423.39	0.668
423.60	0.672
423.80	0.673
424.01	0.671
424.21	0.674
424.42	0.674
424.62	0.674
424.83	0.673
425.03	0.673
425.23	0.675
425.44	0.676
425.64	0.677
425.85	0.676
426.05	0.677
426.26	0.677
426.46	0.674
426.67	0.673
426.87	0.678
427.08	0.679
427.28	0.677
427.49	0.678
427.69	0.679
427.90	0.677
428.10	0.674
428.31	0.674
428.51	0.675
428.71	0.675
428.92	0.676
429.12	0.673
429.33	0.674
429.53	0.678
429.74	0.682
429.94	0.682
430.15	0.682
430.35	0.683
430.56	0.680
430.76	0.679
430.96	0.680
431.17	0.677
431.37	0.674
431.58	0.672
431.78	0.669
431.99	0.662
432.19	0.664
432.40	0.666
432.60	0.666
432.80	0.669
433.01	0.667
433.21	0.668
433.42	0.671
433.62	0.671
433.83	0.671
434.03	0.674
434.23	0.677
434.44	0.677
434.64	0.675
434.85	0.680
435.05	0.680
435.26	0.681
435.46	0.679
435.66	0.679
435.87	0.679
436.07	0.679
436.28	0.675
436.48	0.672
436.69	0.671
436.89	0.671
437.09	0.665
437.30	0.664
437.50	0.665
437.71	0.676
437.91	0.675
438.11	0.676
438.32	0.680
438.52	0.681
438.73	0.680
438.93	0.679
439.13	0.678
439.34	0.682
439.54	0.680
439.75	0.680
439.95	0.670
440.15	0.674
440.36	0.672
440.56	0.670
440.77	0.671
440.97	0.671
441.17	0.670
441.38	0.671
441.58	0.668
441.79	0.667
441.99	0.666
442.19	0.665
442.40	0.662
442.60	0.662
442.81	0.659
443.01	0.660
443.21	0.660
443.42	0.659
443.62	0.658
443.82	0.658
444.03	0.660
444.23	0.660
444.44	0.660
444.64	0.660
444.84	0.662
445.05	0.662
445.25	0.660
445.45	0.660
445.66	0.663
445.86	0.663
446.06	0.663
446.27	0.663
446.47	0.667
446.68	0.665
446.88	0.663
447.08	0.662
447.29	0.664
447.49	0.664
447.69	0.664
447.90	0.663
448.10	0.666
448.30	0.663
448.51	0.665
448.71	0.662
448.91	0.665
449.12	0.664
449.32	0.665
449.52	0.665
449.73	0.668
449.93	0.667
450.14	0.667
450.34	0.667
450.54	0.670
450.75	0.666
450.95	0.665
451.15	0.664
451.36	0.667
451.56	0.664
451.76	0.663
451.97	0.660
452.17	0.660
452.37	0.659
452.58	0.656
452.78	0.656
452.98	0.658
453.19	0.657
453.39	0.658
453.59	0.657
453.79	0.658
454.00	0.659
454.20	0.657
454.40	0.659
454.61	0.661
454.81	0.661
455.01	0.660
455.22	0.661
455.42	0.663
455.62	0.661
455.83	0.661
456.03	0.664
456.23	0.665
456.44	0.665
456.64	0.663
456.84	0.664
457.04	0.664
457.25	0.663
457.45	0.660
457.65	0.659
457.86	0.659
458.06	0.658
458.26	0.654
458.47	0.653
458.67	0.654
458.87	0.655
459.07	0.652
459.28	0.655
459.48	0.657
459.68	0.656
459.89	0.656
460.09	0.655
460.29	0.657
460.49	0.658
460.70	0.657
460.90	0.656
461.10	0.657
461.31	0.657
461.51	0.654
461.71	0.655
461.91	0.657
462.12	0.656
462.32	0.655
462.52	0.656
462.72	0.659
462.93	0.660
463.13	0.658
463.33	0.659
463.53	0.661
463.74	0.660
463.94	0.655
464.14	0.656
464.35	0.658
464.55	0.658
464.75	0.655
464.95	0.653
465.16	0.655
465.36	0.654
465.56	0.653
465.76	0.652
465.97	0.652
466.17	0.654
466.37	0.651
466.57	0.652
466.78	0.654
466.98	0.654
467.18	0.651
467.38	0.650
467.59	0.652
467.79	0.654
467.99	0.653
468.19	0.655
468.39	0.658
468.60	0.658
468.80	0.656
469.00	0.657
469.20	0.659
469.41	0.660
469.61	0.660
469.81	0.660
470.01	0.659
470.22	0.660
470.42	0.658
470.62	0.656
470.82	0.658
471.02	0.657
471.23	0.654
471.43	0.654
471.63	0.657
471.83	0.655
472.04	0.653
472.24	0.652
472.44	0.657
472.64	0.658
472.84	0.655
473.05	0.655
473.25	0.657
473.45	0.657
473.65	0.655
473.85	0.656
474.06	0.657
474.26	0.657
474.46	0.658
474.66	0.654
474.86	0.655
475.07	0.656
475.27	0.653
475.47	0.651
475.67	0.652
475.87	0.654
476.08	0.650
476.28	0.652
476.48	0.653
476.68	0.652
476.88	0.650
477.09	0.651
477.29	0.652
477.49	0.653
477.69	0.651
477.89	0.652
478.09	0.651
478.30	0.653
478.50	0.650
478.70	0.650
478.90	0.650
479.10	0.652
479.31	0.653
479.51	0.652
479.71	0.652
479.91	0.653
480.11	0.651
480.31	0.651
480.52	0.650
480.72	0.650
480.92	0.648
481.12	0.648
481.32	0.645
481.52	0.643
481.72	0.643
481.93	0.647
482.13	0.648
482.33	0.648
482.53	0.646
482.73	0.646
482.93	0.648
483.14	0.647
483.34	0.646
483.54	0.647
483.74	0.647
483.94	0.646
484.14	0.642
484.34	0.641
484.55	0.642
484.75	0.642
484.95	0.640
485.15	0.640
485.35	0.640
485.55	0.639
485.75	0.637
485.96	0.638
486.16	0.639
486.36	0.639
486.56	0.637
486.76	0.636
486.96	0.637
487.16	0.637
487.36	0.635
487.57	0.635
487.77	0.635
487.97	0.636
488.17	0.634
488.37	0.633
488.57	0.633
488.77	0.634
488.97	0.633
489.18	0.632
489.38	0.634
489.58	0.635
489.78	0.634
489.98	0.634
490.18	0.635
490.38	0.635
490.58	0.634
490.78	0.635
490.98	0.636
491.19	0.637
491.39	0.636
491.59	0.635
491.79	0.638
491.99	0.638
492.19	0.638
492.39	0.641
492.59	0.640
492.79	0.643
492.99	0.642
493.20	0.642
493.40	0.642
493.60	0.644
493.80	0.642
494.00	0.639
494.20	0.640
494.40	0.639
494.60	0.637
494.80	0.641
495.00	0.641
495.20	0.639
495.40	0.638
495.61	0.640
495.81	0.640
496.01	0.644
496.21	0.645
496.41	0.644
496.61	0.645
496.81	0.644
497.01	0.639
497.21	0.638
497.41	0.639
497.61	0.638
497.81	0.635
498.01	0.636
498.21	0.634
498.41	0.632
498.61	0.632
498.82	0.633
499.02	0.635
499.22	0.636
499.42	0.635
499.62	0.636
499.82	0.637
500.02	0.638
500.22	0.637
500.42	0.639
500.62	0.640
500.82	0.640
501.02	0.638
501.22	0.638
501.42	0.638
501.62	0.640
501.82	0.639
502.02	0.639
502.22	0.639
502.42	0.641
502.62	0.638
502.82	0.638
503.02	0.640
503.22	0.640
503.42	0.637
503.63	0.638
503.83	0.636
504.03	0.635
504.23	0.633
504.43	0.634
504.63	0.634
504.83	0.634
505.03	0.633
505.23	0.634
505.43	0.636
505.63	0.637
505.83	0.636
506.03	0.639
506.23	0.641
506.43	0.642
506.63	0.641
506.83	0.640
507.03	0.642
507.23	0.643
507.43	0.640
507.63	0.640
507.83	0.641
508.03	0.641
508.23	0.640
508.43	0.638
508.63	0.639
508.83	0.640
509.03	0.641
509.23	0.639
509.43	0.640
509.63	0.641
509.83	0.639
510.03	0.641
510.23	0.643
510.43	0.644
510.63	0.644
510.83	0.644
511.03	0.646
511.23	0.644
511.43	0.643
511.63	0.645
511.83	0.648
512.03	0.648
512.22	0.645
512.42	0.644
512.62	0.645
512.82	0.645
513.02	0.644
513.22	0.643
513.42	0.645
513.62	0.648
513.82	0.646
514.02	0.646
514.22	0.646
514.42	0.647
514.62	0.646
514.82	0.647
515.02	0.649
515.22	0.653
515.42	0.652
515.62	0.655
515.82	0.654
516.02	0.655
516.22	0.654
516.42	0.656
516.62	0.658
516.82	0.659
517.01	0.658
517.21	0.657
517.41	0.660
517.61	0.661
517.81	0.656
518.01	0.655
518.21	0.655
518.41	0.654
518.61	0.653
518.81	0.652
519.01	0.653
519.21	0.654
519.41	0.652
519.61	0.647
519.81	0.649
520.00	0.649
520.20	0.650
520.40	0.652
520.60	0.654
520.80	0.652
521.00	0.653
521.20	0.654
521.40	0.658
521.60	0.659
521.80	0.658
522.00	0.658
522.20	0.661
522.39	0.660
522.59	0.657
522.79	0.659
522.99	0.662
523.19	0.660
523.39	0.658
523.59	0.656
523.79	0.659
523.99	0.661
524.19	0.660
524.38	0.658
524.58	0.659
524.78	0.660
524.98	0.657
525.18	0.660
525.38	0.661
525.58	0.662
525.78	0.660
525.98	0.658
526.18	0.658
526.37	0.657
526.57	0.659
526.77	0.659
526.97	0.660
527.17	0.660
527.37	0.657
527.57	0.659
527.77	0.661
527.96	0.661
528.16	0.660
528.36	0.661
528.56	0.663
528.76	0.661
528.96	0.660
529.16	0.661
529.36	0.664
529.55	0.664
529.75	0.661
529.95	0.661
530.15	0.662
530.35	0.665
530.55	0.662
530.75	0.663
530.94	0.664
531.14	0.664
531.34	0.663
531.54	0.661
531.74	0.664
531.94	0.667
532.13	0.665
532.33	0.667
532.53	0.666
532.73	0.666
532.93	0.664
533.13	0.665
533.33	0.666
533.52	0.666
533.72	0.670
533.92	0.668
534.12	0.666
534.32	0.666
534.52	0.664
534.71	0.666
534.91	0.669
535.11	0.670
535.31	0.668
535.51	0.670
535.71	0.672
535.90	0.668
536.10	0.669
536.30	0.671
536.50	0.672
536.70	0.673
536.89	0.670
537.09	0.668
537.29	0.670
537.49	0.671
537.69	0.668
537.89	0.669
538.08	0.669
538.28	0.667
538.48	0.667
538.68	0.670
538.88	0.672
539.07	0.672
539.27	0.670
539.47	0.669
539.67	0.669
539.87	0.671
540.06	0.668
540.26	0.669
540.46	0.671
540.66	0.668
540.86	0.665
541.05	0.665
541.25	0.667
541.45	0.667
541.65	0.666
541.84	0.668
542.04	0.669
542.24	0.670
542.44	0.668
542.64	0.670
542.83	0.673
543.03	0.673
543.23	0.670
543.43	0.671
543.62	0.673
543.82	0.673
544.02	0.671
544.22	0.671
544.42	0.675
544.61	0.676
544.81	0.672
545.01	0.671
545.21	0.674
545.40	0.675
545.60	0.672
545.80	0.676
546.00	0.676
546.19	0.676
546.39	0.674
546.59	0.671
546.79	0.673
546.98	0.673
547.18	0.673
547.38	0.673
547.58	0.676
547.77	0.676
547.97	0.672
548.17	0.674
548.37	0.674
548.56	0.674
548.76	0.673
548.96	0.675
549.16	0.678
549.35	0.677
549.55	0.675
549.75	0.675
549.95	0.679
550.14	0.679
550.34	0.677
550.54	0.682
550.73	0.687
550.93	0.687
551.13	0.684
551.33	0.682
551.52	0.683
551.72	0.683
551.92	0.681
552.12	0.682
552.31	0.683
552.51	0.683
552.71	0.678
552.90	0.677
553.10	0.679
553.30	0.679
553.50	0.679
553.69	0.680
553.89	0.682
554.09	0.682
554.28	0.678
554.48	0.680
554.68	0.682
554.87	0.682
555.07	0.679
555.27	0.679
555.47	0.681
555.66	0.681
555.86	0.679
556.06	0.681
556.25	0.682
556.45	0.690
556.65	0.688
556.84	0.691
557.04	0.695
557.24	0.696
557.43	0.696
557.63	0.699
557.83	0.701
558.02	0.703
558.22	0.706
558.42	0.707
558.61	0.699
558.81	0.700
559.01	0.695
559.21	0.695
559.40	0.696
559.60	0.696
559.80	0.692
559.99	0.693
560.19	0.695
560.39	0.689
560.58	0.686
560.78	0.687
560.97	0.690
561.17	0.688
561.37	0.685
561.56	0.686
561.76	0.688
561.96	0.687
562.15	0.684
562.35	0.687
562.55	0.689
562.74	0.689
562.94	0.687
563.14	0.685
563.33	0.686
563.53	0.687
563.73	0.684
563.92	0.686
564.12	0.689
564.31	0.691
564.51	0.689
564.71	0.690
564.90	0.693
565.10	0.694
565.30	0.696
565.49	0.697
565.69	0.700
565.89	0.701
566.08	0.697
566.28	0.699
566.47	0.701
566.67	0.699
566.87	0.695
567.06	0.698
567.26	0.704
567.46	0.700
567.65	0.699
567.85	0.700
568.04	0.703
568.24	0.702
568.44	0.699
568.63	0.697
568.83	0.700
569.02	0.698
569.22	0.692
569.42	0.688
569.61	0.691
569.81	0.689
570.00	0.687
570.20	0.688
570.40	0.689
570.59	0.688
570.79	0.686
570.98	0.684
571.18	0.685
571.38	0.685
571.57	0.682
571.77	0.680
571.96	0.684
572.16	0.681
572.35	0.675
572.55	0.676
572.75	0.675
572.94	0.674
573.14	0.673
573.33	0.673
573.53	0.674
573.73	0.673
573.92	0.672
574.12	0.670
574.31	0.672
574.51	0.674
574.70	0.671
574.90	0.672
575.09	0.676
575.29	0.675
575.49	0.672
575.68	0.673
575.88	0.675
576.07	0.676
576.27	0.674
576.46	0.673
576.66	0.672
576.86	0.671
577.05	0.668
577.25	0.666
577.44	0.668
577.64	0.668
577.83	0.666
578.03	0.667
578.22	0.666
578.42	0.665
578.61	0.663
578.81	0.665
579.00	0.665
579.20	0.665
579.40	0.663
579.59	0.662
579.79	0.662
579.98	0.662
580.18	0.661
580.37	0.662
580.57	0.664
580.76	0.668
580.96	0.666
581.15	0.667
581.35	0.670
581.54	0.670
581.74	0.669
581.93	0.671
582.13	0.672
582.32	0.669
582.52	0.667
582.71	0.666
582.91	0.662
583.10	0.662
583.30	0.661
583.49	0.660
583.69	0.663
583.88	0.665
584.08	0.663
584.27	0.666
584.47	0.669
584.66	0.670
584.86	0.669
585.05	0.671
585.25	0.674
585.44	0.674
585.64	0.672
585.83	0.669
586.03	0.669
586.22	0.668
586.42	0.664
586.61	0.665
586.81	0.668
587.00	0.668
587.20	0.666
587.39	0.666
587.59	0.669
587.78	0.670
587.98	0.671
588.17	0.672
588.37	0.675
588.56	0.677
588.76	0.673
588.95	0.673
589.15	0.677
589.34	0.679
589.54	0.678
589.73	0.678
589.92	0.681
590.12	0.681
590.31	0.678
590.51	0.684
590.70	0.685
590.90	0.685
591.09	0.683
591.29	0.681
591.48	0.681
591.68	0.681
591.87	0.679
592.06	0.678
592.26	0.681
592.45	0.680
592.65	0.674
592.84	0.673
593.04	0.676
593.23	0.679
593.43	0.676
593.62	0.676
593.81	0.677
594.01	0.677
594.20	0.675
594.40	0.674
594.59	0.676
594.79	0.677
594.98	0.676
595.17	0.674
595.37	0.676
595.56	0.678
595.76	0.678
595.95	0.679
596.14	0.682
596.34	0.683
596.53	0.681
596.73	0.683
596.92	0.684
597.12	0.687
597.31	0.687
597.50	0.686
597.70	0.688
597.89	0.687
598.09	0.683
598.28	0.685
598.47	0.688
598.67	0.686
598.86	0.682
599.06	0.684
599.25	0.685
599.44	0.683
599.64	0.680
599.83	0.677
600.03	0.680
600.22	0.681
600.41	0.681
600.61	0.679
600.80	0.682
601.00	0.682
601.19	0.677
601.38	0.676
601.58	0.678
601.77	0.679
601.96	0.681
602.16	0.681
602.35	0.690
602.55	0.688
602.74	0.688
602.93	0.689
603.13	0.695
603.32	0.697
603.51	0.696
603.71	0.699
603.90	0.701
604.09	0.702
604.29	0.698
604.48	0.692
604.68	0.694
604.87	0.693
605.06	0.689
605.26	0.686
605.45	0.686
605.64	0.686
605.84	0.681
606.03	0.681
606.22	0.680
606.42	0.680
606.61	0.676
606.80	0.676
607.00	0.678
607.19	0.678
607.38	0.676
607.58	0.677
607.77	0.680
607.96	0.680
608.16	0.678
608.35	0.683
608.54	0.686
608.74	0.689
608.93	0.695
609.12	0.697
609.32	0.700
609.51	0.704
609.70	0.703
609.90	0.705
610.09	0.709
610.28	0.715
610.48	0.709
610.67	0.709
610.86	0.709
611.06	0.702
611.25	0.700
611.44	0.701
611.64	0.701
611.83	0.704
612.02	0.700
612.21	0.699
612.41	0.697
612.60	0.696
612.79	0.693
612.99	0.694
613.18	0.697
613.37	0.694
613.57	0.691
613.76	0.693
613.95	0.691
614.14	0.691
614.34	0.688
614.53	0.688
614.72	0.692
614.92	0.692
615.11	0.688
615.30	0.685
615.49	0.687
615.69	0.691
615.88	0.687
616.07	0.688
616.26	0.691
616.46	0.692
616.65	0.689
616.84	0.687
617.04	0.689
617.23	0.692
617.42	0.693
617.61	0.697
617.81	0.697
618.00	0.700
618.19	0.698
618.38	0.701
618.58	0.705
618.77	0.706
618.96	0.705
619.15	0.707
619.35	0.710
619.54	0.710
619.73	0.705
619.92	0.707
620.12	0.711
620.31	0.712
620.50	0.706
620.69	0.707
620.89	0.710
621.08	0.710
621.27	0.710
621.46	0.709
621.66	0.713
621.85	0.713
622.04	0.709
622.23	0.709
622.43	0.710
622.62	0.710
622.81	0.709
623.00	0.708
623.19	0.713
623.39	0.711
623.58	0.708
623.77	0.707
623.96	0.709
624.16	0.709
624.35	0.704
624.54	0.708
624.73	0.712
624.92	0.710
625.12	0.707
625.31	0.707
625.50	0.711
625.69	0.712
625.88	0.708
626.08	0.708
626.27	0.711
626.46	0.711
626.65	0.708
626.84	0.707
627.04	0.713
627.23	0.712
627.42	0.707
627.61	0.710
627.80	0.712
628.00	0.713
628.19	0.711
628.38	0.714
628.57	0.717
628.76	0.716
628.96	0.712
629.15	0.713
629.34	0.715
629.53	0.716
629.72	0.710
629.91	0.711
630.11	0.716
630.30	0.716
630.49	0.718
630.68	0.719
630.87	0.723
631.06	0.726
631.26	0.720
631.45	0.723
631.64	0.732
631.83	0.735
632.02	0.732
632.21	0.731
632.41	0.739
632.60	0.733
632.79	0.731
632.98	0.733
633.17	0.733
633.36	0.735
633.55	0.730
633.75	0.726
633.94	0.728
634.13	0.728
634.32	0.725
634.51	0.719
634.70	0.721
634.89	0.721
635.09	0.715
635.28	0.716
635.47	0.717
635.66	0.721
635.85	0.715
636.04	0.717
636.23	0.723
636.43	0.724
636.62	0.721
636.81	0.721
637.00	0.725
637.19	0.729
637.38	0.725
637.57	0.724
637.76	0.726
637.95	0.728
638.15	0.723
638.34	0.720
638.53	0.724
638.72	0.727
638.91	0.723
639.10	0.721
639.29	0.722
639.48	0.724
639.67	0.724
639.87	0.722
640.06	0.729
640.25	0.727
640.44	0.728
640.63	0.728
640.82	0.730
641.01	0.730
641.20	0.729
641.39	0.730
641.58	0.733
641.78	0.731
641.97	0.727
642.16	0.741
642.35	0.743
642.54	0.741
642.73	0.736
642.92	0.734
643.11	0.738
643.30	0.737
643.49	0.731
643.68	0.733
643.87	0.735
644.06	0.735
644.25	0.715
644.45	0.718
644.64	0.721
644.83	0.721
645.02	0.717
645.21	0.717
645.40	0.719
645.59	0.719
645.78	0.713
645.97	0.716
646.16	0.717
646.35	0.716
646.54	0.712
646.73	0.712
646.92	0.714
647.11	0.713
647.30	0.710
647.49	0.712
647.68	0.713
647.88	0.711
648.07	0.703
648.26	0.707
648.45	0.709
648.64	0.706
648.83	0.703
649.02	0.706
649.21	0.716
649.40	0.715
649.59	0.709
649.78	0.709
649.97	0.724
650.16	0.724
650.35	0.718
650.54	0.720
650.73	0.729
650.92	0.725
651.11	0.718
651.30	0.717
651.49	0.722
651.68	0.723
651.87	0.719
652.06	0.708
652.25	0.712
652.44	0.714
652.63	0.711
652.82	0.709
653.01	0.709
653.20	0.708
653.39	0.695
653.58	0.692
653.77	0.691
653.96	0.686
654.15	0.678
654.34	0.676
654.53	0.671
654.72	0.665
654.91	0.656
655.10	0.652
655.29	0.650
655.48	0.648
655.67	0.642
655.86	0.640
656.05	0.639
656.24	0.638
656.43	0.633
656.62	0.632
656.81	0.633
657.00	0.631
657.19	0.628
657.38	0.629
657.57	0.628
657.76	0.630
657.95	0.629
658.14	0.633
658.33	0.636
658.51	0.642
658.70	0.642
658.89	0.643
659.08	0.653
659.27	0.660
659.46	0.660
659.65	0.666
659.84	0.670
660.03	0.673
660.22	0.674
660.41	0.679
660.60	0.678
660.79	0.679
660.98	0.685
661.17	0.684
661.36	0.684
661.55	0.685
661.74	0.682
661.92	0.685
662.11	0.688
662.30	0.686
662.49	0.678
662.68	0.678
662.87	0.683
663.06	0.676
663.25	0.677
663.44	0.677
663.63	0.678
663.82	0.677
664.01	0.672
664.20	0.670
664.38	0.672
664.57	0.672
664.76	0.672
664.95	0.672
665.14	0.677
665.33	0.672
665.52	0.679
665.71	0.683
665.90	0.683
666.09	0.684
666.28	0.682
666.46	0.681
666.65	0.681
666.84	0.680
667.03	0.674
667.22	0.673
667.41	0.676
667.60	0.665
667.79	0.658
667.98	0.659
668.16	0.660
668.35	0.659
668.54	0.655
668.73	0.656
668.92	0.657
669.11	0.656
669.30	0.649
669.49	0.645
669.67	0.648
669.86	0.650
670.05	0.647
670.24	0.644
670.43	0.642
670.62	0.642
670.81	0.637
671.00	0.637
671.18	0.637
671.37	0.636
671.56	0.634
671.75	0.633
671.94	0.631
672.13	0.629
672.32	0.624
672.50	0.624
672.69	0.625
672.88	0.625
673.07	0.620
673.26	0.623
673.45	0.625
673.63	0.624
673.82	0.620
674.01	0.622
674.20	0.621
674.39	0.621
674.58	0.620
674.76	0.620
674.95	0.618
675.14	0.618
675.33	0.613
675.52	0.611
675.71	0.611
675.89	0.610
676.08	0.606
676.27	0.606
676.46	0.607
676.65	0.606
676.84	0.605
677.02	0.607
677.21	0.609
677.40	0.608
677.59	0.605
677.78	0.606
677.96	0.609
678.15	0.608
678.34	0.606
678.53	0.607
678.72	0.607
678.90	0.604
679.09	0.600
679.28	0.596
679.47	0.597
679.66	0.596
679.84	0.593
680.03	0.591
680.22	0.590
680.41	0.591
680.60	0.587
680.78	0.587
680.97	0.589
681.16	0.590
681.35	0.589
681.53	0.588
681.72	0.590
681.91	0.592
682.10	0.590
682.29	0.593
682.47	0.590
682.66	0.590
682.85	0.588
683.04	0.587
683.22	0.587
683.41	0.588
683.60	0.587
683.79	0.588
683.97	0.587
684.16	0.585
684.35	0.581
684.54	0.582
684.72	0.583
684.91	0.583
685.10	0.581
685.29	0.582
685.47	0.579
685.66	0.578
685.85	0.574
686.04	0.573
686.22	0.576
686.41	0.578
686.60	0.576
686.79	0.578
686.97	0.580
687.16	0.581
687.35	0.579
687.54	0.583
687.72	0.587
687.91	0.586
688.10	0.588
688.29	0.589
688.47	0.587
688.66	0.587
688.85	0.582
689.03	0.579
689.22	0.584
689.41	0.585
689.60	0.579
689.78	0.576
689.97	0.577
690.16	0.574
690.34	0.569
690.53	0.569
690.72	0.570
690.91	0.568
691.09	0.566
691.28	0.560
691.47	0.558
691.65	0.557
691.84	0.554
692.03	0.553
692.21	0.551
692.40	0.550
692.59	0.547
692.77	0.546
692.96	0.547
693.15	0.548
693.34	0.546
693.52	0.546
693.71	0.547
693.90	0.548
694.08	0.548
694.27	0.550
694.46	0.560
694.64	0.561
694.83	0.561
695.02	0.560
695.20	0.560
695.39	0.560
695.58	0.560
695.76	0.561
695.95	0.560
696.14	0.560
696.32	0.557
696.51	0.548
696.70	0.548
696.88	0.549
697.07	0.547
697.26	0.548
697.44	0.549
697.63	0.548
697.81	0.546
698.00	0.545
698.19	0.545
698.37	0.545
698.56	0.544
698.75	0.545
698.93	0.545
699.12	0.545
699.31	0.543
699.49	0.543
699.68	0.544
699.87	0.546
700.05	0.546
700.24	0.546
700.42	0.548
700.61	0.546
700.80	0.544
700.98	0.544
701.17	0.545
701.36	0.544
701.54	0.543
701.73	0.545
701.91	0.543
702.10	0.542
702.29	0.540
702.47	0.539
702.66	0.541
702.84	0.542
703.03	0.540
703.22	0.542
703.40	0.542
703.59	0.543
703.77	0.542
703.96	0.542
704.15	0.543
704.33	0.542
704.52	0.541
704.70	0.540
704.89	0.541
705.08	0.539
705.26	0.535
705.45	0.535
705.63	0.535
705.82	0.531
706.00	0.530
706.19	0.529
706.38	0.529
706.56	0.529
706.75	0.527
706.93	0.526
707.12	0.527
707.30	0.528
707.49	0.525
707.68	0.523
707.86	0.523
708.05	0.523
708.23	0.520
708.42	0.521
708.60	0.524
708.79	0.525
708.98	0.523
709.16	0.523
709.35	0.526
709.53	0.530
709.72	0.528
709.90	0.530
710.09	0.532
710.27	0.534
710.46	0.537
710.64	0.536
710.83	0.538
711.02	0.539
711.20	0.537
711.39	0.534
711.57	0.532
711.76	0.534
711.94	0.532
712.13	0.533
712.31	0.533
712.50	0.528
712.68	0.525
712.87	0.525
713.05	0.525
713.24	0.526
713.42	0.526
713.61	0.526
713.79	0.527
713.98	0.527
714.16	0.528
714.35	0.527
714.54	0.528
714.72	0.528
714.91	0.526
715.09	0.533
715.28	0.536
715.46	0.536
715.65	0.533
715.83	0.533
716.02	0.535
716.20	0.532
716.39	0.532
716.57	0.533
716.76	0.536
716.94	0.536
717.12	0.528
717.31	0.529
717.49	0.533
717.68	0.535
717.86	0.534
718.05	0.536
718.23	0.538
718.42	0.540
718.60	0.541
718.79	0.548
718.97	0.551
719.16	0.551
719.34	0.548
719.53	0.548
719.71	0.548
719.90	0.549
720.08	0.546
720.27	0.547
720.45	0.548
720.63	0.548
720.82	0.542
721.00	0.545
721.19	0.549
721.37	0.549
721.56	0.549
721.74	0.551
721.93	0.561
722.11	0.569
722.30	0.568
722.48	0.572
722.66	0.573
722.85	0.572
723.03	0.571
723.22	0.569
723.40	0.573
723.59	0.574
723.77	0.577
723.95	0.571
724.14	0.571
724.32	0.573
724.51	0.572
724.69	0.573
724.88	0.573
725.06	0.571
725.24	0.572
725.43	0.573
725.61	0.576
725.80	0.570
725.98	0.567
726.16	0.564
726.35	0.571
726.53	0.569
726.72	0.569
726.90	0.580
727.09	0.582
727.27	0.588
727.45	0.584
727.64	0.594
727.82	0.603
728.01	0.609
728.19	0.605
728.37	0.611
728.56	0.615
728.74	0.621
728.92	0.610
729.11	0.613
729.29	0.611
729.48	0.614
729.66	0.602
729.84	0.602
730.03	0.605
730.21	0.608
730.40	0.597
730.58	0.598
730.76	0.600
730.95	0.603
731.13	0.602
731.31	0.616
731.50	0.625
731.68	0.629
731.86	0.626
732.05	0.640
732.23	0.643
732.42	0.646
732.60	0.648
732.78	0.653
732.97	0.673
733.15	0.680
733.33	0.666
733.52	0.674
733.70	0.686
733.88	0.696
734.07	0.681
734.25	0.710
734.43	0.720
734.62	0.722
734.80	0.717
734.98	0.705
735.17	0.713
735.35	0.721
735.53	0.708
735.72	0.711
735.90	0.734
736.08	0.755
736.27	0.728
736.45	0.739
736.63	0.755
736.82	0.765
737.00	0.765
737.18	0.777
737.37	0.811
737.55	0.840
737.73	0.833
737.92	0.838
738.10	0.839
738.28	0.868
738.46	0.854
738.65	0.867
738.83	0.898
739.01	0.963
739.20	0.954
739.38	0.937
739.56	0.928
739.75	0.935
739.93	0.893
740.11	0.920
740.29	0.922
740.48	0.929
740.66	0.902
740.84	0.893
741.03	0.854
741.21	0.866
741.39	0.844
741.57	0.859
741.76	0.879
741.94	0.888
742.12	0.845
742.31	0.848
742.49	0.875
742.67	0.901
742.85	0.916
743.04	0.919
743.22	0.934
743.40	0.996
743.58	0.972
743.77	0.994
743.95	1.043
744.13	1.110
744.31	1.083
744.50	1.079
744.68	1.084
744.86	1.055
745.04	1.061
745.23	1.142
745.41	1.119
745.59	1.123
745.77	1.078
745.96	1.056
746.14	1.068
746.32	1.065
746.50	1.051
746.69	1.032
746.87	1.046
747.05	1.038
747.23	0.946
747.42	0.930
747.60	0.963
747.78	0.966
747.96	1.004
748.14	0.949
748.33	0.986
748.51	0.978
748.69	0.968
748.87	1.007
749.06	1.004
749.24	1.007
749.42	0.989
749.60	0.973
749.78	0.983
749.97	0.928
750.15	0.915
750.33	0.915
750.51	0.946
750.69	0.946
750.88	0.941
751.06	0.949
751.24	0.983
751.42	0.969
751.60	0.952
751.79	1.035
751.97	1.091
752.15	1.099
752.33	1.058
752.51	1.140
752.69	1.173
752.88	1.128
753.06	1.191
753.24	1.150
753.42	1.203
753.60	1.460
753.78	1.235
753.97	1.260
754.15	1.297
754.33	1.330
754.51	1.147
754.69	1.125
754.87	1.169
755.06	1.079
755.24	1.086
755.42	1.095
755.60	0.972
755.78	0.978
755.96	0.911
756.15	0.908
756.33	0.918
756.51	0.939
756.69	0.920
756.87	0.882
757.05	0.901
757.23	0.878
757.42	0.841
757.60	0.841
757.78	0.832
757.96	0.832
758.14	0.811
758.32	0.795
758.50	0.809
758.69	0.806
758.87	0.796
759.05	0.799
759.23	0.811
759.41	0.811
759.59	0.802
759.77	0.828
759.95	0.858
760.13	0.914
760.32	0.911
760.50	0.908
760.68	0.942
760.86	0.944
761.04	0.913
761.22	0.918
761.40	0.976
761.58	0.975
761.76	0.938
761.95	0.919
762.13	0.870
762.31	0.868
762.49	0.831
762.67	0.850
762.85	0.866
763.03	0.861
763.21	0.840
763.39	0.819
763.57	0.823
763.75	0.818
763.94	0.802
764.12	0.801
764.30	0.830
764.48	0.835
764.66	0.792
764.84	0.790
765.02	0.829
765.20	0.838
765.38	0.817
765.56	0.824
765.74	0.869
765.92	0.868
766.10	0.876
766.28	0.865
766.46	0.895
766.65	0.897
766.83	0.881
767.01	0.862
767.19	0.870
767.37	0.867
767.55	0.849
767.73	0.831
767.91	0.837
768.09	0.824
768.27	0.810
768.45	0.804
768.63	0.809
768.81	0.811
768.99	0.785
769.17	0.811
769.35	0.827
769.53	0.828
769.71	0.805
769.89	0.816
770.07	0.824
770.25	0.810
770.43	0.783
770.61	0.810
770.79	0.818
770.97	0.829
771.15	0.793
771.33	0.795
771.51	0.799
771.69	0.810
771.87	0.813
772.05	0.820
772.24	0.829
772.42	0.841
772.60	0.816
772.78	0.886
772.96	0.920
773.14	0.919
773.32	0.896
773.49	0.905
773.67	0.903
773.85	0.879
774.03	0.865
774.21	0.903
774.39	0.916
774.57	0.941
774.75	0.858
774.93	0.853
775.11	0.876
775.29	0.880
775.47	0.879
775.65	0.888
775.83	0.912
776.01	0.938
776.19	0.882
776.37	0.880
776.55	0.882
776.73	0.872
776.91	0.860
777.09	0.844
777.27	0.844
777.45	0.833
777.63	0.808
777.81	0.803
777.99	0.790
778.17	0.791
778.35	0.768
778.53	0.757
778.71	0.761
778.89	0.749
779.07	0.733
779.24	0.739
779.42	0.741
779.60	0.762
779.78	0.758
779.96	0.765
780.14	0.772
780.32	0.798
780.50	0.776
780.68	0.780
780.86	0.773
781.04	0.797
781.22	0.800
781.40	0.811
781.58	0.803
781.75	0.793
781.93	0.771
782.11	0.771
782.29	0.755
782.47	0.756
782.65	0.741
782.83	0.772
783.01	0.765
783.19	0.758
783.37	0.741
783.55	0.743
783.72	0.765
783.90	0.778
784.08	0.767
784.26	0.781
784.44	0.802
784.62	0.804
784.80	0.765
784.98	0.772
785.16	0.778
785.33	0.795
785.51	0.778
785.69	0.761
785.87	0.760
786.05	0.773
786.23	0.766
786.41	0.765
786.59	0.774
786.77	0.774
786.94	0.758
787.12	0.764
787.30	0.764
787.48	0.762
787.66	0.749
787.84	0.748
788.02	0.741
788.19	0.740
788.37	0.723
788.55	0.727
788.73	0.728
788.91	0.720
789.09	0.698
789.27	0.688
789.44	0.701
789.62	0.708
789.80	0.717
789.98	0.742
790.16	0.725
790.34	0.721
790.51	0.704
790.69	0.726
790.87	0.735
791.05	0.734
791.23	0.725
791.41	0.726
791.58	0.734
791.76	0.710
791.94	0.677
792.12	0.686
792.30	0.689
792.48	0.687
792.65	0.679
792.83	0.685
793.01	0.694
793.19	0.692
793.37	0.673
793.54	0.670
793.72	0.683
793.90	0.683
794.08	0.673
794.26	0.676
794.43	0.686
794.61	0.670
794.79	0.658
794.97	0.657
795.15	0.662
795.32	0.668
795.50	0.657
795.68	0.652
795.86	0.657
796.04	0.657
796.21	0.648
796.39	0.647
796.57	0.662
796.75	0.671
796.92	0.670
797.10	0.679
797.28	0.681
797.46	0.683
797.64	0.683
797.81	0.691
797.99	0.698
798.17	0.703
798.35	0.695
798.52	0.698
798.70	0.691
798.88	0.700
799.06	0.695
799.23	0.699
799.41	0.709
799.59	0.703
799.77	0.689
799.94	0.698
800.12	0.708
800.30	0.728
800.48	0.727
800.65	0.729
800.83	0.719
801.01	0.710
801.19	0.709
801.36	0.704
801.54	0.710
801.72	0.721
801.90	0.705
802.07	0.700
802.25	0.686
802.43	0.668
802.60	0.664
802.78	0.672
802.96	0.676
803.14	0.669
803.31	0.666
803.49	0.665
803.67	0.660
803.84	0.663
804.02	0.654
804.20	0.658
804.38	0.664
804.55	0.665
804.73	0.648
804.91	0.650
805.08	0.664
805.26	0.660
805.44	0.730
805.61	0.734
805.79	0.734
805.97	0.735
806.15	0.723
806.32	0.717
806.50	0.721
806.68	0.722
806.85	0.714
807.03	0.705
807.21	0.724
807.38	0.651
807.56	0.640
807.74	0.650
807.91	0.658
808.09	0.661
808.27	0.682
808.44	0.710
808.62	0.722
808.80	0.723
808.97	0.717
809.15	0.713
809.33	0.731
809.50	0.738
809.68	0.722
809.86	0.731
810.03	0.767
810.21	0.743
810.39	0.720
810.56	0.725
810.74	0.752
810.91	0.832
811.09	0.818
811.27	0.841
811.44	0.849
811.62	0.855
811.80	0.835
811.97	0.799
812.15	0.798
812.33	0.795
812.50	0.782
812.68	0.771
812.85	0.711
813.03	0.711
813.21	0.675
813.38	0.668
813.56	0.670
813.74	0.679
813.91	0.687
814.09	0.722
814.26	0.717
814.44	0.718
814.62	0.704
814.79	0.706
814.97	0.712
815.14	0.717
815.32	0.720
815.50	0.740
815.67	0.744
815.85	0.736
816.02	0.724
816.20	0.731
816.38	0.749
816.55	0.756
816.73	0.755
816.90	0.768
817.08	0.806
817.26	0.815
817.43	0.791
817.61	0.821
817.78	0.843
817.96	0.818
818.13	0.803
818.31	0.804
818.49	0.820
818.66	0.809
818.84	0.795
819.01	0.769
819.19	0.777
819.36	0.779
819.54	0.747
819.71	0.795
819.89	0.811
820.07	0.830
820.24	0.823
820.42	0.826
820.59	0.850
820.77	0.875
820.94	0.862
821.12	0.885
821.29	0.901
821.47	0.898
821.64	0.826
821.82	0.842
822.00	0.840
822.17	0.836
822.35	0.824
822.52	0.828
822.70	0.820
822.87	0.831
823.05	0.806
823.22	0.822
823.40	0.856
823.57	0.881
823.75	0.858
823.92	0.889
824.10	0.908
824.27	0.961
824.45	0.945
824.62	1.020
824.80	1.047
824.97	1.064
825.15	1.052
825.32	1.075
825.50	1.081
825.67	1.103
825.85	1.070
826.02	1.112
826.20	1.146
826.37	1.346
826.55	1.223
826.72	1.625
826.90	1.903
827.07	2.217
827.25	1.873
827.42	-0.000
827.60	-0.000
827.77	-0.000
827.95	-0.000
828.12	-0.000
828.30	-0.000
828.47	-0.000
828.65	2.010
828.82	2.939
829.00	-0.000
829.17	-0.000
829.34	-0.000
829.52	-0.000
829.69	-0.000
829.87	-0.000
830.04	-0.000
830.22	-0.000
830.39	-0.000
830.57	-0.000
830.74	-0.000
830.92	-0.000
831.09	-0.000
831.26	-0.000
831.44	-0.000
831.61	-0.000
831.79	-0.000
831.96	-0.000
832.14	-0.000
832.31	-0.000
832.49	-0.000
832.66	-0.000
832.83	-0.000
833.01	-0.000
833.18	-0.000
833.36	-0.000
833.53	-0.000
833.70	-0.000
833.88	-0.000
834.05	-0.000
834.23	-0.000
834.40	-0.000
834.58	-0.000
834.75	-0.000
834.92	-0.000
835.10	-0.000
835.27	-0.000
835.45	-0.000
835.62	-0.000
835.79	-0.000
835.97	-0.000
836.14	-0.000
836.32	-0.000
836.49	-0.000
836.66	-0.000
836.84	-0.000
837.01	-0.000
837.18	-0.000
837.36	-0.000
837.53	-0.000
837.71	-0.000
837.88	-0.000
838.05	-0.000
838.23	-0.000
838.40	-0.000
838.58	-0.000
838.75	-0.000
838.92	-0.000
839.10	-0.000
839.27	-0.000
839.44	-0.000
839.62	-0.000
839.79	-0.000
839.96	-0.000
840.14	-0.000
840.31	-0.000
840.48	-0.000
840.66	-0.000
840.83	-0.000
841.01	-0.000
841.18	-0.000
841.35	-0.000
841.53	-0.000
841.70	-0.000
841.87	-0.000
842.05	-0.000
842.22	-0.000
842.39	-0.000
842.57	-0.000
842.74	-0.000
842.91	-0.000
843.09	-0.000
843.26	-0.000
843.43	-0.000
843.60	-0.000
843.78	-0.000
843.95	-0.000
844.12	-0.000
844.30	-0.000
844.47	-0.000
844.64	-0.000
844.82	-0.000
844.99	-0.000
845.16	-0.000
845.34	-0.000
845.51	-0.000
845.68	-0.000
845.85	-0.000
846.03	-0.000
846.20	-0.000
846.37	-0.000
846.55	-0.000
846.72	-0.000
846.89	-0.000
847.06	-0.000
847.24	-0.000
847.41	-0.000
847.58	-0.000
847.76	-0.000
847.93	-0.000
848.10	-0.000
848.27	-0.000
848.45	-0.000
848.62	-0.000
848.79	-0.000
848.97	-0.000
849.14	-0.000
849.31	-0.000
849.48	-0.000
849.66	-0.000
849.83	-0.000
850.00	-0.000
850.17	-0.000
850.35	-0.000
850.52	-0.000
850.69	-0.000
850.86	-0.000
851.04	-0.000
851.21	-0.000
851.38	-0.000
851.55	-0.000
851.72	-0.000
851.90	-0.000
852.07	-0.000
852.24	-0.000
852.41	-0.000
852.59	-0.000
852.76	-0.000
852.93	-0.000
853.10	-0.000
853.28	-0.000
853.45	-0.000
853.62	-0.000
853.79	-0.000
853.96	-0.000
854.14	-0.000
854.31	-0.000
854.48	-0.000
854.65	-0.000
854.82	-0.000
855.00	-0.000
855.17	-0.000
855.34	-0.000
855.51	-0.000
855.68	-0.000
855.86	-0.000
856.03	-0.000
856.20	-0.000
856.37	-0.000
856.54	-0.000
856.72	-0.000
856.89	-0.000
857.06	-0.000
857.23	-0.000
857.40	-0.000
857.57	-0.000
857.75	-0.000
857.92	-0.000
858.09	-0.000
858.26	-0.000
858.43	-0.000
858.60	-0.000
858.78	-0.000
858.95	-0.000
859.12	-0.000
859.29	-0.000
859.46	-0.000
859.63	-0.000
859.81	-0.000
859.98	-0.000
860.15	-0.000
860.32	-0.000
860.49	-0.000
860.66	-0.000
860.83	-0.000
861.01	-0.000
861.18	-0.000
861.35	-0.000
861.52	-0.000
861.69	-0.000
861.86	-0.000
862.03	-0.000
862.21	-0.000
862.38	-0.000
862.55	-0.000
862.72	-0.000
862.89	-0.000
863.06	-0.000
863.23	-0.000
863.40	-0.000
863.58	-0.000
863.75	-0.000
863.92	-0.000
864.09	-0.000
864.26	-0.000
864.43	-0.000
864.60	-0.000
864.77	-0.000
864.94	-0.000
865.11	-0.000
865.29	-0.000
865.46	-0.000
865.63	-0.000
865.80	-0.000
865.97	-0.000
866.14	-0.000
866.31	-0.000
866.48	-0.000
866.65	-0.000
866.82	-0.000
866.99	-0.000
867.16	-0.000
867.34	-0.000
867.51	-0.000
867.68	-0.000
867.85	-0.000
868.02	-0.000
868.19	-0.000
868.36	-0.000
868.53	-0.000
868.70	-0.000
868.87	-0.000
869.04	-0.000
869.21	-0.000
869.38	-0.000
869.55	-0.000
869.72	-0.000
869.89	-0.000
870.06	-0.000
870.24	-0.000
870.41	-0.000
870.58	-0.000
870.75	-0.000
870.92	-0.000
871.09	-0.000
871.26	-0.000
871.43	-0.000
871.60	-0.000
871.77	-0.000
871.94	-0.000
872.11	-0.000
872.28	-0.000
872.45	-0.000
872.62	-0.000
872.79	-0.000
872.96	-0.000
873.13	-0.000
873.30	-0.000
873.47	-0.000
873.64	-0.000
873.81	-0.000
873.98	-0.000
874.15	-0.000
874.32	-0.000
874.49	-0.000
874.66	-0.000
874.83	-0.000
875.00	-0.000
875.17	-0.000
875.34	-0.000
875.51	-0.000
875.68	-0.000
875.85	-0.000
876.02	-0.000
876.19	-0.000
876.36	-0.000
876.53	-0.000
876.70	-0.000
876.87	-0.000
877.04	-0.000
877.21	-0.000
877.38	-0.000
877.55	-0.000
877.72	-0.000
877.89	-0.000
878.06	-0.000
878.23	-0.000
878.39	-0.000
878.56	-0.000
878.73	-0.000
878.90	-0.000
879.07	-0.000
879.24	-0.000
879.41	-0.000
879.58	-0.000
879.75	-0.000
879.92	-0.000
880.09	-0.000
880.26	-0.000
880.43	-0.000
880.60	-0.000
880.77	-0.000
880.94	-0.000
881.11	-0.000
881.27	-0.000
881.44	-0.000
881.61	-0.000
881.78	-0.000
881.95	-0.000
882.12	-0.000
882.29	-0.000
882.46	-0.000
882.63	-0.000
882.80	-0.000
882.97	-0.000
883.14	-0.000
883.30	-0.000
883.47	-0.000
883.64	-0.000
883.81	-0.000
883.98	-0.000
884.15	-0.000
884.32	-0.000
884.49	-0.000
884.66	-0.000
884.82	-0.000
884.99	-0.000
885.16	-0.000
885.33	-0.000
885.50	-0.000
885.67	-0.000
885.84	-0.000
886.01	-0.000
886.17	-0.000
886.34	-0.000
886.51	-0.000
886.68	-0.000
886.85	-0.000
887.02	-0.000
887.19	-0.000
887.36	-0.000
887.52	-0.000
887.69	-0.000
887.86	-0.000
888.03	-0.000
888.20	-0.000
888.37	-0.000
888.54	-0.000
888.70	-0.000
888.87	-0.000
889.04	-0.000
889.21	-0.000
889.38	-0.000
889.55	-0.000
889.71	-0.000
889.88	-0.000
890.05	-0.000
890.22	-0.000
890.39	-0.000
>>>>>End Processed Spectral Data<<<<<
