SpectraSuite Data File
++++++++++++++++++++++++++++++++++++
Date: Fri Jun 19 12:56:03 CEST 2015
User: introlabs
Dark Spectrum Present: Yes
Reference Spectrum Present: Yes
Number of Sampled Component Spectra: 1
Spectrometers: USB4H08886
Integration Time (usec): 745692 (USB4H08886)
Spectra Averaged: 5 (USB4H08886)
Boxcar Smoothing: 5 (USB4H08886)
Correct for Electrical Dark: Yes (USB4H08886)
Strobe/Lamp Enabled: No (USB4H08886)
Correct for Detector Non-linearity: Yes (USB4H08886)
Correct for Stray Light: Yes (USB4H08886)
Number of Pixels in Processed Spectrum: 3648
>>>>>Begin Processed Spectral Data<<<<<
178.14	-0.000
178.36	-0.000
178.57	-0.000
178.79	-0.000
179.01	-0.000
179.22	-0.000
179.44	-0.000
179.65	-0.000
179.87	-0.000
180.08	-0.000
180.30	-0.000
180.52	-0.000
180.73	-0.000
180.95	-0.000
181.16	-0.000
181.38	-0.000
181.59	-0.000
181.81	-0.000
182.03	-0.000
182.24	-0.000
182.46	-0.000
182.67	-0.000
182.89	-0.000
183.10	-0.000
183.32	-0.000
183.54	-0.000
183.75	-0.000
183.97	-0.000
184.18	-0.000
184.40	-0.000
184.61	-0.000
184.83	-0.000
185.04	-0.000
185.26	-0.000
185.48	-0.000
185.69	-0.000
185.91	-0.000
186.12	-0.000
186.34	-0.000
186.55	-0.000
186.77	-0.000
186.98	-0.000
187.20	-0.000
187.42	-0.000
187.63	-0.000
187.85	-0.000
188.06	-0.000
188.28	-0.000
188.49	-0.000
188.71	-0.000
188.92	-0.000
189.14	-0.000
189.36	-0.000
189.57	-0.000
189.79	-0.000
190.00	-0.000
190.22	-0.000
190.43	-0.000
190.65	-0.000
190.86	-0.000
191.08	-0.000
191.29	-0.000
191.51	-0.000
191.72	-0.000
191.94	-0.000
192.16	-0.000
192.37	-0.000
192.59	-0.000
192.80	-0.000
193.02	-0.000
193.23	-0.000
193.45	-0.000
193.66	-0.000
193.88	-0.000
194.09	-0.000
194.31	-0.000
194.52	-0.000
194.74	-0.000
194.95	-0.000
195.17	-0.000
195.38	-0.000
195.60	-0.000
195.81	-0.000
196.03	-0.000
196.25	-0.000
196.46	-0.000
196.68	-0.000
196.89	-0.000
197.11	-0.000
197.32	-0.000
197.54	-0.000
197.75	-0.000
197.97	-0.000
198.18	-0.000
198.40	-0.000
198.61	-0.000
198.83	-0.000
199.04	-0.000
199.26	-0.000
199.47	-0.000
199.69	-0.000
199.90	-0.000
200.12	-0.000
200.33	-0.000
200.55	-0.000
200.76	-0.000
200.98	-0.000
201.19	-0.000
201.41	-0.000
201.62	-0.000
201.84	-0.000
202.05	-0.000
202.27	-0.000
202.48	-0.000
202.70	-0.000
202.91	-0.000
203.13	-0.000
203.34	-0.000
203.56	-0.000
203.77	-0.000
203.99	-0.000
204.20	-0.000
204.42	-0.000
204.63	-0.000
204.85	-0.000
205.06	-0.000
205.28	-0.000
205.49	-0.000
205.71	-0.000
205.92	-0.000
206.14	-0.000
206.35	-0.000
206.56	-0.000
206.78	-0.000
206.99	-0.000
207.21	-0.000
207.42	-0.000
207.64	-0.000
207.85	-0.000
208.07	-0.000
208.28	-0.000
208.50	-0.000
208.71	-0.000
208.93	-0.000
209.14	-0.000
209.36	-0.000
209.57	-0.000
209.79	-0.000
210.00	-0.000
210.22	-0.000
210.43	-0.000
210.64	-0.000
210.86	-0.000
211.07	-0.000
211.29	-0.000
211.50	-0.000
211.72	-0.000
211.93	-0.000
212.15	-0.000
212.36	-0.000
212.58	-0.000
212.79	-0.000
213.01	-0.000
213.22	-0.000
213.43	-0.000
213.65	-0.000
213.86	-0.000
214.08	-0.000
214.29	-0.000
214.51	-0.000
214.72	-0.000
214.94	-0.000
215.15	-0.000
215.36	-0.000
215.58	-0.000
215.79	-0.000
216.01	-0.000
216.22	-0.000
216.44	-0.000
216.65	-0.000
216.87	-0.000
217.08	-0.000
217.29	-0.000
217.51	-0.000
217.72	-0.000
217.94	-0.000
218.15	-0.000
218.37	-0.000
218.58	-0.000
218.80	-0.000
219.01	-0.000
219.22	-0.000
219.44	-0.000
219.65	-0.000
219.87	-0.000
220.08	-0.000
220.30	-0.000
220.51	-0.000
220.72	-0.000
220.94	-0.000
221.15	-0.000
221.37	-0.000
221.58	-0.000
221.79	-0.000
222.01	-0.000
222.22	-0.000
222.44	-0.000
222.65	-0.000
222.87	-0.000
223.08	-0.000
223.29	-0.000
223.51	-0.000
223.72	-0.000
223.94	-0.000
224.15	-0.000
224.36	-0.000
224.58	-0.000
224.79	-0.000
225.01	-0.000
225.22	-0.000
225.44	-0.000
225.65	-0.000
225.86	-0.000
226.08	-0.000
226.29	-0.000
226.51	-0.000
226.72	-0.000
226.93	-0.000
227.15	-0.000
227.36	-0.000
227.58	-0.000
227.79	-0.000
228.00	-0.000
228.22	-0.000
228.43	-0.000
228.65	-0.000
228.86	-0.000
229.07	-0.000
229.29	-0.000
229.50	-0.000
229.72	-0.000
229.93	-0.000
230.14	-0.000
230.36	-0.000
230.57	-0.000
230.78	-0.000
231.00	-0.000
231.21	-0.000
231.43	-0.000
231.64	-0.000
231.85	-0.000
232.07	-0.000
232.28	-0.000
232.50	-0.000
232.71	-0.000
232.92	-0.000
233.14	-0.000
233.35	-0.000
233.56	-0.000
233.78	-0.000
233.99	-0.000
234.21	-0.000
234.42	-0.000
234.63	-0.000
234.85	-0.000
235.06	-0.000
235.27	-0.000
235.49	-0.000
235.70	-0.000
235.91	-0.000
236.13	-0.000
236.34	-0.000
236.56	-0.000
236.77	-0.000
236.98	-0.000
237.20	-0.000
237.41	-0.000
237.62	-0.000
237.84	-0.000
238.05	-0.000
238.26	-0.000
238.48	-0.000
238.69	-0.000
238.91	-0.000
239.12	-0.000
239.33	-0.000
239.55	-0.000
239.76	-0.000
239.97	-0.000
240.19	-0.000
240.40	-0.000
240.61	-0.000
240.83	-0.000
241.04	-0.000
241.25	-0.000
241.47	-0.000
241.68	-0.000
241.89	-0.000
242.11	-0.000
242.32	-0.000
242.53	-0.000
242.75	-0.000
242.96	-0.000
243.17	-0.000
243.39	-0.000
243.60	-0.000
243.81	-0.000
244.03	-0.000
244.24	-0.000
244.45	-0.000
244.67	-0.000
244.88	-0.000
245.09	-0.000
245.31	-0.000
245.52	-0.000
245.73	-0.000
245.95	-0.000
246.16	-0.000
246.37	-0.000
246.59	-0.000
246.80	-0.000
247.01	-0.000
247.23	-0.000
247.44	-0.000
247.65	-0.000
247.87	-0.000
248.08	-0.000
248.29	-0.000
248.51	-0.000
248.72	-0.000
248.93	-0.000
249.15	-0.000
249.36	-0.000
249.57	-0.000
249.78	-0.000
250.00	-0.000
250.21	-0.000
250.42	-0.000
250.64	-0.000
250.85	-0.000
251.06	-0.000
251.28	-0.000
251.49	-0.000
251.70	-0.000
251.92	-0.000
252.13	-0.000
252.34	-0.000
252.55	-0.000
252.77	-0.000
252.98	-0.000
253.19	-0.000
253.41	-0.000
253.62	-0.000
253.83	-0.000
254.05	-0.000
254.26	-0.000
254.47	-0.000
254.68	-0.000
254.90	-0.000
255.11	-0.000
255.32	-0.000
255.54	-0.000
255.75	-0.000
255.96	-0.000
256.17	-0.000
256.39	-0.000
256.60	-0.000
256.81	-0.000
257.03	-0.000
257.24	-0.000
257.45	-0.000
257.66	-0.000
257.88	-0.000
258.09	-0.000
258.30	-0.000
258.51	-0.000
258.73	-0.000
258.94	-0.000
259.15	-0.000
259.37	-0.000
259.58	-0.000
259.79	-0.000
260.00	-0.000
260.22	-0.000
260.43	-0.000
260.64	-0.000
260.85	-0.000
261.07	-0.000
261.28	-0.000
261.49	-0.000
261.71	-0.000
261.92	-0.000
262.13	-0.000
262.34	-0.000
262.56	-0.000
262.77	-0.000
262.98	-0.000
263.19	-0.000
263.41	-0.000
263.62	-0.000
263.83	-0.000
264.04	-0.000
264.26	-0.000
264.47	-0.000
264.68	-0.000
264.89	-0.000
265.11	-0.000
265.32	-0.000
265.53	-0.000
265.74	-0.000
265.96	-0.000
266.17	-0.000
266.38	-0.000
266.59	-0.000
266.81	-0.000
267.02	-0.000
267.23	-0.000
267.44	-0.000
267.65	-0.000
267.87	-0.000
268.08	-0.000
268.29	-0.000
268.50	-0.000
268.72	-0.000
268.93	-0.000
269.14	-0.000
269.35	-0.000
269.57	-0.000
269.78	-0.000
269.99	-0.000
270.20	-0.000
270.41	-0.000
270.63	-0.000
270.84	-0.000
271.05	-0.000
271.26	-0.000
271.48	-0.000
271.69	-0.000
271.90	-0.000
272.11	-0.000
272.32	-0.000
272.54	-0.000
272.75	-0.000
272.96	-0.000
273.17	-0.000
273.39	-0.000
273.60	-0.000
273.81	-0.000
274.02	-0.000
274.23	-0.000
274.45	-0.000
274.66	-0.000
274.87	-0.000
275.08	-0.000
275.29	-0.000
275.51	-0.000
275.72	-0.000
275.93	-0.000
276.14	-0.000
276.35	-0.000
276.57	-0.000
276.78	-0.000
276.99	-0.000
277.20	-0.000
277.41	-0.000
277.63	-0.000
277.84	-0.000
278.05	-0.000
278.26	-0.000
278.47	-0.000
278.69	-0.000
278.90	-0.000
279.11	-0.000
279.32	-0.000
279.53	-0.000
279.74	-0.000
279.96	-0.000
280.17	-0.000
280.38	-0.000
280.59	-0.000
280.80	-0.000
281.02	-0.000
281.23	-0.000
281.44	-0.000
281.65	-0.000
281.86	-0.000
282.07	-0.000
282.29	-0.000
282.50	-0.000
282.71	-0.000
282.92	-0.000
283.13	-0.000
283.35	-0.000
283.56	-0.000
283.77	-0.000
283.98	-0.000
284.19	-0.000
284.40	-0.000
284.62	-0.000
284.83	-0.000
285.04	-0.000
285.25	-0.000
285.46	-0.000
285.67	-0.000
285.88	-0.000
286.10	-0.000
286.31	-0.000
286.52	-0.000
286.73	-0.000
286.94	-0.000
287.15	-0.000
287.37	-0.000
287.58	-0.000
287.79	-0.000
288.00	-0.000
288.21	-0.000
288.42	-0.000
288.63	-0.000
288.85	-0.000
289.06	-0.000
289.27	-0.000
289.48	-0.000
289.69	-0.000
289.90	-0.000
290.11	-0.000
290.33	-0.000
290.54	-0.000
290.75	-0.000
290.96	-0.000
291.17	-0.000
291.38	-0.000
291.59	-0.000
291.81	-0.000
292.02	-0.000
292.23	-0.000
292.44	-0.000
292.65	-0.000
292.86	-0.000
293.07	-0.000
293.28	-0.000
293.50	-0.000
293.71	-0.000
293.92	-0.000
294.13	-0.000
294.34	-0.000
294.55	-0.000
294.76	-0.000
294.97	-0.000
295.19	-0.000
295.40	-0.000
295.61	-0.000
295.82	-0.000
296.03	-0.000
296.24	-0.000
296.45	-0.000
296.66	2.804
296.87	3.216
297.09	-0.000
297.30	-0.000
297.51	2.340
297.72	2.169
297.93	2.694
298.14	2.417
298.35	2.211
298.56	2.144
298.77	3.094
298.99	2.690
299.20	2.362
299.41	2.240
299.62	2.116
299.83	2.099
300.04	1.895
300.25	1.858
300.46	1.973
300.67	1.895
300.88	1.767
301.10	1.768
301.31	1.929
301.52	1.806
301.73	1.701
301.94	1.705
302.15	1.732
302.36	1.660
302.57	1.557
302.78	1.564
302.99	1.622
303.20	1.643
303.41	1.503
303.63	1.477
303.84	1.496
304.05	1.488
304.26	1.405
304.47	1.411
304.68	1.420
304.89	1.402
305.10	1.344
305.31	1.338
305.52	1.392
305.73	1.383
305.94	1.331
306.15	1.320
306.37	1.345
306.58	1.358
306.79	1.317
307.00	1.342
307.21	1.396
307.42	1.385
307.63	1.335
307.84	1.293
308.05	1.337
308.26	1.335
308.47	1.301
308.68	1.299
308.89	1.300
309.10	1.298
309.31	1.248
309.52	1.240
309.73	1.260
309.95	1.251
310.16	1.218
310.37	1.206
310.58	1.228
310.79	1.224
311.00	1.216
311.21	1.219
311.42	1.223
311.63	1.216
311.84	1.191
312.05	1.188
312.26	1.216
312.47	1.230
312.68	1.202
312.89	1.185
313.10	1.195
313.31	1.165
313.52	1.162
313.73	1.163
313.94	1.169
314.15	1.149
314.36	1.126
314.57	1.116
314.78	1.105
314.99	1.099
315.21	1.082
315.42	1.088
315.63	1.104
315.84	1.080
316.05	1.061
316.26	1.070
316.47	1.090
316.68	1.085
316.89	1.063
317.10	1.083
317.31	1.089
317.52	1.089
317.73	1.066
317.94	1.066
318.15	1.113
318.36	1.112
318.57	1.092
318.78	1.080
318.99	1.119
319.20	1.116
319.41	1.078
319.62	1.079
319.83	1.094
320.04	1.090
320.25	1.071
320.46	1.036
320.67	1.041
320.88	1.036
321.09	1.020
321.30	1.004
321.51	1.020
321.72	1.018
321.93	1.000
322.14	0.992
322.35	1.020
322.56	1.023
322.77	1.009
322.98	1.020
323.19	1.030
323.40	1.036
323.61	1.013
323.82	1.008
324.03	1.015
324.24	1.012
324.45	0.998
324.66	0.978
324.87	0.975
325.08	0.975
325.29	0.953
325.50	0.946
325.71	0.951
325.92	0.960
326.13	0.945
326.34	0.945
326.55	0.954
326.76	0.954
326.97	0.943
327.18	0.938
327.39	0.964
327.60	0.965
327.80	0.963
328.01	0.960
328.22	0.962
328.43	0.967
328.64	0.955
328.85	0.959
329.06	0.960
329.27	0.958
329.48	0.951
329.69	0.933
329.90	0.944
330.11	0.938
330.32	0.930
330.53	0.922
330.74	0.922
330.95	0.920
331.16	0.904
331.37	0.912
331.58	0.914
331.79	0.913
332.00	0.903
332.21	0.896
332.42	0.901
332.63	0.893
332.83	0.887
333.04	0.889
333.25	0.903
333.46	0.901
333.67	0.886
333.88	0.889
334.09	0.899
334.30	0.896
334.51	0.887
334.72	0.882
334.93	0.886
335.14	0.885
335.35	0.876
335.56	0.871
335.77	0.881
335.98	0.880
336.18	0.872
336.39	0.865
336.60	0.870
336.81	0.868
337.02	0.866
337.23	0.870
337.44	0.875
337.65	0.878
337.86	0.866
338.07	0.860
338.28	0.866
338.49	0.863
338.70	0.854
338.91	0.861
339.11	0.869
339.32	0.865
339.53	0.852
339.74	0.848
339.95	0.845
340.16	0.844
340.37	0.835
340.58	0.834
340.79	0.839
341.00	0.839
341.21	0.827
341.41	0.827
341.62	0.830
341.83	0.829
342.04	0.823
342.25	0.833
342.46	0.840
342.67	0.838
342.88	0.830
343.09	0.829
343.30	0.837
343.50	0.840
343.71	0.830
343.92	0.830
344.13	0.835
344.34	0.836
344.55	0.819
344.76	0.816
344.97	0.822
345.18	0.821
345.38	0.817
345.59	0.812
345.80	0.811
346.01	0.809
346.22	0.804
346.43	0.798
346.64	0.807
346.85	0.807
347.06	0.800
347.26	0.801
347.47	0.805
347.68	0.801
347.89	0.797
348.10	0.793
348.31	0.800
348.52	0.800
348.73	0.796
348.93	0.793
349.14	0.796
349.35	0.794
349.56	0.787
349.77	0.783
349.98	0.790
350.19	0.788
350.39	0.782
350.60	0.777
350.81	0.793
351.02	0.794
351.23	0.789
351.44	0.792
351.65	0.797
351.86	0.794
352.06	0.791
352.27	0.791
352.48	0.791
352.69	0.791
352.90	0.786
353.11	0.772
353.31	0.780
353.52	0.776
353.73	0.766
353.94	0.767
354.15	0.774
354.36	0.775
354.57	0.765
354.77	0.768
354.98	0.768
355.19	0.767
355.40	0.765
355.61	0.770
355.82	0.776
356.02	0.775
356.23	0.767
356.44	0.768
356.65	0.773
356.86	0.773
357.07	0.767
357.27	0.771
357.48	0.774
357.69	0.770
357.90	0.755
358.11	0.752
358.32	0.758
358.52	0.762
358.73	0.751
358.94	0.754
359.15	0.759
359.36	0.759
359.56	0.753
359.77	0.750
359.98	0.758
360.19	0.757
360.40	0.752
360.61	0.752
360.81	0.751
361.02	0.751
361.23	0.742
361.44	0.741
361.65	0.742
361.85	0.742
362.06	0.740
362.27	0.742
362.48	0.742
362.69	0.745
362.89	0.738
363.10	0.741
363.31	0.746
363.52	0.749
363.73	0.743
363.93	0.744
364.14	0.747
364.35	0.748
364.56	0.737
364.77	0.739
364.97	0.742
365.18	0.742
365.39	0.736
365.60	0.732
365.81	0.733
366.01	0.733
366.22	0.729
366.43	0.728
366.64	0.730
366.84	0.736
367.05	0.732
367.26	0.732
367.47	0.735
367.68	0.735
367.88	0.731
368.09	0.730
368.30	0.733
368.51	0.733
368.71	0.731
368.92	0.736
369.13	0.734
369.34	0.734
369.55	0.733
369.75	0.733
369.96	0.741
370.17	0.741
370.38	0.737
370.58	0.738
370.79	0.744
371.00	0.742
371.21	0.733
371.41	0.740
371.62	0.743
371.83	0.738
372.04	0.735
372.24	0.728
372.45	0.730
372.66	0.729
372.87	0.725
373.07	0.722
373.28	0.723
373.49	0.727
373.70	0.717
373.90	0.716
374.11	0.726
374.32	0.725
374.53	0.724
374.73	0.724
374.94	0.727
375.15	0.727
375.36	0.724
375.56	0.732
375.77	0.732
375.98	0.733
376.19	0.729
376.39	0.722
376.60	0.727
376.81	0.727
377.02	0.724
377.22	0.723
377.43	0.723
377.64	0.722
377.84	0.713
378.05	0.717
378.26	0.723
378.47	0.722
378.67	0.718
378.88	0.715
379.09	0.715
379.30	0.716
379.50	0.713
379.71	0.715
379.92	0.719
380.12	0.718
380.33	0.710
380.54	0.706
380.75	0.713
380.95	0.712
381.16	0.710
381.37	0.710
381.57	0.712
381.78	0.712
381.99	0.712
382.20	0.711
382.40	0.715
382.61	0.715
382.82	0.712
383.02	0.705
383.23	0.709
383.44	0.709
383.64	0.708
383.85	0.710
384.06	0.714
384.27	0.711
384.47	0.708
384.68	0.708
384.89	0.714
385.09	0.714
385.30	0.713
385.51	0.712
385.71	0.716
385.92	0.716
386.13	0.713
386.33	0.715
386.54	0.717
386.75	0.715
386.95	0.711
387.16	0.706
387.37	0.709
387.58	0.709
387.78	0.706
387.99	0.704
388.20	0.706
388.40	0.702
388.61	0.698
388.82	0.700
389.02	0.703
389.23	0.704
389.44	0.702
389.64	0.702
389.85	0.713
390.06	0.712
390.26	0.711
390.47	0.710
390.68	0.713
390.88	0.711
391.09	0.707
391.30	0.706
391.50	0.705
391.71	0.705
391.92	0.702
392.12	0.695
392.33	0.696
392.53	0.696
392.74	0.696
392.95	0.695
393.15	0.698
393.36	0.699
393.57	0.697
393.77	0.700
393.98	0.702
394.19	0.701
394.39	0.699
394.60	0.701
394.81	0.703
395.01	0.700
395.22	0.698
395.43	0.699
395.63	0.704
395.84	0.705
396.04	0.700
396.25	0.702
396.46	0.704
396.66	0.703
396.87	0.699
397.08	0.697
397.28	0.699
397.49	0.700
397.69	0.695
397.90	0.690
398.11	0.692
398.31	0.692
398.52	0.688
398.73	0.689
398.93	0.688
399.14	0.687
399.34	0.686
399.55	0.686
399.76	0.687
399.96	0.687
400.17	0.685
400.37	0.684
400.58	0.691
400.79	0.692
400.99	0.690
401.20	0.695
401.41	0.698
401.61	0.699
401.82	0.703
402.02	0.703
402.23	0.704
402.44	0.703
402.64	0.703
402.85	0.697
403.05	0.696
403.26	0.695
403.47	0.688
403.67	0.687
403.88	0.688
404.08	0.681
404.29	0.679
404.50	0.679
404.70	0.680
404.91	0.678
405.11	0.675
405.32	0.676
405.52	0.677
405.73	0.676
405.94	0.674
406.14	0.676
406.35	0.678
406.55	0.678
406.76	0.676
406.97	0.676
407.17	0.679
407.38	0.679
407.58	0.678
407.79	0.681
407.99	0.683
408.20	0.685
408.41	0.680
408.61	0.678
408.82	0.680
409.02	0.680
409.23	0.678
409.43	0.677
409.64	0.678
409.84	0.677
410.05	0.673
410.26	0.672
410.46	0.671
410.67	0.671
410.87	0.672
411.08	0.673
411.28	0.675
411.49	0.676
411.69	0.673
411.90	0.675
412.11	0.677
412.31	0.678
412.52	0.675
412.72	0.677
412.93	0.678
413.13	0.677
413.34	0.673
413.54	0.674
413.75	0.676
413.95	0.675
414.16	0.672
414.37	0.675
414.57	0.675
414.78	0.678
414.98	0.676
415.19	0.677
415.39	0.675
415.60	0.676
415.80	0.675
416.01	0.674
416.21	0.676
416.42	0.675
416.62	0.670
416.83	0.670
417.03	0.670
417.24	0.669
417.44	0.667
417.65	0.667
417.86	0.667
418.06	0.666
418.27	0.663
418.47	0.664
418.68	0.666
418.88	0.666
419.09	0.664
419.29	0.665
419.50	0.666
419.70	0.666
419.91	0.664
420.11	0.663
420.32	0.666
420.52	0.666
420.73	0.665
420.93	0.665
421.14	0.667
421.34	0.666
421.55	0.662
421.75	0.663
421.96	0.665
422.16	0.665
422.37	0.664
422.57	0.661
422.78	0.663
422.98	0.660
423.19	0.657
423.39	0.655
423.60	0.659
423.80	0.660
424.01	0.658
424.21	0.660
424.42	0.662
424.62	0.662
424.83	0.661
425.03	0.660
425.23	0.663
425.44	0.663
425.64	0.663
425.85	0.662
426.05	0.663
426.26	0.664
426.46	0.660
426.67	0.659
426.87	0.664
427.08	0.664
427.28	0.662
427.49	0.663
427.69	0.664
427.90	0.664
428.10	0.661
428.31	0.661
428.51	0.663
428.71	0.662
428.92	0.663
429.12	0.660
429.33	0.661
429.53	0.666
429.74	0.669
429.94	0.670
430.15	0.671
430.35	0.671
430.56	0.668
430.76	0.667
430.96	0.668
431.17	0.666
431.37	0.662
431.58	0.661
431.78	0.658
431.99	0.651
432.19	0.652
432.40	0.653
432.60	0.654
432.80	0.657
433.01	0.655
433.21	0.655
433.42	0.657
433.62	0.658
433.83	0.658
434.03	0.661
434.23	0.665
434.44	0.664
434.64	0.661
434.85	0.666
435.05	0.667
435.26	0.668
435.46	0.666
435.66	0.666
435.87	0.666
436.07	0.666
436.28	0.661
436.48	0.658
436.69	0.658
436.89	0.658
437.09	0.652
437.30	0.651
437.50	0.652
437.71	0.664
437.91	0.662
438.11	0.664
438.32	0.669
438.52	0.670
438.73	0.669
438.93	0.667
439.13	0.667
439.34	0.671
439.54	0.668
439.75	0.668
439.95	0.658
440.15	0.663
440.36	0.661
440.56	0.658
440.77	0.660
440.97	0.660
441.17	0.659
441.38	0.660
441.58	0.658
441.79	0.657
441.99	0.656
442.19	0.655
442.40	0.653
442.60	0.653
442.81	0.651
443.01	0.651
443.21	0.652
443.42	0.651
443.62	0.650
443.82	0.649
444.03	0.651
444.23	0.651
444.44	0.650
444.64	0.650
444.84	0.651
445.05	0.651
445.25	0.649
445.45	0.650
445.66	0.653
445.86	0.652
446.06	0.653
446.27	0.652
446.47	0.656
446.68	0.655
446.88	0.653
447.08	0.653
447.29	0.654
447.49	0.654
447.69	0.653
447.90	0.652
448.10	0.656
448.30	0.653
448.51	0.655
448.71	0.653
448.91	0.655
449.12	0.653
449.32	0.655
449.52	0.654
449.73	0.659
449.93	0.658
450.14	0.658
450.34	0.657
450.54	0.660
450.75	0.657
450.95	0.656
451.15	0.656
451.36	0.659
451.56	0.656
451.76	0.655
451.97	0.652
452.17	0.653
452.37	0.652
452.58	0.647
452.78	0.647
452.98	0.650
453.19	0.650
453.39	0.650
453.59	0.649
453.79	0.650
454.00	0.651
454.20	0.649
454.40	0.650
454.61	0.652
454.81	0.653
455.01	0.651
455.22	0.652
455.42	0.654
455.62	0.652
455.83	0.651
456.03	0.655
456.23	0.656
456.44	0.657
456.64	0.655
456.84	0.655
457.04	0.657
457.25	0.656
457.45	0.652
457.65	0.650
457.86	0.652
458.06	0.651
458.26	0.646
458.47	0.645
458.67	0.647
458.87	0.647
459.07	0.645
459.28	0.647
459.48	0.650
459.68	0.649
459.89	0.648
460.09	0.647
460.29	0.648
460.49	0.650
460.70	0.649
460.90	0.649
461.10	0.650
461.31	0.650
461.51	0.646
461.71	0.648
461.91	0.650
462.12	0.651
462.32	0.649
462.52	0.650
462.72	0.653
462.93	0.653
463.13	0.651
463.33	0.652
463.53	0.654
463.74	0.653
463.94	0.649
464.14	0.649
464.35	0.651
464.55	0.651
464.75	0.649
464.95	0.647
465.16	0.649
465.36	0.648
465.56	0.647
465.76	0.646
465.97	0.647
466.17	0.647
466.37	0.645
466.57	0.645
466.78	0.646
466.98	0.647
467.18	0.644
467.38	0.643
467.59	0.645
467.79	0.647
467.99	0.646
468.19	0.646
468.39	0.650
468.60	0.650
468.80	0.648
469.00	0.649
469.20	0.650
469.41	0.651
469.61	0.650
469.81	0.649
470.01	0.649
470.22	0.650
470.42	0.648
470.62	0.645
470.82	0.647
471.02	0.647
471.23	0.645
471.43	0.645
471.63	0.648
471.83	0.647
472.04	0.645
472.24	0.644
472.44	0.649
472.64	0.649
472.84	0.647
473.05	0.647
473.25	0.650
473.45	0.649
473.65	0.647
473.85	0.648
474.06	0.650
474.26	0.650
474.46	0.651
474.66	0.647
474.86	0.648
475.07	0.648
475.27	0.646
475.47	0.644
475.67	0.645
475.87	0.647
476.08	0.643
476.28	0.644
476.48	0.645
476.68	0.644
476.88	0.642
477.09	0.643
477.29	0.646
477.49	0.645
477.69	0.644
477.89	0.644
478.09	0.644
478.30	0.646
478.50	0.643
478.70	0.642
478.90	0.643
479.10	0.645
479.31	0.646
479.51	0.644
479.71	0.645
479.91	0.645
480.11	0.644
480.31	0.644
480.52	0.643
480.72	0.644
480.92	0.642
481.12	0.642
481.32	0.639
481.52	0.637
481.72	0.637
481.93	0.640
482.13	0.641
482.33	0.641
482.53	0.638
482.73	0.639
482.93	0.640
483.14	0.639
483.34	0.639
483.54	0.640
483.74	0.639
483.94	0.638
484.14	0.633
484.34	0.633
484.55	0.634
484.75	0.634
484.95	0.632
485.15	0.632
485.35	0.632
485.55	0.632
485.75	0.630
485.96	0.630
486.16	0.632
486.36	0.632
486.56	0.630
486.76	0.630
486.96	0.631
487.16	0.630
487.36	0.629
487.57	0.629
487.77	0.630
487.97	0.630
488.17	0.629
488.37	0.628
488.57	0.629
488.77	0.629
488.97	0.628
489.18	0.627
489.38	0.630
489.58	0.631
489.78	0.630
489.98	0.629
490.18	0.629
490.38	0.629
490.58	0.627
490.78	0.628
490.98	0.630
491.19	0.631
491.39	0.630
491.59	0.628
491.79	0.631
491.99	0.632
492.19	0.631
492.39	0.635
492.59	0.635
492.79	0.637
492.99	0.637
493.20	0.637
493.40	0.637
493.60	0.638
493.80	0.636
494.00	0.634
494.20	0.635
494.40	0.634
494.60	0.631
494.80	0.636
495.00	0.635
495.20	0.633
495.40	0.632
495.61	0.634
495.81	0.634
496.01	0.637
496.21	0.638
496.41	0.637
496.61	0.638
496.81	0.637
497.01	0.632
497.21	0.631
497.41	0.632
497.61	0.632
497.81	0.630
498.01	0.630
498.21	0.629
498.41	0.627
498.61	0.627
498.82	0.628
499.02	0.631
499.22	0.632
499.42	0.631
499.62	0.632
499.82	0.633
500.02	0.634
500.22	0.632
500.42	0.634
500.62	0.635
500.82	0.635
501.02	0.633
501.22	0.633
501.42	0.633
501.62	0.635
501.82	0.634
502.02	0.634
502.22	0.634
502.42	0.636
502.62	0.632
502.82	0.633
503.02	0.634
503.22	0.634
503.42	0.631
503.63	0.630
503.83	0.628
504.03	0.627
504.23	0.626
504.43	0.627
504.63	0.628
504.83	0.628
505.03	0.627
505.23	0.629
505.43	0.631
505.63	0.631
505.83	0.631
506.03	0.633
506.23	0.635
506.43	0.636
506.63	0.635
506.83	0.634
507.03	0.636
507.23	0.636
507.43	0.633
507.63	0.634
507.83	0.635
508.03	0.634
508.23	0.633
508.43	0.632
508.63	0.634
508.83	0.635
509.03	0.635
509.23	0.634
509.43	0.635
509.63	0.635
509.83	0.633
510.03	0.636
510.23	0.638
510.43	0.639
510.63	0.639
510.83	0.639
511.03	0.640
511.23	0.638
511.43	0.638
511.63	0.639
511.83	0.642
512.03	0.641
512.22	0.638
512.42	0.638
512.62	0.639
512.82	0.639
513.02	0.638
513.22	0.638
513.42	0.640
513.62	0.643
513.82	0.641
514.02	0.640
514.22	0.642
514.42	0.642
514.62	0.641
514.82	0.641
515.02	0.644
515.22	0.647
515.42	0.646
515.62	0.648
515.82	0.647
516.02	0.648
516.22	0.648
516.42	0.649
516.62	0.651
516.82	0.652
517.01	0.650
517.21	0.649
517.41	0.652
517.61	0.653
517.81	0.649
518.01	0.649
518.21	0.649
518.41	0.648
518.61	0.647
518.81	0.648
519.01	0.649
519.21	0.648
519.41	0.647
519.61	0.642
519.81	0.645
520.00	0.645
520.20	0.645
520.40	0.648
520.60	0.648
520.80	0.648
521.00	0.648
521.20	0.648
521.40	0.653
521.60	0.654
521.80	0.652
522.00	0.652
522.20	0.656
522.39	0.655
522.59	0.652
522.79	0.654
522.99	0.657
523.19	0.655
523.39	0.652
523.59	0.650
523.79	0.654
523.99	0.657
524.19	0.656
524.38	0.654
524.58	0.655
524.78	0.655
524.98	0.653
525.18	0.655
525.38	0.656
525.58	0.657
525.78	0.654
525.98	0.653
526.18	0.653
526.37	0.652
526.57	0.654
526.77	0.653
526.97	0.655
527.17	0.655
527.37	0.651
527.57	0.653
527.77	0.655
527.96	0.656
528.16	0.653
528.36	0.654
528.56	0.657
528.76	0.654
528.96	0.654
529.16	0.654
529.36	0.658
529.55	0.658
529.75	0.655
529.95	0.655
530.15	0.656
530.35	0.659
530.55	0.657
530.75	0.657
530.94	0.660
531.14	0.660
531.34	0.658
531.54	0.656
531.74	0.659
531.94	0.663
532.13	0.660
532.33	0.662
532.53	0.661
532.73	0.659
532.93	0.657
533.13	0.658
533.33	0.659
533.52	0.659
533.72	0.662
533.92	0.661
534.12	0.659
534.32	0.659
534.52	0.657
534.71	0.660
534.91	0.663
535.11	0.665
535.31	0.662
535.51	0.664
535.71	0.667
535.90	0.664
536.10	0.665
536.30	0.667
536.50	0.668
536.70	0.669
536.89	0.666
537.09	0.666
537.29	0.667
537.49	0.668
537.69	0.666
537.89	0.666
538.08	0.666
538.28	0.664
538.48	0.664
538.68	0.666
538.88	0.668
539.07	0.668
539.27	0.666
539.47	0.665
539.67	0.665
539.87	0.667
540.06	0.665
540.26	0.665
540.46	0.668
540.66	0.665
540.86	0.661
541.05	0.661
541.25	0.663
541.45	0.663
541.65	0.662
541.84	0.664
542.04	0.664
542.24	0.665
542.44	0.664
542.64	0.664
542.83	0.668
543.03	0.669
543.23	0.666
543.43	0.667
543.62	0.669
543.82	0.669
544.02	0.667
544.22	0.667
544.42	0.671
544.61	0.671
544.81	0.669
545.01	0.667
545.21	0.670
545.40	0.670
545.60	0.667
545.80	0.671
546.00	0.672
546.19	0.671
546.39	0.669
546.59	0.667
546.79	0.668
546.98	0.668
547.18	0.667
547.38	0.668
547.58	0.671
547.77	0.671
547.97	0.667
548.17	0.668
548.37	0.669
548.56	0.669
548.76	0.668
548.96	0.670
549.16	0.674
549.35	0.673
549.55	0.671
549.75	0.672
549.95	0.676
550.14	0.676
550.34	0.674
550.54	0.679
550.73	0.684
550.93	0.685
551.13	0.681
551.33	0.678
551.52	0.680
551.72	0.680
551.92	0.677
552.12	0.677
552.31	0.679
552.51	0.678
552.71	0.673
552.90	0.673
553.10	0.674
553.30	0.674
553.50	0.674
553.69	0.675
553.89	0.676
554.09	0.676
554.28	0.673
554.48	0.674
554.68	0.676
554.87	0.677
555.07	0.673
555.27	0.673
555.47	0.676
555.66	0.677
555.86	0.675
556.06	0.677
556.25	0.679
556.45	0.687
556.65	0.684
556.84	0.687
557.04	0.691
557.24	0.692
557.43	0.691
557.63	0.694
557.83	0.696
558.02	0.697
558.22	0.701
558.42	0.701
558.61	0.693
558.81	0.694
559.01	0.689
559.21	0.689
559.40	0.690
559.60	0.690
559.80	0.685
559.99	0.686
560.19	0.688
560.39	0.682
560.58	0.679
560.78	0.680
560.97	0.684
561.17	0.683
561.37	0.681
561.56	0.682
561.76	0.685
561.96	0.684
562.15	0.682
562.35	0.684
562.55	0.686
562.74	0.685
562.94	0.684
563.14	0.682
563.33	0.683
563.53	0.684
563.73	0.680
563.92	0.682
564.12	0.685
564.31	0.688
564.51	0.686
564.71	0.687
564.90	0.690
565.10	0.691
565.30	0.694
565.49	0.695
565.69	0.697
565.89	0.697
566.08	0.694
566.28	0.695
566.47	0.697
566.67	0.694
566.87	0.691
567.06	0.693
567.26	0.700
567.46	0.695
567.65	0.694
567.85	0.695
568.04	0.698
568.24	0.697
568.44	0.693
568.63	0.691
568.83	0.693
569.02	0.692
569.22	0.687
569.42	0.683
569.61	0.685
569.81	0.683
570.00	0.681
570.20	0.682
570.40	0.684
570.59	0.683
570.79	0.681
570.98	0.679
571.18	0.681
571.38	0.680
571.57	0.677
571.77	0.675
571.96	0.679
572.16	0.677
572.35	0.671
572.55	0.673
572.75	0.672
572.94	0.672
573.14	0.670
573.33	0.671
573.53	0.672
573.73	0.671
573.92	0.668
574.12	0.667
574.31	0.669
574.51	0.670
574.70	0.667
574.90	0.668
575.09	0.670
575.29	0.670
575.49	0.667
575.68	0.668
575.88	0.670
576.07	0.671
576.27	0.669
576.46	0.667
576.66	0.667
576.86	0.667
577.05	0.664
577.25	0.663
577.44	0.664
577.64	0.664
577.83	0.662
578.03	0.663
578.22	0.662
578.42	0.662
578.61	0.659
578.81	0.660
579.00	0.661
579.20	0.661
579.40	0.660
579.59	0.658
579.79	0.659
579.98	0.659
580.18	0.658
580.37	0.658
580.57	0.661
580.76	0.666
580.96	0.664
581.15	0.664
581.35	0.666
581.54	0.666
581.74	0.665
581.93	0.667
582.13	0.668
582.32	0.666
582.52	0.664
582.71	0.663
582.91	0.659
583.10	0.659
583.30	0.658
583.49	0.657
583.69	0.661
583.88	0.663
584.08	0.662
584.27	0.664
584.47	0.668
584.66	0.668
584.86	0.667
585.05	0.669
585.25	0.672
585.44	0.672
585.64	0.670
585.83	0.666
586.03	0.667
586.22	0.665
586.42	0.661
586.61	0.663
586.81	0.665
587.00	0.665
587.20	0.663
587.39	0.664
587.59	0.666
587.78	0.667
587.98	0.667
588.17	0.668
588.37	0.671
588.56	0.673
588.76	0.669
588.95	0.669
589.15	0.673
589.34	0.675
589.54	0.673
589.73	0.673
589.92	0.676
590.12	0.676
590.31	0.673
590.51	0.678
590.70	0.680
590.90	0.680
591.09	0.678
591.29	0.676
591.48	0.676
591.68	0.678
591.87	0.676
592.06	0.676
592.26	0.679
592.45	0.678
592.65	0.671
592.84	0.671
593.04	0.674
593.23	0.676
593.43	0.673
593.62	0.673
593.81	0.674
594.01	0.673
594.20	0.671
594.40	0.670
594.59	0.673
594.79	0.674
594.98	0.673
595.17	0.672
595.37	0.674
595.56	0.676
595.76	0.674
595.95	0.676
596.14	0.679
596.34	0.679
596.53	0.677
596.73	0.678
596.92	0.679
597.12	0.681
597.31	0.680
597.50	0.679
597.70	0.682
597.89	0.681
598.09	0.677
598.28	0.678
598.47	0.682
598.67	0.680
598.86	0.676
599.06	0.678
599.25	0.679
599.44	0.677
599.64	0.675
599.83	0.673
600.03	0.676
600.22	0.677
600.41	0.677
600.61	0.674
600.80	0.678
601.00	0.678
601.19	0.674
601.38	0.672
601.58	0.675
601.77	0.675
601.96	0.677
602.16	0.677
602.35	0.686
602.55	0.684
602.74	0.684
602.93	0.686
603.13	0.691
603.32	0.693
603.51	0.692
603.71	0.694
603.90	0.697
604.09	0.697
604.29	0.694
604.48	0.688
604.68	0.690
604.87	0.688
605.06	0.684
605.26	0.681
605.45	0.682
605.64	0.681
605.84	0.676
606.03	0.675
606.22	0.675
606.42	0.675
606.61	0.671
606.80	0.671
607.00	0.673
607.19	0.674
607.38	0.672
607.58	0.673
607.77	0.676
607.96	0.677
608.16	0.675
608.35	0.680
608.54	0.683
608.74	0.686
608.93	0.690
609.12	0.694
609.32	0.697
609.51	0.701
609.70	0.699
609.90	0.701
610.09	0.706
610.28	0.712
610.48	0.704
610.67	0.705
610.86	0.706
611.06	0.701
611.25	0.697
611.44	0.698
611.64	0.697
611.83	0.699
612.02	0.696
612.21	0.694
612.41	0.693
612.60	0.693
612.79	0.688
612.99	0.689
613.18	0.692
613.37	0.690
613.57	0.686
613.76	0.689
613.95	0.687
614.14	0.687
614.34	0.684
614.53	0.684
614.72	0.687
614.92	0.687
615.11	0.684
615.30	0.681
615.49	0.683
615.69	0.686
615.88	0.682
616.07	0.683
616.26	0.686
616.46	0.688
616.65	0.684
616.84	0.683
617.04	0.685
617.23	0.689
617.42	0.688
617.61	0.693
617.81	0.694
618.00	0.696
618.19	0.694
618.38	0.698
618.58	0.701
618.77	0.702
618.96	0.701
619.15	0.703
619.35	0.704
619.54	0.705
619.73	0.699
619.92	0.701
620.12	0.705
620.31	0.705
620.50	0.699
620.69	0.699
620.89	0.703
621.08	0.703
621.27	0.703
621.46	0.702
621.66	0.707
621.85	0.707
622.04	0.703
622.23	0.704
622.43	0.705
622.62	0.706
622.81	0.705
623.00	0.705
623.19	0.709
623.39	0.709
623.58	0.705
623.77	0.705
623.96	0.708
624.16	0.708
624.35	0.702
624.54	0.706
624.73	0.711
624.92	0.707
625.12	0.705
625.31	0.704
625.50	0.707
625.69	0.708
625.88	0.703
626.08	0.703
626.27	0.705
626.46	0.706
626.65	0.702
626.84	0.701
627.04	0.707
627.23	0.707
627.42	0.702
627.61	0.705
627.80	0.708
628.00	0.709
628.19	0.706
628.38	0.711
628.57	0.714
628.76	0.714
628.96	0.710
629.15	0.711
629.34	0.714
629.53	0.715
629.72	0.709
629.91	0.710
630.11	0.716
630.30	0.716
630.49	0.718
630.68	0.718
630.87	0.722
631.06	0.724
631.26	0.718
631.45	0.720
631.64	0.729
631.83	0.732
632.02	0.728
632.21	0.727
632.41	0.736
632.60	0.730
632.79	0.728
632.98	0.729
633.17	0.731
633.36	0.733
633.55	0.729
633.75	0.724
633.94	0.725
634.13	0.726
634.32	0.722
634.51	0.715
634.70	0.718
634.89	0.718
635.09	0.713
635.28	0.715
635.47	0.716
635.66	0.719
635.85	0.714
636.04	0.716
636.23	0.722
636.43	0.723
636.62	0.722
636.81	0.721
637.00	0.725
637.19	0.729
637.38	0.724
637.57	0.724
637.76	0.727
637.95	0.728
638.15	0.724
638.34	0.721
638.53	0.725
638.72	0.726
638.91	0.722
639.10	0.720
639.29	0.721
639.48	0.722
639.67	0.721
639.87	0.719
640.06	0.725
640.25	0.724
640.44	0.724
640.63	0.724
640.82	0.728
641.01	0.728
641.20	0.727
641.39	0.727
641.58	0.730
641.78	0.729
641.97	0.724
642.16	0.739
642.35	0.741
642.54	0.738
642.73	0.732
642.92	0.730
643.11	0.734
643.30	0.734
643.49	0.729
643.68	0.731
643.87	0.734
644.06	0.735
644.25	0.712
644.45	0.715
644.64	0.718
644.83	0.719
645.02	0.715
645.21	0.714
645.40	0.716
645.59	0.716
645.78	0.709
645.97	0.710
646.16	0.712
646.35	0.712
646.54	0.709
646.73	0.710
646.92	0.713
647.11	0.712
647.30	0.708
647.49	0.710
647.68	0.710
647.88	0.709
648.07	0.701
648.26	0.705
648.45	0.707
648.64	0.703
648.83	0.700
649.02	0.702
649.21	0.714
649.40	0.713
649.59	0.707
649.78	0.708
649.97	0.724
650.16	0.723
650.35	0.716
650.54	0.720
650.73	0.729
650.92	0.725
651.11	0.717
651.30	0.715
651.49	0.719
651.68	0.720
651.87	0.717
652.06	0.705
652.25	0.709
652.44	0.710
652.63	0.705
652.82	0.703
653.01	0.703
653.20	0.701
653.39	0.687
653.58	0.684
653.77	0.684
653.96	0.679
654.15	0.671
654.34	0.669
654.53	0.665
654.72	0.661
654.91	0.651
655.10	0.648
655.29	0.646
655.48	0.645
655.67	0.639
655.86	0.636
656.05	0.636
656.24	0.636
656.43	0.630
656.62	0.630
656.81	0.631
657.00	0.630
657.19	0.628
657.38	0.629
657.57	0.629
657.76	0.632
657.95	0.631
658.14	0.634
658.33	0.637
658.51	0.643
658.70	0.643
658.89	0.644
659.08	0.652
659.27	0.660
659.46	0.658
659.65	0.664
659.84	0.667
660.03	0.670
660.22	0.671
660.41	0.676
660.60	0.676
660.79	0.678
660.98	0.683
661.17	0.682
661.36	0.681
661.55	0.683
661.74	0.680
661.92	0.683
662.11	0.685
662.30	0.684
662.49	0.676
662.68	0.676
662.87	0.679
663.06	0.672
663.25	0.673
663.44	0.674
663.63	0.674
663.82	0.673
664.01	0.667
664.20	0.667
664.38	0.669
664.57	0.669
664.76	0.668
664.95	0.669
665.14	0.674
665.33	0.668
665.52	0.675
665.71	0.679
665.90	0.679
666.09	0.680
666.28	0.678
666.46	0.678
666.65	0.680
666.84	0.678
667.03	0.672
667.22	0.670
667.41	0.674
667.60	0.663
667.79	0.656
667.98	0.657
668.16	0.658
668.35	0.657
668.54	0.652
668.73	0.653
668.92	0.654
669.11	0.653
669.30	0.647
669.49	0.643
669.67	0.645
669.86	0.648
670.05	0.645
670.24	0.643
670.43	0.640
670.62	0.640
670.81	0.634
671.00	0.635
671.18	0.635
671.37	0.635
671.56	0.632
671.75	0.632
671.94	0.629
672.13	0.627
672.32	0.622
672.50	0.621
672.69	0.622
672.88	0.623
673.07	0.617
673.26	0.620
673.45	0.621
673.63	0.621
673.82	0.617
674.01	0.619
674.20	0.618
674.39	0.618
674.58	0.617
674.76	0.616
674.95	0.615
675.14	0.615
675.33	0.610
675.52	0.608
675.71	0.608
675.89	0.607
676.08	0.602
676.27	0.602
676.46	0.603
676.65	0.602
676.84	0.602
677.02	0.604
677.21	0.607
677.40	0.606
677.59	0.603
677.78	0.604
677.96	0.606
678.15	0.606
678.34	0.604
678.53	0.606
678.72	0.606
678.90	0.603
679.09	0.598
679.28	0.595
679.47	0.595
679.66	0.595
679.84	0.591
680.03	0.589
680.22	0.588
680.41	0.591
680.60	0.586
680.78	0.585
680.97	0.588
681.16	0.589
681.35	0.587
681.53	0.586
681.72	0.588
681.91	0.590
682.10	0.587
682.29	0.590
682.47	0.588
682.66	0.588
682.85	0.587
683.04	0.584
683.22	0.584
683.41	0.586
683.60	0.585
683.79	0.586
683.97	0.585
684.16	0.585
684.35	0.580
684.54	0.581
684.72	0.582
684.91	0.582
685.10	0.579
685.29	0.580
685.47	0.577
685.66	0.576
685.85	0.573
686.04	0.571
686.22	0.575
686.41	0.578
686.60	0.575
686.79	0.577
686.97	0.579
687.16	0.581
687.35	0.578
687.54	0.582
687.72	0.587
687.91	0.586
688.10	0.587
688.29	0.586
688.47	0.584
688.66	0.583
688.85	0.578
689.03	0.575
689.22	0.580
689.41	0.580
689.60	0.575
689.78	0.572
689.97	0.573
690.16	0.571
690.34	0.567
690.53	0.567
690.72	0.568
690.91	0.567
691.09	0.565
691.28	0.558
691.47	0.557
691.65	0.556
691.84	0.553
692.03	0.552
692.21	0.550
692.40	0.550
692.59	0.548
692.77	0.547
692.96	0.548
693.15	0.549
693.34	0.547
693.52	0.548
693.71	0.548
693.90	0.550
694.08	0.550
694.27	0.551
694.46	0.560
694.64	0.561
694.83	0.560
695.02	0.559
695.20	0.559
695.39	0.559
695.58	0.558
695.76	0.559
695.95	0.558
696.14	0.558
696.32	0.555
696.51	0.546
696.70	0.546
696.88	0.548
697.07	0.546
697.26	0.547
697.44	0.549
697.63	0.548
697.81	0.545
698.00	0.544
698.19	0.544
698.37	0.545
698.56	0.544
698.75	0.544
698.93	0.544
699.12	0.543
699.31	0.542
699.49	0.541
699.68	0.542
699.87	0.545
700.05	0.545
700.24	0.543
700.42	0.545
700.61	0.544
700.80	0.542
700.98	0.542
701.17	0.543
701.36	0.543
701.54	0.542
701.73	0.543
701.91	0.542
702.10	0.541
702.29	0.538
702.47	0.537
702.66	0.539
702.84	0.540
703.03	0.538
703.22	0.540
703.40	0.540
703.59	0.541
703.77	0.541
703.96	0.540
704.15	0.542
704.33	0.542
704.52	0.541
704.70	0.540
704.89	0.540
705.08	0.539
705.26	0.534
705.45	0.534
705.63	0.534
705.82	0.530
706.00	0.529
706.19	0.527
706.38	0.528
706.56	0.527
706.75	0.525
706.93	0.524
707.12	0.526
707.30	0.527
707.49	0.524
707.68	0.522
707.86	0.522
708.05	0.522
708.23	0.520
708.42	0.520
708.60	0.524
708.79	0.524
708.98	0.523
709.16	0.522
709.35	0.524
709.53	0.528
709.72	0.527
709.90	0.528
710.09	0.531
710.27	0.533
710.46	0.536
710.64	0.534
710.83	0.536
711.02	0.537
711.20	0.535
711.39	0.534
711.57	0.532
711.76	0.533
711.94	0.530
712.13	0.531
712.31	0.530
712.50	0.525
712.68	0.522
712.87	0.522
713.05	0.523
713.24	0.523
713.42	0.522
713.61	0.523
713.79	0.524
713.98	0.524
714.16	0.525
714.35	0.525
714.54	0.526
714.72	0.526
714.91	0.523
715.09	0.530
715.28	0.534
715.46	0.534
715.65	0.531
715.83	0.531
716.02	0.534
716.20	0.531
716.39	0.530
716.57	0.531
716.76	0.534
716.94	0.535
717.12	0.526
717.31	0.527
717.49	0.531
717.68	0.533
717.86	0.531
718.05	0.532
718.23	0.535
718.42	0.537
718.60	0.537
718.79	0.546
718.97	0.549
719.16	0.550
719.34	0.547
719.53	0.547
719.71	0.547
719.90	0.549
720.08	0.547
720.27	0.547
720.45	0.547
720.63	0.546
720.82	0.539
721.00	0.542
721.19	0.546
721.37	0.544
721.56	0.544
721.74	0.546
721.93	0.555
722.11	0.561
722.30	0.559
722.48	0.564
722.66	0.565
722.85	0.564
723.03	0.564
723.22	0.562
723.40	0.566
723.59	0.566
723.77	0.570
723.95	0.563
724.14	0.565
724.32	0.567
724.51	0.565
724.69	0.567
724.88	0.568
725.06	0.566
725.24	0.566
725.43	0.568
725.61	0.571
725.80	0.566
725.98	0.564
726.16	0.561
726.35	0.568
726.53	0.568
726.72	0.565
726.90	0.576
727.09	0.577
727.27	0.584
727.45	0.580
727.64	0.588
727.82	0.596
728.01	0.601
728.19	0.598
728.37	0.603
728.56	0.607
728.74	0.614
728.92	0.601
729.11	0.603
729.29	0.603
729.48	0.604
729.66	0.592
729.84	0.593
730.03	0.596
730.21	0.599
730.40	0.587
730.58	0.589
730.76	0.590
730.95	0.593
731.13	0.593
731.31	0.606
731.50	0.617
731.68	0.621
731.86	0.615
732.05	0.631
732.23	0.636
732.42	0.641
732.60	0.642
732.78	0.646
732.97	0.668
733.15	0.676
733.33	0.662
733.52	0.669
733.70	0.683
733.88	0.693
734.07	0.675
734.25	0.702
734.43	0.711
734.62	0.715
734.80	0.709
734.98	0.697
735.17	0.705
735.35	0.712
735.53	0.699
735.72	0.702
735.90	0.725
736.08	0.744
736.27	0.719
736.45	0.730
736.63	0.745
736.82	0.758
737.00	0.756
737.18	0.767
737.37	0.804
737.55	0.831
737.73	0.820
737.92	0.825
738.10	0.824
738.28	0.850
738.46	0.831
738.65	0.844
738.83	0.868
739.01	0.928
739.20	0.914
739.38	0.893
739.56	0.888
739.75	0.894
739.93	0.857
740.11	0.887
740.29	0.887
740.48	0.899
740.66	0.873
740.84	0.866
741.03	0.833
741.21	0.845
741.39	0.823
741.57	0.836
741.76	0.864
741.94	0.869
742.12	0.825
742.31	0.833
742.49	0.860
742.67	0.886
742.85	0.901
743.04	0.900
743.22	0.917
743.40	0.978
743.58	0.947
743.77	0.963
743.95	1.005
744.13	1.068
744.31	1.036
744.50	1.027
744.68	1.037
744.86	1.004
745.04	1.017
745.23	1.089
745.41	1.074
745.59	1.086
745.77	1.040
745.96	1.029
746.14	1.044
746.32	1.042
746.50	1.025
746.69	1.002
746.87	1.025
747.05	1.010
747.23	0.922
747.42	0.906
747.60	0.941
747.78	0.944
747.96	0.974
748.14	0.921
748.33	0.959
748.51	0.958
748.69	0.944
748.87	0.974
749.06	0.978
749.24	0.982
749.42	0.962
749.60	0.939
749.78	0.960
749.97	0.904
750.15	0.898
750.33	0.901
750.51	0.930
750.69	0.935
750.88	0.937
751.06	0.945
751.24	0.981
751.42	0.965
751.60	0.952
751.79	1.030
751.97	1.094
752.15	1.087
752.33	1.041
752.51	1.123
752.69	1.152
752.88	1.103
753.06	1.155
753.24	1.117
753.42	1.174
753.60	1.418
753.78	1.203
753.97	1.221
754.15	1.259
754.33	1.302
754.51	1.123
754.69	1.100
754.87	1.146
755.06	1.057
755.24	1.059
755.42	1.070
755.60	0.954
755.78	0.966
755.96	0.898
756.15	0.902
756.33	0.909
756.51	0.929
756.69	0.916
756.87	0.874
757.05	0.897
757.23	0.874
757.42	0.831
757.60	0.830
757.78	0.819
757.96	0.818
758.14	0.796
758.32	0.780
758.50	0.797
758.69	0.794
758.87	0.784
759.05	0.792
759.23	0.805
759.41	0.809
759.59	0.798
759.77	0.823
759.95	0.858
760.13	0.911
760.32	0.906
760.50	0.900
760.68	0.932
760.86	0.934
761.04	0.897
761.22	0.900
761.40	0.960
761.58	0.963
761.76	0.923
761.95	0.899
762.13	0.854
762.31	0.856
762.49	0.819
762.67	0.837
762.85	0.854
763.03	0.848
763.21	0.826
763.39	0.805
763.57	0.811
763.75	0.806
763.94	0.789
764.12	0.790
764.30	0.816
764.48	0.821
764.66	0.779
764.84	0.777
765.02	0.820
765.20	0.830
765.38	0.804
765.56	0.812
765.74	0.860
765.92	0.862
766.10	0.872
766.28	0.866
766.46	0.900
766.65	0.904
766.83	0.886
767.01	0.868
767.19	0.878
767.37	0.878
767.55	0.857
767.73	0.834
767.91	0.841
768.09	0.824
768.27	0.809
768.45	0.798
768.63	0.802
768.81	0.805
768.99	0.775
769.17	0.801
769.35	0.819
769.53	0.818
769.71	0.796
769.89	0.805
770.07	0.814
770.25	0.797
770.43	0.774
770.61	0.803
770.79	0.811
770.97	0.818
771.15	0.784
771.33	0.790
771.51	0.794
771.69	0.806
771.87	0.810
772.05	0.819
772.24	0.831
772.42	0.836
772.60	0.807
772.78	0.877
772.96	0.918
773.14	0.910
773.32	0.880
773.49	0.889
773.67	0.890
773.85	0.866
774.03	0.847
774.21	0.885
774.39	0.906
774.57	0.935
774.75	0.847
774.93	0.840
775.11	0.871
775.29	0.880
775.47	0.876
775.65	0.887
775.83	0.915
776.01	0.941
776.19	0.881
776.37	0.881
776.55	0.884
776.73	0.875
776.91	0.867
777.09	0.847
777.27	0.846
777.45	0.835
777.63	0.807
777.81	0.802
777.99	0.790
778.17	0.787
778.35	0.761
778.53	0.749
778.71	0.761
778.89	0.746
779.07	0.735
779.24	0.740
779.42	0.742
779.60	0.764
779.78	0.756
779.96	0.761
780.14	0.772
780.32	0.797
780.50	0.773
780.68	0.772
780.86	0.764
781.04	0.780
781.22	0.784
781.40	0.797
781.58	0.786
781.75	0.780
781.93	0.760
782.11	0.762
782.29	0.748
782.47	0.749
782.65	0.734
782.83	0.767
783.01	0.760
783.19	0.750
783.37	0.732
783.55	0.736
783.72	0.756
783.90	0.768
784.08	0.754
784.26	0.768
784.44	0.788
784.62	0.792
784.80	0.754
784.98	0.761
785.16	0.771
785.33	0.788
785.51	0.770
785.69	0.756
785.87	0.755
786.05	0.768
786.23	0.762
786.41	0.761
786.59	0.770
786.77	0.768
786.94	0.754
787.12	0.758
787.30	0.760
787.48	0.756
787.66	0.741
787.84	0.742
788.02	0.734
788.19	0.730
788.37	0.713
788.55	0.717
788.73	0.719
788.91	0.712
789.09	0.692
789.27	0.681
789.44	0.696
789.62	0.702
789.80	0.710
789.98	0.738
790.16	0.725
790.34	0.722
790.51	0.705
790.69	0.727
790.87	0.736
791.05	0.730
791.23	0.722
791.41	0.722
791.58	0.733
791.76	0.710
791.94	0.675
792.12	0.686
792.30	0.690
792.48	0.689
792.65	0.680
792.83	0.687
793.01	0.699
793.19	0.697
793.37	0.680
793.54	0.675
793.72	0.688
793.90	0.687
794.08	0.674
794.26	0.676
794.43	0.688
794.61	0.670
794.79	0.657
794.97	0.656
795.15	0.663
795.32	0.668
795.50	0.656
795.68	0.651
795.86	0.658
796.04	0.659
796.21	0.650
796.39	0.648
796.57	0.666
796.75	0.676
796.92	0.675
797.10	0.682
797.28	0.686
797.46	0.689
797.64	0.688
797.81	0.695
797.99	0.701
798.17	0.705
798.35	0.696
798.52	0.697
798.70	0.693
798.88	0.703
799.06	0.698
799.23	0.700
799.41	0.711
799.59	0.703
799.77	0.690
799.94	0.700
800.12	0.712
800.30	0.731
800.48	0.729
800.65	0.728
800.83	0.717
801.01	0.708
801.19	0.708
801.36	0.702
801.54	0.709
801.72	0.720
801.90	0.701
802.07	0.697
802.25	0.685
802.43	0.668
802.60	0.662
802.78	0.672
802.96	0.678
803.14	0.669
803.31	0.666
803.49	0.666
803.67	0.663
803.84	0.668
804.02	0.657
804.20	0.658
804.38	0.665
804.55	0.664
804.73	0.646
804.91	0.646
805.08	0.660
805.26	0.657
805.44	0.715
805.61	0.718
805.79	0.719
805.97	0.718
806.15	0.709
806.32	0.703
806.50	0.712
806.68	0.713
806.85	0.703
807.03	0.694
807.21	0.712
807.38	0.648
807.56	0.636
807.74	0.646
807.91	0.655
808.09	0.656
808.27	0.674
808.44	0.703
808.62	0.714
808.80	0.716
808.97	0.708
809.15	0.704
809.33	0.724
809.50	0.733
809.68	0.718
809.86	0.729
810.03	0.765
810.21	0.739
810.39	0.717
810.56	0.724
810.74	0.753
810.91	0.834
811.09	0.818
811.27	0.843
811.44	0.850
811.62	0.847
811.80	0.824
811.97	0.793
812.15	0.796
812.33	0.791
812.50	0.772
812.68	0.758
812.85	0.697
813.03	0.699
813.21	0.661
813.38	0.656
813.56	0.663
813.74	0.673
813.91	0.679
814.09	0.715
814.26	0.708
814.44	0.710
814.62	0.698
814.79	0.702
814.97	0.712
815.14	0.718
815.32	0.718
815.50	0.738
815.67	0.742
815.85	0.731
816.02	0.717
816.20	0.728
816.38	0.748
816.55	0.756
816.73	0.754
816.90	0.763
817.08	0.800
817.26	0.806
817.43	0.782
817.61	0.811
817.78	0.836
817.96	0.812
818.13	0.800
818.31	0.801
818.49	0.816
818.66	0.805
818.84	0.787
819.01	0.763
819.19	0.773
819.36	0.775
819.54	0.738
819.71	0.785
819.89	0.806
820.07	0.820
820.24	0.810
820.42	0.812
820.59	0.836
820.77	0.860
820.94	0.849
821.12	0.868
821.29	0.889
821.47	0.889
821.64	0.813
821.82	0.825
822.00	0.820
822.17	0.817
822.35	0.804
822.52	0.808
822.70	0.801
822.87	0.807
823.05	0.783
823.22	0.794
823.40	0.834
823.57	0.859
823.75	0.832
823.92	0.866
824.10	0.891
824.27	0.943
824.45	0.925
824.62	1.003
824.80	1.031
824.97	1.052
825.15	1.040
825.32	1.048
825.50	1.058
825.67	1.077
825.85	1.037
826.02	1.062
826.20	1.108
826.37	1.294
826.55	1.170
826.72	1.519
826.90	1.752
827.07	1.995
827.25	1.799
827.42	-0.000
827.60	-0.000
827.77	-0.000
827.95	-0.000
828.12	-0.000
828.30	-0.000
828.47	-0.000
828.65	1.984
828.82	2.474
829.00	-0.000
829.17	-0.000
829.34	-0.000
829.52	-0.000
829.69	-0.000
829.87	-0.000
830.04	-0.000
830.22	-0.000
830.39	-0.000
830.57	-0.000
830.74	-0.000
830.92	-0.000
831.09	-0.000
831.26	-0.000
831.44	-0.000
831.61	-0.000
831.79	-0.000
831.96	-0.000
832.14	-0.000
832.31	-0.000
832.49	-0.000
832.66	-0.000
832.83	-0.000
833.01	-0.000
833.18	-0.000
833.36	-0.000
833.53	-0.000
833.70	-0.000
833.88	-0.000
834.05	-0.000
834.23	-0.000
834.40	-0.000
834.58	-0.000
834.75	-0.000
834.92	-0.000
835.10	-0.000
835.27	-0.000
835.45	-0.000
835.62	-0.000
835.79	-0.000
835.97	-0.000
836.14	-0.000
836.32	-0.000
836.49	-0.000
836.66	-0.000
836.84	-0.000
837.01	-0.000
837.18	-0.000
837.36	-0.000
837.53	-0.000
837.71	-0.000
837.88	-0.000
838.05	-0.000
838.23	-0.000
838.40	-0.000
838.58	-0.000
838.75	-0.000
838.92	-0.000
839.10	-0.000
839.27	-0.000
839.44	-0.000
839.62	-0.000
839.79	-0.000
839.96	-0.000
840.14	-0.000
840.31	-0.000
840.48	-0.000
840.66	-0.000
840.83	-0.000
841.01	-0.000
841.18	-0.000
841.35	-0.000
841.53	-0.000
841.70	-0.000
841.87	-0.000
842.05	-0.000
842.22	-0.000
842.39	-0.000
842.57	-0.000
842.74	-0.000
842.91	-0.000
843.09	-0.000
843.26	-0.000
843.43	-0.000
843.60	-0.000
843.78	-0.000
843.95	-0.000
844.12	-0.000
844.30	-0.000
844.47	-0.000
844.64	-0.000
844.82	-0.000
844.99	-0.000
845.16	-0.000
845.34	-0.000
845.51	-0.000
845.68	-0.000
845.85	-0.000
846.03	-0.000
846.20	-0.000
846.37	-0.000
846.55	-0.000
846.72	-0.000
846.89	-0.000
847.06	-0.000
847.24	-0.000
847.41	-0.000
847.58	-0.000
847.76	-0.000
847.93	-0.000
848.10	-0.000
848.27	-0.000
848.45	-0.000
848.62	-0.000
848.79	-0.000
848.97	-0.000
849.14	-0.000
849.31	-0.000
849.48	-0.000
849.66	-0.000
849.83	-0.000
850.00	-0.000
850.17	-0.000
850.35	-0.000
850.52	-0.000
850.69	-0.000
850.86	-0.000
851.04	-0.000
851.21	-0.000
851.38	-0.000
851.55	-0.000
851.72	-0.000
851.90	-0.000
852.07	-0.000
852.24	-0.000
852.41	-0.000
852.59	-0.000
852.76	-0.000
852.93	-0.000
853.10	-0.000
853.28	-0.000
853.45	-0.000
853.62	-0.000
853.79	-0.000
853.96	-0.000
854.14	-0.000
854.31	-0.000
854.48	-0.000
854.65	-0.000
854.82	-0.000
855.00	-0.000
855.17	-0.000
855.34	-0.000
855.51	-0.000
855.68	-0.000
855.86	-0.000
856.03	-0.000
856.20	-0.000
856.37	-0.000
856.54	-0.000
856.72	-0.000
856.89	-0.000
857.06	-0.000
857.23	-0.000
857.40	-0.000
857.57	-0.000
857.75	-0.000
857.92	-0.000
858.09	-0.000
858.26	-0.000
858.43	-0.000
858.60	-0.000
858.78	-0.000
858.95	-0.000
859.12	-0.000
859.29	-0.000
859.46	-0.000
859.63	-0.000
859.81	-0.000
859.98	-0.000
860.15	-0.000
860.32	-0.000
860.49	-0.000
860.66	-0.000
860.83	-0.000
861.01	-0.000
861.18	-0.000
861.35	-0.000
861.52	-0.000
861.69	-0.000
861.86	-0.000
862.03	-0.000
862.21	-0.000
862.38	-0.000
862.55	-0.000
862.72	-0.000
862.89	-0.000
863.06	-0.000
863.23	-0.000
863.40	-0.000
863.58	-0.000
863.75	-0.000
863.92	-0.000
864.09	-0.000
864.26	-0.000
864.43	-0.000
864.60	-0.000
864.77	-0.000
864.94	-0.000
865.11	-0.000
865.29	-0.000
865.46	-0.000
865.63	-0.000
865.80	-0.000
865.97	-0.000
866.14	-0.000
866.31	-0.000
866.48	-0.000
866.65	-0.000
866.82	-0.000
866.99	-0.000
867.16	-0.000
867.34	-0.000
867.51	-0.000
867.68	-0.000
867.85	-0.000
868.02	-0.000
868.19	-0.000
868.36	-0.000
868.53	-0.000
868.70	-0.000
868.87	-0.000
869.04	-0.000
869.21	-0.000
869.38	-0.000
869.55	-0.000
869.72	-0.000
869.89	-0.000
870.06	-0.000
870.24	-0.000
870.41	-0.000
870.58	-0.000
870.75	-0.000
870.92	-0.000
871.09	-0.000
871.26	-0.000
871.43	-0.000
871.60	-0.000
871.77	-0.000
871.94	-0.000
872.11	-0.000
872.28	-0.000
872.45	-0.000
872.62	-0.000
872.79	-0.000
872.96	-0.000
873.13	-0.000
873.30	-0.000
873.47	-0.000
873.64	-0.000
873.81	-0.000
873.98	-0.000
874.15	-0.000
874.32	-0.000
874.49	-0.000
874.66	-0.000
874.83	-0.000
875.00	-0.000
875.17	-0.000
875.34	-0.000
875.51	-0.000
875.68	-0.000
875.85	-0.000
876.02	-0.000
876.19	-0.000
876.36	-0.000
876.53	-0.000
876.70	-0.000
876.87	-0.000
877.04	-0.000
877.21	-0.000
877.38	-0.000
877.55	-0.000
877.72	-0.000
877.89	-0.000
878.06	-0.000
878.23	-0.000
878.39	-0.000
878.56	-0.000
878.73	-0.000
878.90	-0.000
879.07	-0.000
879.24	-0.000
879.41	-0.000
879.58	-0.000
879.75	-0.000
879.92	-0.000
880.09	-0.000
880.26	-0.000
880.43	-0.000
880.60	-0.000
880.77	-0.000
880.94	-0.000
881.11	-0.000
881.27	-0.000
881.44	-0.000
881.61	-0.000
881.78	-0.000
881.95	-0.000
882.12	-0.000
882.29	-0.000
882.46	-0.000
882.63	-0.000
882.80	-0.000
882.97	-0.000
883.14	-0.000
883.30	-0.000
883.47	-0.000
883.64	-0.000
883.81	-0.000
883.98	-0.000
884.15	-0.000
884.32	-0.000
884.49	-0.000
884.66	-0.000
884.82	-0.000
884.99	-0.000
885.16	-0.000
885.33	-0.000
885.50	-0.000
885.67	-0.000
885.84	-0.000
886.01	-0.000
886.17	-0.000
886.34	-0.000
886.51	-0.000
886.68	-0.000
886.85	-0.000
887.02	-0.000
887.19	-0.000
887.36	-0.000
887.52	-0.000
887.69	-0.000
887.86	-0.000
888.03	-0.000
888.20	-0.000
888.37	-0.000
888.54	-0.000
888.70	-0.000
888.87	-0.000
889.04	-0.000
889.21	-0.000
889.38	-0.000
889.55	-0.000
889.71	-0.000
889.88	-0.000
890.05	-0.000
890.22	-0.000
890.39	-0.000
>>>>>End Processed Spectral Data<<<<<
