SpectraSuite Data File
++++++++++++++++++++++++++++++++++++
Date: Fri Jun 19 14:06:29 CEST 2015
User: introlabs
Dark Spectrum Present: Yes
Reference Spectrum Present: Yes
Number of Sampled Component Spectra: 1
Spectrometers: USB4H08886
Integration Time (usec): 745692 (USB4H08886)
Spectra Averaged: 5 (USB4H08886)
Boxcar Smoothing: 5 (USB4H08886)
Correct for Electrical Dark: Yes (USB4H08886)
Strobe/Lamp Enabled: No (USB4H08886)
Correct for Detector Non-linearity: Yes (USB4H08886)
Correct for Stray Light: Yes (USB4H08886)
Number of Pixels in Processed Spectrum: 3648
>>>>>Begin Processed Spectral Data<<<<<
178.14	-0.000
178.36	-0.000
178.57	-0.000
178.79	-0.000
179.01	-0.000
179.22	-0.000
179.44	-0.000
179.65	-0.000
179.87	-0.000
180.08	-0.000
180.30	-0.000
180.52	-0.000
180.73	-0.000
180.95	-0.000
181.16	-0.000
181.38	-0.000
181.59	-0.000
181.81	-0.000
182.03	-0.000
182.24	-0.000
182.46	-0.000
182.67	-0.000
182.89	-0.000
183.10	-0.000
183.32	-0.000
183.54	-0.000
183.75	-0.000
183.97	-0.000
184.18	-0.000
184.40	-0.000
184.61	-0.000
184.83	-0.000
185.04	-0.000
185.26	-0.000
185.48	-0.000
185.69	-0.000
185.91	-0.000
186.12	-0.000
186.34	-0.000
186.55	-0.000
186.77	-0.000
186.98	-0.000
187.20	-0.000
187.42	-0.000
187.63	-0.000
187.85	-0.000
188.06	-0.000
188.28	-0.000
188.49	-0.000
188.71	-0.000
188.92	-0.000
189.14	-0.000
189.36	-0.000
189.57	-0.000
189.79	-0.000
190.00	-0.000
190.22	-0.000
190.43	-0.000
190.65	-0.000
190.86	-0.000
191.08	-0.000
191.29	-0.000
191.51	-0.000
191.72	-0.000
191.94	-0.000
192.16	-0.000
192.37	-0.000
192.59	-0.000
192.80	-0.000
193.02	-0.000
193.23	-0.000
193.45	-0.000
193.66	-0.000
193.88	-0.000
194.09	-0.000
194.31	-0.000
194.52	-0.000
194.74	-0.000
194.95	-0.000
195.17	-0.000
195.38	-0.000
195.60	-0.000
195.81	-0.000
196.03	-0.000
196.25	-0.000
196.46	-0.000
196.68	-0.000
196.89	-0.000
197.11	-0.000
197.32	-0.000
197.54	-0.000
197.75	-0.000
197.97	-0.000
198.18	-0.000
198.40	-0.000
198.61	-0.000
198.83	-0.000
199.04	-0.000
199.26	-0.000
199.47	-0.000
199.69	-0.000
199.90	-0.000
200.12	-0.000
200.33	-0.000
200.55	-0.000
200.76	-0.000
200.98	-0.000
201.19	-0.000
201.41	-0.000
201.62	-0.000
201.84	-0.000
202.05	-0.000
202.27	-0.000
202.48	-0.000
202.70	-0.000
202.91	-0.000
203.13	-0.000
203.34	-0.000
203.56	-0.000
203.77	-0.000
203.99	-0.000
204.20	-0.000
204.42	-0.000
204.63	-0.000
204.85	-0.000
205.06	-0.000
205.28	-0.000
205.49	-0.000
205.71	-0.000
205.92	-0.000
206.14	-0.000
206.35	-0.000
206.56	-0.000
206.78	-0.000
206.99	-0.000
207.21	-0.000
207.42	-0.000
207.64	-0.000
207.85	-0.000
208.07	-0.000
208.28	-0.000
208.50	-0.000
208.71	-0.000
208.93	-0.000
209.14	-0.000
209.36	-0.000
209.57	-0.000
209.79	-0.000
210.00	-0.000
210.22	-0.000
210.43	-0.000
210.64	-0.000
210.86	-0.000
211.07	-0.000
211.29	-0.000
211.50	-0.000
211.72	-0.000
211.93	-0.000
212.15	-0.000
212.36	-0.000
212.58	-0.000
212.79	-0.000
213.01	-0.000
213.22	-0.000
213.43	-0.000
213.65	-0.000
213.86	-0.000
214.08	-0.000
214.29	-0.000
214.51	-0.000
214.72	-0.000
214.94	-0.000
215.15	-0.000
215.36	-0.000
215.58	-0.000
215.79	-0.000
216.01	-0.000
216.22	-0.000
216.44	-0.000
216.65	-0.000
216.87	-0.000
217.08	-0.000
217.29	-0.000
217.51	-0.000
217.72	-0.000
217.94	-0.000
218.15	-0.000
218.37	-0.000
218.58	-0.000
218.80	-0.000
219.01	-0.000
219.22	-0.000
219.44	-0.000
219.65	-0.000
219.87	-0.000
220.08	-0.000
220.30	-0.000
220.51	-0.000
220.72	-0.000
220.94	-0.000
221.15	-0.000
221.37	-0.000
221.58	-0.000
221.79	-0.000
222.01	-0.000
222.22	-0.000
222.44	-0.000
222.65	-0.000
222.87	-0.000
223.08	-0.000
223.29	-0.000
223.51	-0.000
223.72	-0.000
223.94	-0.000
224.15	-0.000
224.36	-0.000
224.58	-0.000
224.79	-0.000
225.01	-0.000
225.22	-0.000
225.44	-0.000
225.65	-0.000
225.86	-0.000
226.08	-0.000
226.29	-0.000
226.51	-0.000
226.72	-0.000
226.93	-0.000
227.15	-0.000
227.36	-0.000
227.58	-0.000
227.79	-0.000
228.00	-0.000
228.22	-0.000
228.43	-0.000
228.65	-0.000
228.86	-0.000
229.07	-0.000
229.29	-0.000
229.50	-0.000
229.72	-0.000
229.93	-0.000
230.14	-0.000
230.36	-0.000
230.57	-0.000
230.78	-0.000
231.00	-0.000
231.21	-0.000
231.43	-0.000
231.64	-0.000
231.85	-0.000
232.07	-0.000
232.28	-0.000
232.50	-0.000
232.71	-0.000
232.92	-0.000
233.14	-0.000
233.35	-0.000
233.56	-0.000
233.78	-0.000
233.99	-0.000
234.21	-0.000
234.42	-0.000
234.63	-0.000
234.85	-0.000
235.06	-0.000
235.27	-0.000
235.49	-0.000
235.70	-0.000
235.91	-0.000
236.13	-0.000
236.34	-0.000
236.56	-0.000
236.77	-0.000
236.98	-0.000
237.20	-0.000
237.41	-0.000
237.62	-0.000
237.84	-0.000
238.05	-0.000
238.26	-0.000
238.48	-0.000
238.69	-0.000
238.91	-0.000
239.12	-0.000
239.33	-0.000
239.55	-0.000
239.76	-0.000
239.97	-0.000
240.19	-0.000
240.40	-0.000
240.61	-0.000
240.83	-0.000
241.04	-0.000
241.25	-0.000
241.47	-0.000
241.68	-0.000
241.89	-0.000
242.11	-0.000
242.32	-0.000
242.53	-0.000
242.75	-0.000
242.96	-0.000
243.17	-0.000
243.39	-0.000
243.60	-0.000
243.81	-0.000
244.03	-0.000
244.24	-0.000
244.45	-0.000
244.67	-0.000
244.88	-0.000
245.09	-0.000
245.31	-0.000
245.52	-0.000
245.73	-0.000
245.95	-0.000
246.16	-0.000
246.37	-0.000
246.59	-0.000
246.80	-0.000
247.01	-0.000
247.23	-0.000
247.44	-0.000
247.65	-0.000
247.87	-0.000
248.08	-0.000
248.29	-0.000
248.51	-0.000
248.72	-0.000
248.93	-0.000
249.15	-0.000
249.36	-0.000
249.57	-0.000
249.78	-0.000
250.00	-0.000
250.21	-0.000
250.42	-0.000
250.64	-0.000
250.85	-0.000
251.06	-0.000
251.28	-0.000
251.49	-0.000
251.70	-0.000
251.92	-0.000
252.13	-0.000
252.34	-0.000
252.55	-0.000
252.77	-0.000
252.98	-0.000
253.19	-0.000
253.41	-0.000
253.62	-0.000
253.83	-0.000
254.05	-0.000
254.26	-0.000
254.47	-0.000
254.68	-0.000
254.90	-0.000
255.11	-0.000
255.32	-0.000
255.54	-0.000
255.75	-0.000
255.96	-0.000
256.17	-0.000
256.39	-0.000
256.60	-0.000
256.81	-0.000
257.03	-0.000
257.24	-0.000
257.45	-0.000
257.66	-0.000
257.88	-0.000
258.09	-0.000
258.30	-0.000
258.51	-0.000
258.73	-0.000
258.94	-0.000
259.15	-0.000
259.37	-0.000
259.58	-0.000
259.79	-0.000
260.00	-0.000
260.22	-0.000
260.43	-0.000
260.64	-0.000
260.85	-0.000
261.07	-0.000
261.28	-0.000
261.49	-0.000
261.71	-0.000
261.92	-0.000
262.13	-0.000
262.34	-0.000
262.56	-0.000
262.77	-0.000
262.98	-0.000
263.19	-0.000
263.41	-0.000
263.62	-0.000
263.83	-0.000
264.04	-0.000
264.26	-0.000
264.47	-0.000
264.68	-0.000
264.89	-0.000
265.11	-0.000
265.32	-0.000
265.53	-0.000
265.74	-0.000
265.96	-0.000
266.17	-0.000
266.38	-0.000
266.59	-0.000
266.81	-0.000
267.02	-0.000
267.23	-0.000
267.44	-0.000
267.65	-0.000
267.87	-0.000
268.08	-0.000
268.29	-0.000
268.50	-0.000
268.72	-0.000
268.93	-0.000
269.14	-0.000
269.35	-0.000
269.57	-0.000
269.78	-0.000
269.99	-0.000
270.20	-0.000
270.41	-0.000
270.63	-0.000
270.84	-0.000
271.05	-0.000
271.26	-0.000
271.48	-0.000
271.69	-0.000
271.90	-0.000
272.11	-0.000
272.32	-0.000
272.54	-0.000
272.75	-0.000
272.96	-0.000
273.17	-0.000
273.39	-0.000
273.60	-0.000
273.81	-0.000
274.02	-0.000
274.23	-0.000
274.45	-0.000
274.66	-0.000
274.87	-0.000
275.08	-0.000
275.29	-0.000
275.51	-0.000
275.72	-0.000
275.93	-0.000
276.14	-0.000
276.35	-0.000
276.57	-0.000
276.78	-0.000
276.99	-0.000
277.20	-0.000
277.41	-0.000
277.63	-0.000
277.84	-0.000
278.05	-0.000
278.26	-0.000
278.47	-0.000
278.69	-0.000
278.90	-0.000
279.11	-0.000
279.32	-0.000
279.53	-0.000
279.74	-0.000
279.96	-0.000
280.17	-0.000
280.38	-0.000
280.59	-0.000
280.80	-0.000
281.02	-0.000
281.23	-0.000
281.44	-0.000
281.65	-0.000
281.86	-0.000
282.07	-0.000
282.29	-0.000
282.50	-0.000
282.71	-0.000
282.92	-0.000
283.13	-0.000
283.35	-0.000
283.56	-0.000
283.77	-0.000
283.98	-0.000
284.19	-0.000
284.40	-0.000
284.62	-0.000
284.83	-0.000
285.04	-0.000
285.25	-0.000
285.46	-0.000
285.67	-0.000
285.88	-0.000
286.10	-0.000
286.31	-0.000
286.52	-0.000
286.73	-0.000
286.94	-0.000
287.15	-0.000
287.37	-0.000
287.58	-0.000
287.79	-0.000
288.00	-0.000
288.21	-0.000
288.42	-0.000
288.63	-0.000
288.85	-0.000
289.06	-0.000
289.27	-0.000
289.48	-0.000
289.69	-0.000
289.90	-0.000
290.11	-0.000
290.33	-0.000
290.54	-0.000
290.75	-0.000
290.96	-0.000
291.17	-0.000
291.38	-0.000
291.59	-0.000
291.81	-0.000
292.02	-0.000
292.23	-0.000
292.44	-0.000
292.65	-0.000
292.86	-0.000
293.07	-0.000
293.28	-0.000
293.50	-0.000
293.71	-0.000
293.92	-0.000
294.13	-0.000
294.34	-0.000
294.55	-0.000
294.76	-0.000
294.97	-0.000
295.19	-0.000
295.40	-0.000
295.61	-0.000
295.82	-0.000
296.03	-0.000
296.24	-0.000
296.45	-0.000
296.66	2.156
296.87	2.227
297.09	2.519
297.30	-0.000
297.51	2.014
297.72	1.930
297.93	2.092
298.14	2.011
298.35	1.938
298.56	1.896
298.77	2.136
298.99	2.080
299.20	2.000
299.41	1.947
299.62	1.871
299.83	1.860
300.04	1.755
300.25	1.732
300.46	1.788
300.67	1.730
300.88	1.659
301.10	1.651
301.31	1.743
301.52	1.652
301.73	1.577
301.94	1.576
302.15	1.595
302.36	1.535
302.57	1.466
302.78	1.473
302.99	1.533
303.20	1.557
303.41	1.456
303.63	1.436
303.84	1.451
304.05	1.450
304.26	1.383
304.47	1.387
304.68	1.392
304.89	1.380
305.10	1.336
305.31	1.320
305.52	1.369
305.73	1.360
305.94	1.314
306.15	1.304
306.37	1.327
306.58	1.334
306.79	1.301
307.00	1.323
307.21	1.369
307.42	1.360
307.63	1.316
307.84	1.279
308.05	1.320
308.26	1.320
308.47	1.292
308.68	1.285
308.89	1.283
309.10	1.280
309.31	1.237
309.52	1.225
309.73	1.241
309.95	1.236
310.16	1.204
310.37	1.188
310.58	1.206
310.79	1.209
311.00	1.203
311.21	1.206
311.42	1.208
311.63	1.204
311.84	1.184
312.05	1.182
312.26	1.205
312.47	1.218
312.68	1.194
312.89	1.176
313.10	1.179
313.31	1.154
313.52	1.156
313.73	1.155
313.94	1.157
314.15	1.140
314.36	1.116
314.57	1.109
314.78	1.096
314.99	1.091
315.21	1.077
315.42	1.080
315.63	1.091
315.84	1.068
316.05	1.054
316.26	1.062
316.47	1.079
316.68	1.078
316.89	1.057
317.10	1.078
317.31	1.084
317.52	1.087
317.73	1.067
317.94	1.069
318.15	1.115
318.36	1.118
318.57	1.099
318.78	1.086
318.99	1.121
319.20	1.119
319.41	1.083
319.62	1.083
319.83	1.096
320.04	1.090
320.25	1.074
320.46	1.039
320.67	1.039
320.88	1.035
321.09	1.022
321.30	1.007
321.51	1.023
321.72	1.019
321.93	1.004
322.14	0.998
322.35	1.026
322.56	1.027
322.77	1.014
322.98	1.025
323.19	1.032
323.40	1.039
323.61	1.015
323.82	1.010
324.03	1.016
324.24	1.011
324.45	0.997
324.66	0.977
324.87	0.973
325.08	0.973
325.29	0.954
325.50	0.948
325.71	0.953
325.92	0.961
326.13	0.947
326.34	0.948
326.55	0.958
326.76	0.957
326.97	0.947
327.18	0.942
327.39	0.968
327.60	0.968
327.80	0.969
328.01	0.968
328.22	0.968
328.43	0.971
328.64	0.960
328.85	0.962
329.06	0.964
329.27	0.964
329.48	0.961
329.69	0.941
329.90	0.952
330.11	0.943
330.32	0.935
330.53	0.929
330.74	0.929
330.95	0.926
331.16	0.912
331.37	0.919
331.58	0.920
331.79	0.918
332.00	0.909
332.21	0.902
332.42	0.907
332.63	0.899
332.83	0.894
333.04	0.897
333.25	0.911
333.46	0.909
333.67	0.896
333.88	0.898
334.09	0.907
334.30	0.903
334.51	0.895
334.72	0.890
334.93	0.893
335.14	0.893
335.35	0.884
335.56	0.879
335.77	0.887
335.98	0.885
336.18	0.878
336.39	0.871
336.60	0.877
336.81	0.874
337.02	0.873
337.23	0.877
337.44	0.880
337.65	0.882
337.86	0.872
338.07	0.866
338.28	0.871
338.49	0.869
338.70	0.863
338.91	0.869
339.11	0.876
339.32	0.872
339.53	0.861
339.74	0.857
339.95	0.855
340.16	0.853
340.37	0.846
340.58	0.845
340.79	0.850
341.00	0.849
341.21	0.838
341.41	0.839
341.62	0.841
341.83	0.842
342.04	0.837
342.25	0.847
342.46	0.852
342.67	0.851
342.88	0.844
343.09	0.842
343.30	0.850
343.50	0.853
343.71	0.842
343.92	0.841
344.13	0.846
344.34	0.845
344.55	0.829
344.76	0.827
344.97	0.830
345.18	0.827
345.38	0.824
345.59	0.819
345.80	0.818
346.01	0.817
346.22	0.812
346.43	0.806
346.64	0.814
346.85	0.814
347.06	0.807
347.26	0.808
347.47	0.813
347.68	0.810
347.89	0.805
348.10	0.800
348.31	0.806
348.52	0.807
348.73	0.805
348.93	0.802
349.14	0.805
349.35	0.805
349.56	0.798
349.77	0.793
349.98	0.798
350.19	0.796
350.39	0.791
350.60	0.787
350.81	0.802
351.02	0.801
351.23	0.795
351.44	0.797
351.65	0.799
351.86	0.797
352.06	0.797
352.27	0.796
352.48	0.798
352.69	0.797
352.90	0.792
353.11	0.778
353.31	0.786
353.52	0.783
353.73	0.775
353.94	0.776
354.15	0.782
354.36	0.781
354.57	0.774
354.77	0.776
354.98	0.776
355.19	0.776
355.40	0.775
355.61	0.781
355.82	0.786
356.02	0.785
356.23	0.779
356.44	0.781
356.65	0.784
356.86	0.783
357.07	0.776
357.27	0.779
357.48	0.781
357.69	0.776
357.90	0.760
358.11	0.757
358.32	0.762
358.52	0.765
358.73	0.755
358.94	0.758
359.15	0.764
359.36	0.764
359.56	0.759
359.77	0.757
359.98	0.764
360.19	0.764
360.40	0.760
360.61	0.760
360.81	0.758
361.02	0.760
361.23	0.751
361.44	0.749
361.65	0.750
361.85	0.749
362.06	0.748
362.27	0.750
362.48	0.751
362.69	0.753
362.89	0.747
363.10	0.749
363.31	0.753
363.52	0.756
363.73	0.751
363.93	0.751
364.14	0.754
364.35	0.755
364.56	0.745
364.77	0.746
364.97	0.748
365.18	0.748
365.39	0.742
365.60	0.738
365.81	0.740
366.01	0.740
366.22	0.737
366.43	0.736
366.64	0.737
366.84	0.743
367.05	0.740
367.26	0.739
367.47	0.741
367.68	0.742
367.88	0.739
368.09	0.737
368.30	0.739
368.51	0.739
368.71	0.738
368.92	0.743
369.13	0.741
369.34	0.740
369.55	0.740
369.75	0.740
369.96	0.747
370.17	0.745
370.38	0.742
370.58	0.743
370.79	0.748
371.00	0.746
371.21	0.738
371.41	0.743
371.62	0.747
371.83	0.743
372.04	0.740
372.24	0.733
372.45	0.735
372.66	0.735
372.87	0.731
373.07	0.728
373.28	0.729
373.49	0.733
373.70	0.723
373.90	0.722
374.11	0.731
374.32	0.731
374.53	0.730
374.73	0.731
374.94	0.733
375.15	0.733
375.36	0.730
375.56	0.738
375.77	0.738
375.98	0.739
376.19	0.736
376.39	0.730
376.60	0.734
376.81	0.734
377.02	0.731
377.22	0.730
377.43	0.730
377.64	0.731
377.84	0.722
378.05	0.726
378.26	0.732
378.47	0.732
378.67	0.728
378.88	0.725
379.09	0.726
379.30	0.726
379.50	0.723
379.71	0.725
379.92	0.728
380.12	0.727
380.33	0.719
380.54	0.715
380.75	0.722
380.95	0.723
381.16	0.720
381.37	0.720
381.57	0.722
381.78	0.722
381.99	0.722
382.20	0.722
382.40	0.725
382.61	0.725
382.82	0.722
383.02	0.715
383.23	0.719
383.44	0.718
383.64	0.716
383.85	0.719
384.06	0.722
384.27	0.719
384.47	0.716
384.68	0.716
384.89	0.722
385.09	0.721
385.30	0.721
385.51	0.719
385.71	0.724
385.92	0.725
386.13	0.723
386.33	0.724
386.54	0.725
386.75	0.724
386.95	0.720
387.16	0.715
387.37	0.718
387.58	0.718
387.78	0.716
387.99	0.713
388.20	0.715
388.40	0.712
388.61	0.708
388.82	0.712
389.02	0.714
389.23	0.715
389.44	0.713
389.64	0.714
389.85	0.725
390.06	0.724
390.26	0.725
390.47	0.724
390.68	0.728
390.88	0.726
391.09	0.722
391.30	0.721
391.50	0.721
391.71	0.721
391.92	0.718
392.12	0.710
392.33	0.711
392.53	0.711
392.74	0.711
392.95	0.709
393.15	0.711
393.36	0.713
393.57	0.710
393.77	0.713
393.98	0.715
394.19	0.715
394.39	0.714
394.60	0.715
394.81	0.717
395.01	0.715
395.22	0.714
395.43	0.715
395.63	0.719
395.84	0.722
396.04	0.718
396.25	0.720
396.46	0.722
396.66	0.720
396.87	0.717
397.08	0.714
397.28	0.715
397.49	0.716
397.69	0.712
397.90	0.707
398.11	0.708
398.31	0.709
398.52	0.705
398.73	0.706
398.93	0.706
399.14	0.705
399.34	0.704
399.55	0.705
399.76	0.706
399.96	0.707
400.17	0.706
400.37	0.704
400.58	0.711
400.79	0.713
400.99	0.709
401.20	0.715
401.41	0.718
401.61	0.719
401.82	0.724
402.02	0.723
402.23	0.724
402.44	0.724
402.64	0.723
402.85	0.718
403.05	0.717
403.26	0.717
403.47	0.711
403.67	0.709
403.88	0.710
404.08	0.704
404.29	0.702
404.50	0.702
404.70	0.702
404.91	0.702
405.11	0.698
405.32	0.698
405.52	0.699
405.73	0.698
405.94	0.696
406.14	0.699
406.35	0.701
406.55	0.700
406.76	0.698
406.97	0.699
407.17	0.701
407.38	0.702
407.58	0.700
407.79	0.702
407.99	0.705
408.20	0.706
408.41	0.702
408.61	0.699
408.82	0.701
409.02	0.701
409.23	0.699
409.43	0.698
409.64	0.699
409.84	0.699
410.05	0.696
410.26	0.694
410.46	0.694
410.67	0.693
410.87	0.694
411.08	0.696
411.28	0.697
411.49	0.698
411.69	0.696
411.90	0.697
412.11	0.698
412.31	0.699
412.52	0.698
412.72	0.698
412.93	0.699
413.13	0.698
413.34	0.694
413.54	0.695
413.75	0.697
413.95	0.696
414.16	0.693
414.37	0.695
414.57	0.696
414.78	0.698
414.98	0.697
415.19	0.699
415.39	0.696
415.60	0.698
415.80	0.698
416.01	0.696
416.21	0.699
416.42	0.700
416.62	0.695
416.83	0.695
417.03	0.694
417.24	0.694
417.44	0.692
417.65	0.692
417.86	0.693
418.06	0.691
418.27	0.689
418.47	0.690
418.68	0.690
418.88	0.690
419.09	0.689
419.29	0.689
419.50	0.690
419.70	0.689
419.91	0.687
420.11	0.685
420.32	0.688
420.52	0.687
420.73	0.686
420.93	0.687
421.14	0.689
421.34	0.688
421.55	0.684
421.75	0.684
421.96	0.685
422.16	0.685
422.37	0.685
422.57	0.682
422.78	0.683
422.98	0.680
423.19	0.678
423.39	0.676
423.60	0.680
423.80	0.681
424.01	0.681
424.21	0.683
424.42	0.684
424.62	0.684
424.83	0.683
425.03	0.684
425.23	0.686
425.44	0.686
425.64	0.686
425.85	0.684
426.05	0.686
426.26	0.686
426.46	0.682
426.67	0.681
426.87	0.686
427.08	0.686
427.28	0.684
427.49	0.685
427.69	0.685
427.90	0.684
428.10	0.681
428.31	0.681
428.51	0.683
428.71	0.681
428.92	0.682
429.12	0.679
429.33	0.680
429.53	0.684
429.74	0.688
429.94	0.688
430.15	0.688
430.35	0.688
430.56	0.685
430.76	0.684
430.96	0.685
431.17	0.683
431.37	0.680
431.58	0.679
431.78	0.676
431.99	0.669
432.19	0.671
432.40	0.673
432.60	0.674
432.80	0.676
433.01	0.674
433.21	0.674
433.42	0.677
433.62	0.677
433.83	0.675
434.03	0.678
434.23	0.681
434.44	0.680
434.64	0.678
434.85	0.683
435.05	0.684
435.26	0.684
435.46	0.683
435.66	0.683
435.87	0.683
436.07	0.683
436.28	0.679
436.48	0.676
436.69	0.676
436.89	0.676
437.09	0.669
437.30	0.669
437.50	0.669
437.71	0.680
437.91	0.678
438.11	0.679
438.32	0.684
438.52	0.685
438.73	0.684
438.93	0.682
439.13	0.682
439.34	0.686
439.54	0.683
439.75	0.683
439.95	0.674
440.15	0.678
440.36	0.677
440.56	0.674
440.77	0.674
440.97	0.674
441.17	0.673
441.38	0.673
441.58	0.671
441.79	0.671
441.99	0.669
442.19	0.668
442.40	0.666
442.60	0.666
442.81	0.663
443.01	0.664
443.21	0.664
443.42	0.664
443.62	0.662
443.82	0.662
444.03	0.664
444.23	0.664
444.44	0.664
444.64	0.663
444.84	0.665
445.05	0.664
445.25	0.662
445.45	0.663
445.66	0.665
445.86	0.665
446.06	0.666
446.27	0.665
446.47	0.668
446.68	0.666
446.88	0.664
447.08	0.664
447.29	0.666
447.49	0.666
447.69	0.665
447.90	0.664
448.10	0.668
448.30	0.665
448.51	0.667
448.71	0.664
448.91	0.667
449.12	0.666
449.32	0.668
449.52	0.666
449.73	0.670
449.93	0.669
450.14	0.670
450.34	0.668
450.54	0.671
450.75	0.669
450.95	0.668
451.15	0.667
451.36	0.669
451.56	0.666
451.76	0.665
451.97	0.662
452.17	0.662
452.37	0.660
452.58	0.657
452.78	0.656
452.98	0.659
453.19	0.659
453.39	0.659
453.59	0.658
453.79	0.659
454.00	0.660
454.20	0.659
454.40	0.660
454.61	0.662
454.81	0.663
455.01	0.661
455.22	0.662
455.42	0.664
455.62	0.662
455.83	0.662
456.03	0.665
456.23	0.666
456.44	0.667
456.64	0.667
456.84	0.666
457.04	0.667
457.25	0.666
457.45	0.662
457.65	0.661
457.86	0.662
458.06	0.661
458.26	0.656
458.47	0.656
458.67	0.657
458.87	0.656
459.07	0.654
459.28	0.656
459.48	0.658
459.68	0.659
459.89	0.658
460.09	0.656
460.29	0.658
460.49	0.660
460.70	0.659
460.90	0.659
461.10	0.660
461.31	0.659
461.51	0.656
461.71	0.657
461.91	0.658
462.12	0.658
462.32	0.657
462.52	0.658
462.72	0.661
462.93	0.661
463.13	0.659
463.33	0.660
463.53	0.662
463.74	0.661
463.94	0.658
464.14	0.658
464.35	0.659
464.55	0.659
464.75	0.657
464.95	0.654
465.16	0.656
465.36	0.656
465.56	0.655
465.76	0.654
465.97	0.655
466.17	0.656
466.37	0.654
466.57	0.655
466.78	0.655
466.98	0.655
467.18	0.653
467.38	0.652
467.59	0.653
467.79	0.655
467.99	0.654
468.19	0.654
468.39	0.657
468.60	0.657
468.80	0.655
469.00	0.657
469.20	0.658
469.41	0.658
469.61	0.658
469.81	0.658
470.01	0.658
470.22	0.659
470.42	0.657
470.62	0.654
470.82	0.656
471.02	0.656
471.23	0.654
471.43	0.654
471.63	0.657
471.83	0.656
472.04	0.654
472.24	0.652
472.44	0.657
472.64	0.657
472.84	0.655
473.05	0.654
473.25	0.657
473.45	0.656
473.65	0.655
473.85	0.655
474.06	0.656
474.26	0.656
474.46	0.657
474.66	0.654
474.86	0.655
475.07	0.655
475.27	0.653
475.47	0.651
475.67	0.651
475.87	0.653
476.08	0.650
476.28	0.651
476.48	0.653
476.68	0.651
476.88	0.649
477.09	0.650
477.29	0.652
477.49	0.652
477.69	0.651
477.89	0.651
478.09	0.651
478.30	0.653
478.50	0.650
478.70	0.650
478.90	0.650
479.10	0.652
479.31	0.652
479.51	0.651
479.71	0.652
479.91	0.653
480.11	0.651
480.31	0.651
480.52	0.650
480.72	0.650
480.92	0.648
481.12	0.647
481.32	0.644
481.52	0.643
481.72	0.642
481.93	0.646
482.13	0.647
482.33	0.647
482.53	0.645
482.73	0.646
482.93	0.647
483.14	0.647
483.34	0.646
483.54	0.647
483.74	0.646
483.94	0.645
484.14	0.641
484.34	0.641
484.55	0.642
484.75	0.641
484.95	0.639
485.15	0.639
485.35	0.639
485.55	0.639
485.75	0.637
485.96	0.637
486.16	0.638
486.36	0.637
486.56	0.636
486.76	0.635
486.96	0.636
487.16	0.635
487.36	0.634
487.57	0.633
487.77	0.634
487.97	0.634
488.17	0.633
488.37	0.632
488.57	0.633
488.77	0.633
488.97	0.632
489.18	0.631
489.38	0.634
489.58	0.634
489.78	0.633
489.98	0.633
490.18	0.633
490.38	0.634
490.58	0.632
490.78	0.633
490.98	0.634
491.19	0.634
491.39	0.633
491.59	0.633
491.79	0.636
491.99	0.636
492.19	0.636
492.39	0.639
492.59	0.639
492.79	0.641
492.99	0.641
493.20	0.642
493.40	0.642
493.60	0.644
493.80	0.642
494.00	0.640
494.20	0.640
494.40	0.640
494.60	0.637
494.80	0.641
495.00	0.641
495.20	0.639
495.40	0.638
495.61	0.639
495.81	0.639
496.01	0.642
496.21	0.643
496.41	0.643
496.61	0.643
496.81	0.643
497.01	0.638
497.21	0.637
497.41	0.637
497.61	0.636
497.81	0.634
498.01	0.634
498.21	0.633
498.41	0.630
498.61	0.630
498.82	0.632
499.02	0.634
499.22	0.635
499.42	0.634
499.62	0.636
499.82	0.637
500.02	0.638
500.22	0.637
500.42	0.639
500.62	0.639
500.82	0.639
501.02	0.637
501.22	0.638
501.42	0.638
501.62	0.640
501.82	0.639
502.02	0.640
502.22	0.640
502.42	0.642
502.62	0.639
502.82	0.639
503.02	0.640
503.22	0.640
503.42	0.638
503.63	0.638
503.83	0.635
504.03	0.634
504.23	0.632
504.43	0.632
504.63	0.634
504.83	0.634
505.03	0.633
505.23	0.634
505.43	0.636
505.63	0.637
505.83	0.637
506.03	0.638
506.23	0.641
506.43	0.641
506.63	0.640
506.83	0.638
507.03	0.639
507.23	0.639
507.43	0.637
507.63	0.637
507.83	0.638
508.03	0.638
508.23	0.637
508.43	0.636
508.63	0.638
508.83	0.638
509.03	0.639
509.23	0.639
509.43	0.640
509.63	0.641
509.83	0.639
510.03	0.642
510.23	0.643
510.43	0.643
510.63	0.643
510.83	0.643
511.03	0.645
511.23	0.643
511.43	0.642
511.63	0.644
511.83	0.646
512.03	0.646
512.22	0.642
512.42	0.642
512.62	0.643
512.82	0.643
513.02	0.642
513.22	0.641
513.42	0.643
513.62	0.645
513.82	0.643
514.02	0.643
514.22	0.644
514.42	0.645
514.62	0.645
514.82	0.645
515.02	0.647
515.22	0.651
515.42	0.649
515.62	0.652
515.82	0.651
516.02	0.652
516.22	0.652
516.42	0.653
516.62	0.656
516.82	0.657
517.01	0.655
517.21	0.654
517.41	0.658
517.61	0.658
517.81	0.655
518.01	0.655
518.21	0.654
518.41	0.653
518.61	0.652
518.81	0.652
519.01	0.653
519.21	0.653
519.41	0.651
519.61	0.646
519.81	0.649
520.00	0.649
520.20	0.650
520.40	0.653
520.60	0.654
520.80	0.652
521.00	0.653
521.20	0.654
521.40	0.659
521.60	0.660
521.80	0.658
522.00	0.658
522.20	0.660
522.39	0.659
522.59	0.656
522.79	0.657
522.99	0.660
523.19	0.658
523.39	0.655
523.59	0.653
523.79	0.656
523.99	0.658
524.19	0.657
524.38	0.656
524.58	0.658
524.78	0.659
524.98	0.657
525.18	0.659
525.38	0.660
525.58	0.661
525.78	0.659
525.98	0.657
526.18	0.657
526.37	0.657
526.57	0.658
526.77	0.657
526.97	0.658
527.17	0.659
527.37	0.655
527.57	0.657
527.77	0.659
527.96	0.659
528.16	0.658
528.36	0.659
528.56	0.661
528.76	0.659
528.96	0.658
529.16	0.659
529.36	0.662
529.55	0.662
529.75	0.658
529.95	0.659
530.15	0.661
530.35	0.663
530.55	0.660
530.75	0.661
530.94	0.663
531.14	0.663
531.34	0.662
531.54	0.659
531.74	0.663
531.94	0.666
532.13	0.664
532.33	0.665
532.53	0.664
532.73	0.665
532.93	0.662
533.13	0.663
533.33	0.664
533.52	0.664
533.72	0.667
533.92	0.664
534.12	0.662
534.32	0.663
534.52	0.661
534.71	0.662
534.91	0.665
535.11	0.667
535.31	0.665
535.51	0.667
535.71	0.668
535.90	0.666
536.10	0.668
536.30	0.670
536.50	0.671
536.70	0.671
536.89	0.670
537.09	0.669
537.29	0.670
537.49	0.672
537.69	0.669
537.89	0.670
538.08	0.669
538.28	0.667
538.48	0.667
538.68	0.669
538.88	0.671
539.07	0.670
539.27	0.668
539.47	0.668
539.67	0.668
539.87	0.669
540.06	0.667
540.26	0.668
540.46	0.671
540.66	0.668
540.86	0.666
541.05	0.665
541.25	0.667
541.45	0.668
541.65	0.666
541.84	0.668
542.04	0.669
542.24	0.670
542.44	0.668
542.64	0.670
542.83	0.672
543.03	0.672
543.23	0.670
543.43	0.671
543.62	0.672
543.82	0.672
544.02	0.670
544.22	0.670
544.42	0.674
544.61	0.674
544.81	0.671
545.01	0.670
545.21	0.673
545.40	0.674
545.60	0.671
545.80	0.675
546.00	0.675
546.19	0.674
546.39	0.673
546.59	0.670
546.79	0.671
546.98	0.671
547.18	0.670
547.38	0.670
547.58	0.673
547.77	0.673
547.97	0.669
548.17	0.671
548.37	0.672
548.56	0.672
548.76	0.671
548.96	0.673
549.16	0.676
549.35	0.676
549.55	0.673
549.75	0.674
549.95	0.678
550.14	0.678
550.34	0.676
550.54	0.681
550.73	0.685
550.93	0.685
551.13	0.682
551.33	0.681
551.52	0.682
551.72	0.683
551.92	0.680
552.12	0.680
552.31	0.681
552.51	0.682
552.71	0.676
552.90	0.676
553.10	0.677
553.30	0.677
553.50	0.677
553.69	0.678
553.89	0.679
554.09	0.679
554.28	0.676
554.48	0.677
554.68	0.679
554.87	0.680
555.07	0.677
555.27	0.677
555.47	0.679
555.66	0.679
555.86	0.677
556.06	0.679
556.25	0.680
556.45	0.688
556.65	0.687
556.84	0.690
557.04	0.693
557.24	0.695
557.43	0.694
557.63	0.697
557.83	0.700
558.02	0.700
558.22	0.704
558.42	0.704
558.61	0.696
558.81	0.697
559.01	0.693
559.21	0.693
559.40	0.694
559.60	0.695
559.80	0.690
559.99	0.691
560.19	0.694
560.39	0.688
560.58	0.686
560.78	0.686
560.97	0.690
561.17	0.689
561.37	0.686
561.56	0.686
561.76	0.688
561.96	0.688
562.15	0.685
562.35	0.687
562.55	0.688
562.74	0.687
562.94	0.686
563.14	0.684
563.33	0.685
563.53	0.685
563.73	0.683
563.92	0.685
564.12	0.687
564.31	0.689
564.51	0.687
564.71	0.689
564.90	0.692
565.10	0.693
565.30	0.696
565.49	0.697
565.69	0.699
565.89	0.700
566.08	0.697
566.28	0.699
566.47	0.700
566.67	0.698
566.87	0.695
567.06	0.697
567.26	0.703
567.46	0.698
567.65	0.697
567.85	0.698
568.04	0.701
568.24	0.699
568.44	0.696
568.63	0.695
568.83	0.696
569.02	0.695
569.22	0.690
569.42	0.685
569.61	0.687
569.81	0.686
570.00	0.684
570.20	0.685
570.40	0.686
570.59	0.686
570.79	0.684
570.98	0.683
571.18	0.684
571.38	0.684
571.57	0.682
571.77	0.680
571.96	0.684
572.16	0.681
572.35	0.676
572.55	0.677
572.75	0.675
572.94	0.675
573.14	0.673
573.33	0.673
573.53	0.674
573.73	0.673
573.92	0.671
574.12	0.669
574.31	0.672
574.51	0.673
574.70	0.670
574.90	0.671
575.09	0.673
575.29	0.673
575.49	0.670
575.68	0.671
575.88	0.672
576.07	0.674
576.27	0.672
576.46	0.670
576.66	0.670
576.86	0.669
577.05	0.666
577.25	0.665
577.44	0.667
577.64	0.667
577.83	0.664
578.03	0.665
578.22	0.664
578.42	0.664
578.61	0.662
578.81	0.663
579.00	0.664
579.20	0.664
579.40	0.662
579.59	0.661
579.79	0.662
579.98	0.661
580.18	0.661
580.37	0.661
580.57	0.663
580.76	0.668
580.96	0.666
581.15	0.667
581.35	0.669
581.54	0.669
581.74	0.668
581.93	0.670
582.13	0.671
582.32	0.668
582.52	0.666
582.71	0.666
582.91	0.662
583.10	0.662
583.30	0.660
583.49	0.659
583.69	0.662
583.88	0.663
584.08	0.662
584.27	0.665
584.47	0.668
584.66	0.669
584.86	0.668
585.05	0.670
585.25	0.672
585.44	0.672
585.64	0.670
585.83	0.667
586.03	0.668
586.22	0.666
586.42	0.662
586.61	0.664
586.81	0.666
587.00	0.666
587.20	0.664
587.39	0.665
587.59	0.667
587.78	0.669
587.98	0.670
588.17	0.671
588.37	0.673
588.56	0.675
588.76	0.670
588.95	0.671
589.15	0.675
589.34	0.678
589.54	0.676
589.73	0.677
589.92	0.680
590.12	0.680
590.31	0.678
590.51	0.683
590.70	0.685
590.90	0.685
591.09	0.683
591.29	0.681
591.48	0.681
591.68	0.682
591.87	0.680
592.06	0.679
592.26	0.682
592.45	0.681
592.65	0.674
592.84	0.674
593.04	0.677
593.23	0.679
593.43	0.676
593.62	0.676
593.81	0.676
594.01	0.675
594.20	0.673
594.40	0.672
594.59	0.674
594.79	0.675
594.98	0.674
595.17	0.673
595.37	0.674
595.56	0.676
595.76	0.675
595.95	0.677
596.14	0.680
596.34	0.681
596.53	0.679
596.73	0.680
596.92	0.681
597.12	0.684
597.31	0.684
597.50	0.683
597.70	0.686
597.89	0.685
598.09	0.682
598.28	0.684
598.47	0.686
598.67	0.685
598.86	0.681
599.06	0.683
599.25	0.683
599.44	0.681
599.64	0.678
599.83	0.675
600.03	0.678
600.22	0.678
600.41	0.677
600.61	0.675
600.80	0.678
601.00	0.678
601.19	0.674
601.38	0.672
601.58	0.675
601.77	0.676
601.96	0.679
602.16	0.679
602.35	0.689
602.55	0.686
602.74	0.688
602.93	0.689
603.13	0.694
603.32	0.695
603.51	0.695
603.71	0.698
603.90	0.700
604.09	0.700
604.29	0.697
604.48	0.691
604.68	0.693
604.87	0.691
605.06	0.687
605.26	0.683
605.45	0.685
605.64	0.684
605.84	0.679
606.03	0.678
606.22	0.677
606.42	0.677
606.61	0.673
606.80	0.673
607.00	0.675
607.19	0.676
607.38	0.675
607.58	0.676
607.77	0.679
607.96	0.679
608.16	0.677
608.35	0.681
608.54	0.684
608.74	0.687
608.93	0.692
609.12	0.695
609.32	0.698
609.51	0.701
609.70	0.700
609.90	0.702
610.09	0.707
610.28	0.713
610.48	0.706
610.67	0.708
610.86	0.709
611.06	0.703
611.25	0.700
611.44	0.701
611.64	0.700
611.83	0.703
612.02	0.699
612.21	0.697
612.41	0.696
612.60	0.695
612.79	0.692
612.99	0.692
613.18	0.694
613.37	0.692
613.57	0.690
613.76	0.692
613.95	0.689
614.14	0.689
614.34	0.685
614.53	0.686
614.72	0.689
614.92	0.689
615.11	0.686
615.30	0.682
615.49	0.684
615.69	0.686
615.88	0.682
616.07	0.684
616.26	0.687
616.46	0.689
616.65	0.686
616.84	0.685
617.04	0.686
617.23	0.690
617.42	0.691
617.61	0.695
617.81	0.696
618.00	0.697
618.19	0.696
618.38	0.699
618.58	0.703
618.77	0.704
618.96	0.703
619.15	0.705
619.35	0.707
619.54	0.708
619.73	0.704
619.92	0.707
620.12	0.711
620.31	0.712
620.50	0.707
620.69	0.707
620.89	0.710
621.08	0.710
621.27	0.710
621.46	0.709
621.66	0.713
621.85	0.712
622.04	0.707
622.23	0.708
622.43	0.708
622.62	0.708
622.81	0.707
623.00	0.706
623.19	0.710
623.39	0.709
623.58	0.705
623.77	0.703
623.96	0.707
624.16	0.706
624.35	0.700
624.54	0.703
624.73	0.707
624.92	0.704
625.12	0.702
625.31	0.703
625.50	0.706
625.69	0.707
625.88	0.704
626.08	0.703
626.27	0.706
626.46	0.707
626.65	0.704
626.84	0.705
627.04	0.711
627.23	0.710
627.42	0.706
627.61	0.707
627.80	0.711
628.00	0.710
628.19	0.708
628.38	0.712
628.57	0.715
628.76	0.713
628.96	0.710
629.15	0.710
629.34	0.714
629.53	0.715
629.72	0.709
629.91	0.709
630.11	0.714
630.30	0.713
630.49	0.716
630.68	0.717
630.87	0.721
631.06	0.722
631.26	0.717
631.45	0.719
631.64	0.728
631.83	0.730
632.02	0.727
632.21	0.726
632.41	0.734
632.60	0.728
632.79	0.727
632.98	0.727
633.17	0.729
633.36	0.730
633.55	0.726
633.75	0.722
633.94	0.724
634.13	0.725
634.32	0.722
634.51	0.716
634.70	0.719
634.89	0.718
635.09	0.714
635.28	0.714
635.47	0.716
635.66	0.719
635.85	0.715
636.04	0.716
636.23	0.721
636.43	0.723
636.62	0.722
636.81	0.721
637.00	0.725
637.19	0.728
637.38	0.725
637.57	0.725
637.76	0.727
637.95	0.728
638.15	0.724
638.34	0.720
638.53	0.723
638.72	0.724
638.91	0.721
639.10	0.719
639.29	0.718
639.48	0.719
639.67	0.719
639.87	0.717
640.06	0.723
640.25	0.722
640.44	0.723
640.63	0.724
640.82	0.726
641.01	0.726
641.20	0.724
641.39	0.727
641.58	0.729
641.78	0.727
641.97	0.723
642.16	0.738
642.35	0.739
642.54	0.738
642.73	0.733
642.92	0.732
643.11	0.736
643.30	0.737
643.49	0.731
643.68	0.734
643.87	0.736
644.06	0.737
644.25	0.715
644.45	0.717
644.64	0.718
644.83	0.718
645.02	0.714
645.21	0.713
645.40	0.715
645.59	0.714
645.78	0.709
645.97	0.711
646.16	0.712
646.35	0.712
646.54	0.709
646.73	0.710
646.92	0.712
647.11	0.711
647.30	0.707
647.49	0.708
647.68	0.708
647.88	0.706
648.07	0.699
648.26	0.703
648.45	0.705
648.64	0.701
648.83	0.699
649.02	0.701
649.21	0.712
649.40	0.711
649.59	0.707
649.78	0.708
649.97	0.723
650.16	0.723
650.35	0.716
650.54	0.718
650.73	0.728
650.92	0.725
651.11	0.718
651.30	0.716
651.49	0.720
651.68	0.721
651.87	0.717
652.06	0.706
652.25	0.710
652.44	0.713
652.63	0.710
652.82	0.708
653.01	0.707
653.20	0.704
653.39	0.692
653.58	0.690
653.77	0.689
653.96	0.685
654.15	0.676
654.34	0.673
654.53	0.669
654.72	0.663
654.91	0.654
655.10	0.650
655.29	0.649
655.48	0.647
655.67	0.641
655.86	0.638
656.05	0.636
656.24	0.636
656.43	0.631
656.62	0.630
656.81	0.630
657.00	0.628
657.19	0.625
657.38	0.625
657.57	0.625
657.76	0.628
657.95	0.626
658.14	0.630
658.33	0.633
658.51	0.638
658.70	0.638
658.89	0.640
659.08	0.649
659.27	0.657
659.46	0.657
659.65	0.663
659.84	0.667
660.03	0.670
660.22	0.671
660.41	0.676
660.60	0.675
660.79	0.676
660.98	0.682
661.17	0.682
661.36	0.681
661.55	0.682
661.74	0.680
661.92	0.683
662.11	0.686
662.30	0.684
662.49	0.677
662.68	0.676
662.87	0.680
663.06	0.674
663.25	0.674
663.44	0.675
663.63	0.676
663.82	0.675
664.01	0.670
664.20	0.668
664.38	0.669
664.57	0.669
664.76	0.668
664.95	0.668
665.14	0.672
665.33	0.668
665.52	0.675
665.71	0.679
665.90	0.678
666.09	0.678
666.28	0.676
666.46	0.675
666.65	0.677
666.84	0.675
667.03	0.669
667.22	0.668
667.41	0.671
667.60	0.660
667.79	0.652
667.98	0.655
668.16	0.657
668.35	0.656
668.54	0.653
668.73	0.653
668.92	0.654
669.11	0.653
669.30	0.647
669.49	0.644
669.67	0.646
669.86	0.648
670.05	0.645
670.24	0.642
670.43	0.640
670.62	0.638
670.81	0.633
671.00	0.635
671.18	0.635
671.37	0.634
671.56	0.632
671.75	0.632
671.94	0.629
672.13	0.626
672.32	0.622
672.50	0.622
672.69	0.622
672.88	0.623
673.07	0.618
673.26	0.620
673.45	0.621
673.63	0.621
673.82	0.617
674.01	0.619
674.20	0.619
674.39	0.618
674.58	0.618
674.76	0.618
674.95	0.616
675.14	0.615
675.33	0.611
675.52	0.609
675.71	0.610
675.89	0.609
676.08	0.605
676.27	0.606
676.46	0.606
676.65	0.606
676.84	0.605
677.02	0.606
677.21	0.609
677.40	0.607
677.59	0.605
677.78	0.605
677.96	0.608
678.15	0.607
678.34	0.604
678.53	0.605
678.72	0.605
678.90	0.601
679.09	0.597
679.28	0.594
679.47	0.594
679.66	0.594
679.84	0.590
680.03	0.587
680.22	0.586
680.41	0.588
680.60	0.584
680.78	0.583
680.97	0.586
681.16	0.586
681.35	0.585
681.53	0.584
681.72	0.585
681.91	0.587
682.10	0.586
682.29	0.588
682.47	0.586
682.66	0.585
682.85	0.584
683.04	0.582
683.22	0.582
683.41	0.583
683.60	0.582
683.79	0.583
683.97	0.583
684.16	0.582
684.35	0.578
684.54	0.580
684.72	0.580
684.91	0.581
685.10	0.580
685.29	0.581
685.47	0.578
685.66	0.578
685.85	0.574
686.04	0.573
686.22	0.575
686.41	0.578
686.60	0.574
686.79	0.577
686.97	0.578
687.16	0.579
687.35	0.576
687.54	0.580
687.72	0.583
687.91	0.583
688.10	0.585
688.29	0.584
688.47	0.583
688.66	0.583
688.85	0.579
689.03	0.576
689.22	0.581
689.41	0.581
689.60	0.576
689.78	0.574
689.97	0.575
690.16	0.573
690.34	0.569
690.53	0.569
690.72	0.569
690.91	0.567
691.09	0.565
691.28	0.559
691.47	0.557
691.65	0.556
691.84	0.553
692.03	0.552
692.21	0.549
692.40	0.549
692.59	0.546
692.77	0.545
692.96	0.546
693.15	0.547
693.34	0.545
693.52	0.546
693.71	0.547
693.90	0.549
694.08	0.549
694.27	0.550
694.46	0.560
694.64	0.561
694.83	0.560
695.02	0.559
695.20	0.559
695.39	0.559
695.58	0.558
695.76	0.558
695.95	0.557
696.14	0.557
696.32	0.554
696.51	0.545
696.70	0.545
696.88	0.546
697.07	0.544
697.26	0.545
697.44	0.546
697.63	0.546
697.81	0.544
698.00	0.543
698.19	0.543
698.37	0.542
698.56	0.541
698.75	0.541
698.93	0.541
699.12	0.541
699.31	0.539
699.49	0.539
699.68	0.540
699.87	0.542
700.05	0.542
700.24	0.541
700.42	0.543
700.61	0.543
700.80	0.541
700.98	0.542
701.17	0.543
701.36	0.542
701.54	0.542
701.73	0.542
701.91	0.540
702.10	0.539
702.29	0.538
702.47	0.536
702.66	0.538
702.84	0.539
703.03	0.538
703.22	0.540
703.40	0.540
703.59	0.541
703.77	0.541
703.96	0.541
704.15	0.542
704.33	0.542
704.52	0.541
704.70	0.541
704.89	0.540
705.08	0.538
705.26	0.534
705.45	0.533
705.63	0.533
705.82	0.530
706.00	0.528
706.19	0.527
706.38	0.528
706.56	0.527
706.75	0.524
706.93	0.523
707.12	0.525
707.30	0.525
707.49	0.523
707.68	0.521
707.86	0.521
708.05	0.521
708.23	0.517
708.42	0.518
708.60	0.521
708.79	0.521
708.98	0.519
709.16	0.518
709.35	0.521
709.53	0.525
709.72	0.524
709.90	0.526
710.09	0.528
710.27	0.530
710.46	0.534
710.64	0.532
710.83	0.535
711.02	0.537
711.20	0.535
711.39	0.533
711.57	0.530
711.76	0.530
711.94	0.528
712.13	0.529
712.31	0.529
712.50	0.524
712.68	0.522
712.87	0.522
713.05	0.523
713.24	0.524
713.42	0.523
713.61	0.524
713.79	0.525
713.98	0.526
714.16	0.527
714.35	0.526
714.54	0.528
714.72	0.527
714.91	0.525
715.09	0.532
715.28	0.534
715.46	0.534
715.65	0.532
715.83	0.532
716.02	0.535
716.20	0.531
716.39	0.530
716.57	0.531
716.76	0.534
716.94	0.535
717.12	0.527
717.31	0.528
717.49	0.531
717.68	0.533
717.86	0.532
718.05	0.533
718.23	0.536
718.42	0.539
718.60	0.540
718.79	0.547
718.97	0.550
719.16	0.551
719.34	0.548
719.53	0.547
719.71	0.547
719.90	0.549
720.08	0.546
720.27	0.546
720.45	0.547
720.63	0.545
720.82	0.539
721.00	0.542
721.19	0.546
721.37	0.545
721.56	0.545
721.74	0.548
721.93	0.557
722.11	0.564
722.30	0.563
722.48	0.568
722.66	0.569
722.85	0.569
723.03	0.568
723.22	0.567
723.40	0.570
723.59	0.570
723.77	0.573
723.95	0.567
724.14	0.568
724.32	0.570
724.51	0.569
724.69	0.571
724.88	0.571
725.06	0.569
725.24	0.571
725.43	0.572
725.61	0.575
725.80	0.569
725.98	0.568
726.16	0.565
726.35	0.571
726.53	0.571
726.72	0.570
726.90	0.580
727.09	0.581
727.27	0.586
727.45	0.583
727.64	0.592
727.82	0.602
728.01	0.606
728.19	0.603
728.37	0.609
728.56	0.614
728.74	0.621
728.92	0.610
729.11	0.612
729.29	0.611
729.48	0.614
729.66	0.604
729.84	0.603
730.03	0.607
730.21	0.609
730.40	0.598
730.58	0.598
730.76	0.598
730.95	0.600
731.13	0.600
731.31	0.614
731.50	0.623
731.68	0.628
731.86	0.625
732.05	0.639
732.23	0.643
732.42	0.648
732.60	0.653
732.78	0.659
732.97	0.678
733.15	0.684
733.33	0.673
733.52	0.680
733.70	0.691
733.88	0.701
734.07	0.686
734.25	0.713
734.43	0.721
734.62	0.723
734.80	0.718
734.98	0.707
735.17	0.716
735.35	0.723
735.53	0.712
735.72	0.715
735.90	0.737
736.08	0.758
736.27	0.734
736.45	0.744
736.63	0.760
736.82	0.771
737.00	0.772
737.18	0.784
737.37	0.819
737.55	0.843
737.73	0.834
737.92	0.840
738.10	0.840
738.28	0.864
738.46	0.850
738.65	0.862
738.83	0.886
739.01	0.948
739.20	0.937
739.38	0.918
739.56	0.911
739.75	0.922
739.93	0.883
740.11	0.907
740.29	0.907
740.48	0.918
740.66	0.895
740.84	0.893
741.03	0.857
741.21	0.867
741.39	0.846
741.57	0.859
741.76	0.877
741.94	0.885
742.12	0.846
742.31	0.853
742.49	0.873
742.67	0.899
742.85	0.910
743.04	0.915
743.22	0.929
743.40	0.989
743.58	0.972
743.77	0.993
743.95	1.039
744.13	1.100
744.31	1.081
744.50	1.074
744.68	1.071
744.86	1.036
745.04	1.049
745.23	1.130
745.41	1.112
745.59	1.123
745.77	1.080
745.96	1.062
746.14	1.078
746.32	1.070
746.50	1.062
746.69	1.047
746.87	1.073
747.05	1.048
747.23	0.956
747.42	0.936
747.60	0.964
747.78	0.964
747.96	0.998
748.14	0.944
748.33	0.980
748.51	0.973
748.69	0.966
748.87	0.992
749.06	0.997
749.24	0.997
749.42	0.980
749.60	0.962
749.78	0.975
749.97	0.922
750.15	0.915
750.33	0.914
750.51	0.946
750.69	0.951
750.88	0.955
751.06	0.961
751.24	0.994
751.42	0.983
751.60	0.973
751.79	1.060
751.97	1.122
752.15	1.120
752.33	1.072
752.51	1.150
752.69	1.174
752.88	1.126
753.06	1.186
753.24	1.151
753.42	1.204
753.60	1.449
753.78	1.222
753.97	1.243
754.15	1.267
754.33	1.320
754.51	1.148
754.69	1.127
754.87	1.173
755.06	1.077
755.24	1.073
755.42	1.074
755.60	0.956
755.78	0.969
755.96	0.906
756.15	0.908
756.33	0.910
756.51	0.928
756.69	0.911
756.87	0.872
757.05	0.898
757.23	0.880
757.42	0.844
757.60	0.844
757.78	0.833
757.96	0.832
758.14	0.813
758.32	0.800
758.50	0.816
758.69	0.812
758.87	0.803
759.05	0.804
759.23	0.817
759.41	0.818
759.59	0.810
759.77	0.833
759.95	0.862
760.13	0.916
760.32	0.912
760.50	0.909
760.68	0.934
760.86	0.935
761.04	0.907
761.22	0.912
761.40	0.970
761.58	0.966
761.76	0.930
761.95	0.910
762.13	0.860
762.31	0.857
762.49	0.818
762.67	0.841
762.85	0.855
763.03	0.850
763.21	0.829
763.39	0.807
763.57	0.812
763.75	0.810
763.94	0.795
764.12	0.798
764.30	0.829
764.48	0.836
764.66	0.792
764.84	0.789
765.02	0.829
765.20	0.836
765.38	0.814
765.56	0.820
765.74	0.866
765.92	0.865
766.10	0.870
766.28	0.861
766.46	0.891
766.65	0.894
766.83	0.882
767.01	0.860
767.19	0.868
767.37	0.871
767.55	0.855
767.73	0.828
767.91	0.830
768.09	0.817
768.27	0.808
768.45	0.797
768.63	0.801
768.81	0.804
768.99	0.781
769.17	0.805
769.35	0.820
769.53	0.818
769.71	0.799
769.89	0.810
770.07	0.818
770.25	0.800
770.43	0.777
770.61	0.805
770.79	0.815
770.97	0.824
771.15	0.791
771.33	0.796
771.51	0.799
771.69	0.809
771.87	0.814
772.05	0.825
772.24	0.830
772.42	0.841
772.60	0.812
772.78	0.873
772.96	0.904
773.14	0.900
773.32	0.872
773.49	0.881
773.67	0.882
773.85	0.864
774.03	0.845
774.21	0.883
774.39	0.898
774.57	0.927
774.75	0.845
774.93	0.837
775.11	0.863
775.29	0.870
775.47	0.870
775.65	0.878
775.83	0.896
776.01	0.923
776.19	0.868
776.37	0.868
776.55	0.870
776.73	0.865
776.91	0.863
777.09	0.844
777.27	0.844
777.45	0.833
777.63	0.807
777.81	0.805
777.99	0.791
778.17	0.788
778.35	0.765
778.53	0.752
778.71	0.759
778.89	0.743
779.07	0.732
779.24	0.734
779.42	0.736
779.60	0.757
779.78	0.750
779.96	0.754
780.14	0.764
780.32	0.788
780.50	0.767
780.68	0.767
780.86	0.761
781.04	0.778
781.22	0.784
781.40	0.794
781.58	0.786
781.75	0.777
781.93	0.760
782.11	0.760
782.29	0.744
782.47	0.744
782.65	0.730
782.83	0.760
783.01	0.752
783.19	0.747
783.37	0.731
783.55	0.733
783.72	0.754
783.90	0.763
784.08	0.753
784.26	0.766
784.44	0.787
784.62	0.791
784.80	0.754
784.98	0.761
785.16	0.767
785.33	0.783
785.51	0.765
785.69	0.752
785.87	0.754
786.05	0.766
786.23	0.760
786.41	0.758
786.59	0.764
786.77	0.760
786.94	0.745
787.12	0.746
787.30	0.747
787.48	0.746
787.66	0.733
787.84	0.732
788.02	0.722
788.19	0.719
788.37	0.705
788.55	0.707
788.73	0.712
788.91	0.706
789.09	0.689
789.27	0.679
789.44	0.693
789.62	0.696
789.80	0.706
789.98	0.731
790.16	0.718
790.34	0.714
790.51	0.700
790.69	0.720
790.87	0.725
791.05	0.724
791.23	0.716
791.41	0.714
791.58	0.724
791.76	0.701
791.94	0.671
792.12	0.680
792.30	0.682
792.48	0.680
792.65	0.674
792.83	0.683
793.01	0.690
793.19	0.689
793.37	0.673
793.54	0.670
793.72	0.682
793.90	0.680
794.08	0.668
794.26	0.668
794.43	0.677
794.61	0.657
794.79	0.644
794.97	0.643
795.15	0.647
795.32	0.652
795.50	0.640
795.68	0.633
795.86	0.637
796.04	0.639
796.21	0.634
796.39	0.632
796.57	0.646
796.75	0.657
796.92	0.656
797.10	0.663
797.28	0.667
797.46	0.670
797.64	0.673
797.81	0.682
797.99	0.687
798.17	0.690
798.35	0.685
798.52	0.690
798.70	0.684
798.88	0.693
799.06	0.690
799.23	0.692
799.41	0.702
799.59	0.694
799.77	0.682
799.94	0.693
800.12	0.705
800.30	0.722
800.48	0.721
800.65	0.722
800.83	0.713
801.01	0.706
801.19	0.705
801.36	0.701
801.54	0.706
801.72	0.714
801.90	0.698
802.07	0.692
802.25	0.676
802.43	0.660
802.60	0.655
802.78	0.662
802.96	0.668
803.14	0.661
803.31	0.658
803.49	0.657
803.67	0.655
803.84	0.661
804.02	0.652
804.20	0.656
804.38	0.663
804.55	0.659
804.73	0.643
804.91	0.643
805.08	0.656
805.26	0.652
805.44	0.720
805.61	0.723
805.79	0.724
805.97	0.722
806.15	0.714
806.32	0.709
806.50	0.717
806.68	0.719
806.85	0.710
807.03	0.701
807.21	0.720
807.38	0.647
807.56	0.636
807.74	0.645
807.91	0.653
808.09	0.654
808.27	0.672
808.44	0.700
808.62	0.710
808.80	0.711
808.97	0.705
809.15	0.699
809.33	0.720
809.50	0.728
809.68	0.712
809.86	0.719
810.03	0.755
810.21	0.736
810.39	0.716
810.56	0.721
810.74	0.751
810.91	0.831
811.09	0.818
811.27	0.839
811.44	0.845
811.62	0.848
811.80	0.829
811.97	0.793
812.15	0.791
812.33	0.786
812.50	0.772
812.68	0.754
812.85	0.695
813.03	0.697
813.21	0.663
813.38	0.657
813.56	0.660
813.74	0.669
813.91	0.677
814.09	0.706
814.26	0.701
814.44	0.703
814.62	0.694
814.79	0.696
814.97	0.702
815.14	0.707
815.32	0.712
815.50	0.731
815.67	0.734
815.85	0.727
816.02	0.719
816.20	0.725
816.38	0.743
816.55	0.750
816.73	0.750
816.90	0.762
817.08	0.794
817.26	0.801
817.43	0.777
817.61	0.802
817.78	0.823
817.96	0.798
818.13	0.786
818.31	0.786
818.49	0.800
818.66	0.789
818.84	0.774
819.01	0.751
819.19	0.761
819.36	0.766
819.54	0.735
819.71	0.783
819.89	0.799
820.07	0.816
820.24	0.809
820.42	0.808
820.59	0.828
820.77	0.856
820.94	0.845
821.12	0.866
821.29	0.882
821.47	0.886
821.64	0.810
821.82	0.830
822.00	0.828
822.17	0.824
822.35	0.819
822.52	0.827
822.70	0.812
822.87	0.825
823.05	0.801
823.22	0.816
823.40	0.850
823.57	0.877
823.75	0.856
823.92	0.889
824.10	0.915
824.27	0.961
824.45	0.945
824.62	1.028
824.80	1.046
824.97	1.058
825.15	1.042
825.32	1.059
825.50	1.065
825.67	1.082
825.85	1.048
826.02	1.080
826.20	1.120
826.37	1.326
826.55	1.206
826.72	1.581
826.90	1.812
827.07	2.078
827.25	1.813
827.42	-0.000
827.60	-0.000
827.77	-0.000
827.95	-0.000
828.12	-0.000
828.30	-0.000
828.47	-0.000
828.65	1.905
828.82	2.297
829.00	-0.000
829.17	-0.000
829.34	-0.000
829.52	-0.000
829.69	-0.000
829.87	-0.000
830.04	-0.000
830.22	-0.000
830.39	-0.000
830.57	-0.000
830.74	-0.000
830.92	-0.000
831.09	-0.000
831.26	-0.000
831.44	-0.000
831.61	-0.000
831.79	-0.000
831.96	-0.000
832.14	-0.000
832.31	-0.000
832.49	-0.000
832.66	-0.000
832.83	-0.000
833.01	-0.000
833.18	-0.000
833.36	-0.000
833.53	-0.000
833.70	-0.000
833.88	-0.000
834.05	-0.000
834.23	-0.000
834.40	-0.000
834.58	-0.000
834.75	-0.000
834.92	-0.000
835.10	-0.000
835.27	-0.000
835.45	-0.000
835.62	-0.000
835.79	-0.000
835.97	-0.000
836.14	-0.000
836.32	-0.000
836.49	-0.000
836.66	-0.000
836.84	-0.000
837.01	-0.000
837.18	-0.000
837.36	-0.000
837.53	-0.000
837.71	-0.000
837.88	-0.000
838.05	-0.000
838.23	-0.000
838.40	-0.000
838.58	-0.000
838.75	-0.000
838.92	-0.000
839.10	-0.000
839.27	-0.000
839.44	-0.000
839.62	-0.000
839.79	-0.000
839.96	-0.000
840.14	-0.000
840.31	-0.000
840.48	-0.000
840.66	-0.000
840.83	-0.000
841.01	-0.000
841.18	-0.000
841.35	-0.000
841.53	-0.000
841.70	-0.000
841.87	-0.000
842.05	-0.000
842.22	-0.000
842.39	-0.000
842.57	-0.000
842.74	-0.000
842.91	-0.000
843.09	-0.000
843.26	-0.000
843.43	-0.000
843.60	-0.000
843.78	-0.000
843.95	-0.000
844.12	-0.000
844.30	-0.000
844.47	-0.000
844.64	-0.000
844.82	-0.000
844.99	-0.000
845.16	-0.000
845.34	-0.000
845.51	-0.000
845.68	-0.000
845.85	-0.000
846.03	-0.000
846.20	-0.000
846.37	-0.000
846.55	-0.000
846.72	-0.000
846.89	-0.000
847.06	-0.000
847.24	-0.000
847.41	-0.000
847.58	-0.000
847.76	-0.000
847.93	-0.000
848.10	-0.000
848.27	-0.000
848.45	-0.000
848.62	-0.000
848.79	-0.000
848.97	-0.000
849.14	-0.000
849.31	-0.000
849.48	-0.000
849.66	-0.000
849.83	-0.000
850.00	-0.000
850.17	-0.000
850.35	-0.000
850.52	-0.000
850.69	-0.000
850.86	-0.000
851.04	-0.000
851.21	-0.000
851.38	-0.000
851.55	-0.000
851.72	-0.000
851.90	-0.000
852.07	-0.000
852.24	-0.000
852.41	-0.000
852.59	-0.000
852.76	-0.000
852.93	-0.000
853.10	-0.000
853.28	-0.000
853.45	-0.000
853.62	-0.000
853.79	-0.000
853.96	-0.000
854.14	-0.000
854.31	-0.000
854.48	-0.000
854.65	-0.000
854.82	-0.000
855.00	-0.000
855.17	-0.000
855.34	-0.000
855.51	-0.000
855.68	-0.000
855.86	-0.000
856.03	-0.000
856.20	-0.000
856.37	-0.000
856.54	-0.000
856.72	-0.000
856.89	-0.000
857.06	-0.000
857.23	-0.000
857.40	-0.000
857.57	-0.000
857.75	-0.000
857.92	-0.000
858.09	-0.000
858.26	-0.000
858.43	-0.000
858.60	-0.000
858.78	-0.000
858.95	-0.000
859.12	-0.000
859.29	-0.000
859.46	-0.000
859.63	-0.000
859.81	-0.000
859.98	-0.000
860.15	-0.000
860.32	-0.000
860.49	-0.000
860.66	-0.000
860.83	-0.000
861.01	-0.000
861.18	-0.000
861.35	-0.000
861.52	-0.000
861.69	-0.000
861.86	-0.000
862.03	-0.000
862.21	-0.000
862.38	-0.000
862.55	-0.000
862.72	-0.000
862.89	-0.000
863.06	-0.000
863.23	-0.000
863.40	-0.000
863.58	-0.000
863.75	-0.000
863.92	-0.000
864.09	-0.000
864.26	-0.000
864.43	-0.000
864.60	-0.000
864.77	-0.000
864.94	-0.000
865.11	-0.000
865.29	-0.000
865.46	-0.000
865.63	-0.000
865.80	-0.000
865.97	-0.000
866.14	-0.000
866.31	-0.000
866.48	-0.000
866.65	-0.000
866.82	-0.000
866.99	-0.000
867.16	-0.000
867.34	-0.000
867.51	-0.000
867.68	-0.000
867.85	-0.000
868.02	-0.000
868.19	-0.000
868.36	-0.000
868.53	-0.000
868.70	-0.000
868.87	-0.000
869.04	-0.000
869.21	-0.000
869.38	-0.000
869.55	-0.000
869.72	-0.000
869.89	-0.000
870.06	-0.000
870.24	-0.000
870.41	-0.000
870.58	-0.000
870.75	-0.000
870.92	-0.000
871.09	-0.000
871.26	-0.000
871.43	-0.000
871.60	-0.000
871.77	-0.000
871.94	-0.000
872.11	-0.000
872.28	-0.000
872.45	-0.000
872.62	-0.000
872.79	-0.000
872.96	-0.000
873.13	-0.000
873.30	-0.000
873.47	-0.000
873.64	-0.000
873.81	-0.000
873.98	-0.000
874.15	-0.000
874.32	-0.000
874.49	-0.000
874.66	-0.000
874.83	-0.000
875.00	-0.000
875.17	-0.000
875.34	-0.000
875.51	-0.000
875.68	-0.000
875.85	-0.000
876.02	-0.000
876.19	-0.000
876.36	-0.000
876.53	-0.000
876.70	-0.000
876.87	-0.000
877.04	-0.000
877.21	-0.000
877.38	-0.000
877.55	-0.000
877.72	-0.000
877.89	-0.000
878.06	-0.000
878.23	-0.000
878.39	-0.000
878.56	-0.000
878.73	-0.000
878.90	-0.000
879.07	-0.000
879.24	-0.000
879.41	-0.000
879.58	-0.000
879.75	-0.000
879.92	-0.000
880.09	-0.000
880.26	-0.000
880.43	-0.000
880.60	-0.000
880.77	-0.000
880.94	-0.000
881.11	-0.000
881.27	-0.000
881.44	-0.000
881.61	-0.000
881.78	-0.000
881.95	-0.000
882.12	-0.000
882.29	-0.000
882.46	-0.000
882.63	-0.000
882.80	-0.000
882.97	-0.000
883.14	-0.000
883.30	-0.000
883.47	-0.000
883.64	-0.000
883.81	-0.000
883.98	-0.000
884.15	-0.000
884.32	-0.000
884.49	-0.000
884.66	-0.000
884.82	-0.000
884.99	-0.000
885.16	-0.000
885.33	-0.000
885.50	-0.000
885.67	-0.000
885.84	-0.000
886.01	-0.000
886.17	-0.000
886.34	-0.000
886.51	-0.000
886.68	-0.000
886.85	-0.000
887.02	-0.000
887.19	-0.000
887.36	-0.000
887.52	-0.000
887.69	-0.000
887.86	-0.000
888.03	-0.000
888.20	-0.000
888.37	-0.000
888.54	-0.000
888.70	-0.000
888.87	-0.000
889.04	-0.000
889.21	-0.000
889.38	-0.000
889.55	-0.000
889.71	-0.000
889.88	-0.000
890.05	-0.000
890.22	-0.000
890.39	-0.000
>>>>>End Processed Spectral Data<<<<<
