SpectraSuite Data File
++++++++++++++++++++++++++++++++++++
Date: Fri Jun 19 14:53:10 CEST 2015
User: introlabs
Dark Spectrum Present: Yes
Reference Spectrum Present: Yes
Number of Sampled Component Spectra: 1
Spectrometers: USB4H08886
Integration Time (usec): 745692 (USB4H08886)
Spectra Averaged: 5 (USB4H08886)
Boxcar Smoothing: 5 (USB4H08886)
Correct for Electrical Dark: Yes (USB4H08886)
Strobe/Lamp Enabled: No (USB4H08886)
Correct for Detector Non-linearity: Yes (USB4H08886)
Correct for Stray Light: Yes (USB4H08886)
Number of Pixels in Processed Spectrum: 3648
>>>>>Begin Processed Spectral Data<<<<<
178.14	-0.000
178.36	-0.000
178.57	-0.000
178.79	-0.000
179.01	-0.000
179.22	-0.000
179.44	-0.000
179.65	-0.000
179.87	-0.000
180.08	-0.000
180.30	-0.000
180.52	-0.000
180.73	-0.000
180.95	-0.000
181.16	-0.000
181.38	-0.000
181.59	-0.000
181.81	-0.000
182.03	-0.000
182.24	-0.000
182.46	-0.000
182.67	-0.000
182.89	-0.000
183.10	-0.000
183.32	-0.000
183.54	-0.000
183.75	-0.000
183.97	-0.000
184.18	-0.000
184.40	-0.000
184.61	-0.000
184.83	-0.000
185.04	-0.000
185.26	-0.000
185.48	-0.000
185.69	-0.000
185.91	-0.000
186.12	-0.000
186.34	-0.000
186.55	-0.000
186.77	-0.000
186.98	-0.000
187.20	-0.000
187.42	-0.000
187.63	-0.000
187.85	-0.000
188.06	-0.000
188.28	-0.000
188.49	-0.000
188.71	-0.000
188.92	-0.000
189.14	-0.000
189.36	-0.000
189.57	-0.000
189.79	-0.000
190.00	-0.000
190.22	-0.000
190.43	-0.000
190.65	-0.000
190.86	-0.000
191.08	-0.000
191.29	-0.000
191.51	-0.000
191.72	-0.000
191.94	-0.000
192.16	-0.000
192.37	-0.000
192.59	-0.000
192.80	-0.000
193.02	-0.000
193.23	-0.000
193.45	-0.000
193.66	-0.000
193.88	-0.000
194.09	-0.000
194.31	-0.000
194.52	-0.000
194.74	-0.000
194.95	-0.000
195.17	-0.000
195.38	-0.000
195.60	-0.000
195.81	-0.000
196.03	-0.000
196.25	-0.000
196.46	-0.000
196.68	-0.000
196.89	-0.000
197.11	-0.000
197.32	-0.000
197.54	-0.000
197.75	-0.000
197.97	-0.000
198.18	-0.000
198.40	-0.000
198.61	-0.000
198.83	-0.000
199.04	-0.000
199.26	-0.000
199.47	-0.000
199.69	-0.000
199.90	-0.000
200.12	-0.000
200.33	-0.000
200.55	-0.000
200.76	-0.000
200.98	-0.000
201.19	-0.000
201.41	-0.000
201.62	-0.000
201.84	-0.000
202.05	-0.000
202.27	-0.000
202.48	-0.000
202.70	-0.000
202.91	-0.000
203.13	-0.000
203.34	-0.000
203.56	-0.000
203.77	-0.000
203.99	-0.000
204.20	-0.000
204.42	-0.000
204.63	-0.000
204.85	-0.000
205.06	-0.000
205.28	-0.000
205.49	-0.000
205.71	-0.000
205.92	-0.000
206.14	-0.000
206.35	-0.000
206.56	-0.000
206.78	-0.000
206.99	-0.000
207.21	-0.000
207.42	-0.000
207.64	-0.000
207.85	-0.000
208.07	-0.000
208.28	-0.000
208.50	-0.000
208.71	-0.000
208.93	-0.000
209.14	-0.000
209.36	-0.000
209.57	-0.000
209.79	-0.000
210.00	-0.000
210.22	-0.000
210.43	-0.000
210.64	-0.000
210.86	-0.000
211.07	-0.000
211.29	-0.000
211.50	-0.000
211.72	-0.000
211.93	-0.000
212.15	-0.000
212.36	-0.000
212.58	-0.000
212.79	-0.000
213.01	-0.000
213.22	-0.000
213.43	-0.000
213.65	-0.000
213.86	-0.000
214.08	-0.000
214.29	-0.000
214.51	-0.000
214.72	-0.000
214.94	-0.000
215.15	-0.000
215.36	-0.000
215.58	-0.000
215.79	-0.000
216.01	-0.000
216.22	-0.000
216.44	-0.000
216.65	-0.000
216.87	-0.000
217.08	-0.000
217.29	-0.000
217.51	-0.000
217.72	-0.000
217.94	-0.000
218.15	-0.000
218.37	-0.000
218.58	-0.000
218.80	-0.000
219.01	-0.000
219.22	-0.000
219.44	-0.000
219.65	-0.000
219.87	-0.000
220.08	-0.000
220.30	-0.000
220.51	-0.000
220.72	-0.000
220.94	-0.000
221.15	-0.000
221.37	-0.000
221.58	-0.000
221.79	-0.000
222.01	-0.000
222.22	-0.000
222.44	-0.000
222.65	-0.000
222.87	-0.000
223.08	-0.000
223.29	-0.000
223.51	-0.000
223.72	-0.000
223.94	-0.000
224.15	-0.000
224.36	-0.000
224.58	-0.000
224.79	-0.000
225.01	-0.000
225.22	-0.000
225.44	-0.000
225.65	-0.000
225.86	-0.000
226.08	-0.000
226.29	-0.000
226.51	-0.000
226.72	-0.000
226.93	-0.000
227.15	-0.000
227.36	-0.000
227.58	-0.000
227.79	-0.000
228.00	-0.000
228.22	-0.000
228.43	-0.000
228.65	-0.000
228.86	-0.000
229.07	-0.000
229.29	-0.000
229.50	-0.000
229.72	-0.000
229.93	-0.000
230.14	-0.000
230.36	-0.000
230.57	-0.000
230.78	-0.000
231.00	-0.000
231.21	-0.000
231.43	-0.000
231.64	-0.000
231.85	-0.000
232.07	-0.000
232.28	-0.000
232.50	-0.000
232.71	-0.000
232.92	-0.000
233.14	-0.000
233.35	-0.000
233.56	-0.000
233.78	-0.000
233.99	-0.000
234.21	-0.000
234.42	-0.000
234.63	-0.000
234.85	-0.000
235.06	-0.000
235.27	-0.000
235.49	-0.000
235.70	-0.000
235.91	-0.000
236.13	-0.000
236.34	-0.000
236.56	-0.000
236.77	-0.000
236.98	-0.000
237.20	-0.000
237.41	-0.000
237.62	-0.000
237.84	-0.000
238.05	-0.000
238.26	-0.000
238.48	-0.000
238.69	-0.000
238.91	-0.000
239.12	-0.000
239.33	-0.000
239.55	-0.000
239.76	-0.000
239.97	-0.000
240.19	-0.000
240.40	-0.000
240.61	-0.000
240.83	-0.000
241.04	-0.000
241.25	-0.000
241.47	-0.000
241.68	-0.000
241.89	-0.000
242.11	-0.000
242.32	-0.000
242.53	-0.000
242.75	-0.000
242.96	-0.000
243.17	-0.000
243.39	-0.000
243.60	-0.000
243.81	-0.000
244.03	-0.000
244.24	-0.000
244.45	-0.000
244.67	-0.000
244.88	-0.000
245.09	-0.000
245.31	-0.000
245.52	-0.000
245.73	-0.000
245.95	-0.000
246.16	-0.000
246.37	-0.000
246.59	-0.000
246.80	-0.000
247.01	-0.000
247.23	-0.000
247.44	-0.000
247.65	-0.000
247.87	-0.000
248.08	-0.000
248.29	-0.000
248.51	-0.000
248.72	-0.000
248.93	-0.000
249.15	-0.000
249.36	-0.000
249.57	-0.000
249.78	-0.000
250.00	-0.000
250.21	-0.000
250.42	-0.000
250.64	-0.000
250.85	-0.000
251.06	-0.000
251.28	-0.000
251.49	-0.000
251.70	-0.000
251.92	-0.000
252.13	-0.000
252.34	-0.000
252.55	-0.000
252.77	-0.000
252.98	-0.000
253.19	-0.000
253.41	-0.000
253.62	-0.000
253.83	-0.000
254.05	-0.000
254.26	-0.000
254.47	-0.000
254.68	-0.000
254.90	-0.000
255.11	-0.000
255.32	-0.000
255.54	-0.000
255.75	-0.000
255.96	-0.000
256.17	-0.000
256.39	-0.000
256.60	-0.000
256.81	-0.000
257.03	-0.000
257.24	-0.000
257.45	-0.000
257.66	-0.000
257.88	-0.000
258.09	-0.000
258.30	-0.000
258.51	-0.000
258.73	-0.000
258.94	-0.000
259.15	-0.000
259.37	-0.000
259.58	-0.000
259.79	-0.000
260.00	-0.000
260.22	-0.000
260.43	-0.000
260.64	-0.000
260.85	-0.000
261.07	-0.000
261.28	-0.000
261.49	-0.000
261.71	-0.000
261.92	-0.000
262.13	-0.000
262.34	-0.000
262.56	-0.000
262.77	-0.000
262.98	-0.000
263.19	-0.000
263.41	-0.000
263.62	-0.000
263.83	-0.000
264.04	-0.000
264.26	-0.000
264.47	-0.000
264.68	-0.000
264.89	-0.000
265.11	-0.000
265.32	-0.000
265.53	-0.000
265.74	-0.000
265.96	-0.000
266.17	-0.000
266.38	-0.000
266.59	-0.000
266.81	-0.000
267.02	-0.000
267.23	-0.000
267.44	-0.000
267.65	-0.000
267.87	-0.000
268.08	-0.000
268.29	-0.000
268.50	-0.000
268.72	-0.000
268.93	-0.000
269.14	-0.000
269.35	-0.000
269.57	-0.000
269.78	-0.000
269.99	-0.000
270.20	-0.000
270.41	-0.000
270.63	-0.000
270.84	-0.000
271.05	-0.000
271.26	-0.000
271.48	-0.000
271.69	-0.000
271.90	-0.000
272.11	-0.000
272.32	-0.000
272.54	-0.000
272.75	-0.000
272.96	-0.000
273.17	-0.000
273.39	-0.000
273.60	-0.000
273.81	-0.000
274.02	-0.000
274.23	-0.000
274.45	-0.000
274.66	-0.000
274.87	-0.000
275.08	-0.000
275.29	-0.000
275.51	-0.000
275.72	-0.000
275.93	-0.000
276.14	-0.000
276.35	-0.000
276.57	-0.000
276.78	-0.000
276.99	-0.000
277.20	-0.000
277.41	-0.000
277.63	-0.000
277.84	-0.000
278.05	-0.000
278.26	-0.000
278.47	-0.000
278.69	-0.000
278.90	-0.000
279.11	-0.000
279.32	-0.000
279.53	-0.000
279.74	-0.000
279.96	-0.000
280.17	-0.000
280.38	-0.000
280.59	-0.000
280.80	-0.000
281.02	-0.000
281.23	-0.000
281.44	-0.000
281.65	-0.000
281.86	-0.000
282.07	-0.000
282.29	-0.000
282.50	-0.000
282.71	-0.000
282.92	-0.000
283.13	-0.000
283.35	-0.000
283.56	-0.000
283.77	-0.000
283.98	-0.000
284.19	-0.000
284.40	-0.000
284.62	-0.000
284.83	-0.000
285.04	-0.000
285.25	-0.000
285.46	-0.000
285.67	-0.000
285.88	-0.000
286.10	-0.000
286.31	-0.000
286.52	-0.000
286.73	-0.000
286.94	-0.000
287.15	-0.000
287.37	-0.000
287.58	-0.000
287.79	-0.000
288.00	-0.000
288.21	-0.000
288.42	-0.000
288.63	-0.000
288.85	-0.000
289.06	-0.000
289.27	-0.000
289.48	-0.000
289.69	-0.000
289.90	-0.000
290.11	-0.000
290.33	-0.000
290.54	-0.000
290.75	-0.000
290.96	-0.000
291.17	-0.000
291.38	-0.000
291.59	-0.000
291.81	-0.000
292.02	-0.000
292.23	-0.000
292.44	-0.000
292.65	-0.000
292.86	-0.000
293.07	-0.000
293.28	-0.000
293.50	-0.000
293.71	-0.000
293.92	-0.000
294.13	-0.000
294.34	-0.000
294.55	-0.000
294.76	-0.000
294.97	-0.000
295.19	-0.000
295.40	-0.000
295.61	-0.000
295.82	-0.000
296.03	-0.000
296.24	-0.000
296.45	2.333
296.66	1.856
296.87	1.878
297.09	1.971
297.30	2.206
297.51	1.751
297.72	1.716
297.93	1.822
298.14	1.772
298.35	1.725
298.56	1.692
298.77	1.845
298.99	1.804
299.20	1.782
299.41	1.743
299.62	1.713
299.83	1.715
300.04	1.645
300.25	1.631
300.46	1.675
300.67	1.655
300.88	1.594
301.10	1.596
301.31	1.678
301.52	1.605
301.73	1.553
301.94	1.562
302.15	1.579
302.36	1.522
302.57	1.455
302.78	1.466
302.99	1.509
303.20	1.531
303.41	1.432
303.63	1.414
303.84	1.421
304.05	1.416
304.26	1.349
304.47	1.352
304.68	1.350
304.89	1.342
305.10	1.297
305.31	1.281
305.52	1.327
305.73	1.323
305.94	1.284
306.15	1.273
306.37	1.295
306.58	1.303
306.79	1.274
307.00	1.299
307.21	1.338
307.42	1.333
307.63	1.296
307.84	1.260
308.05	1.293
308.26	1.295
308.47	1.276
308.68	1.269
308.89	1.270
309.10	1.266
309.31	1.227
309.52	1.218
309.73	1.232
309.95	1.228
310.16	1.200
310.37	1.190
310.58	1.206
310.79	1.203
311.00	1.200
311.21	1.200
311.42	1.198
311.63	1.192
311.84	1.172
312.05	1.172
312.26	1.194
312.47	1.205
312.68	1.181
312.89	1.165
313.10	1.171
313.31	1.144
313.52	1.146
313.73	1.148
313.94	1.151
314.15	1.134
314.36	1.112
314.57	1.106
314.78	1.091
314.99	1.086
315.21	1.074
315.42	1.079
315.63	1.091
315.84	1.068
316.05	1.057
316.26	1.063
316.47	1.080
316.68	1.077
316.89	1.058
317.10	1.081
317.31	1.086
317.52	1.088
317.73	1.066
317.94	1.066
318.15	1.118
318.36	1.115
318.57	1.099
318.78	1.090
318.99	1.124
319.20	1.120
319.41	1.086
319.62	1.090
319.83	1.103
320.04	1.100
320.25	1.085
320.46	1.045
320.67	1.048
320.88	1.044
321.09	1.030
321.30	1.015
321.51	1.032
321.72	1.031
321.93	1.012
322.14	1.004
322.35	1.029
322.56	1.033
322.77	1.020
322.98	1.031
323.19	1.039
323.40	1.045
323.61	1.024
323.82	1.017
324.03	1.022
324.24	1.021
324.45	1.009
324.66	0.991
324.87	0.985
325.08	0.985
325.29	0.967
325.50	0.959
325.71	0.964
325.92	0.971
326.13	0.957
326.34	0.957
326.55	0.964
326.76	0.964
326.97	0.954
327.18	0.949
327.39	0.973
327.60	0.973
327.80	0.974
328.01	0.972
328.22	0.973
328.43	0.976
328.64	0.964
328.85	0.970
329.06	0.971
329.27	0.970
329.48	0.966
329.69	0.947
329.90	0.957
330.11	0.951
330.32	0.944
330.53	0.936
330.74	0.936
330.95	0.935
331.16	0.919
331.37	0.927
331.58	0.926
331.79	0.925
332.00	0.917
332.21	0.911
332.42	0.915
332.63	0.905
332.83	0.900
333.04	0.903
333.25	0.916
333.46	0.916
333.67	0.902
333.88	0.905
334.09	0.914
334.30	0.910
334.51	0.901
334.72	0.898
334.93	0.902
335.14	0.902
335.35	0.895
335.56	0.890
335.77	0.898
335.98	0.897
336.18	0.892
336.39	0.884
336.60	0.889
336.81	0.887
337.02	0.885
337.23	0.890
337.44	0.892
337.65	0.892
337.86	0.882
338.07	0.876
338.28	0.880
338.49	0.878
338.70	0.872
338.91	0.878
339.11	0.885
339.32	0.881
339.53	0.870
339.74	0.867
339.95	0.864
340.16	0.861
340.37	0.853
340.58	0.852
340.79	0.855
341.00	0.855
341.21	0.845
341.41	0.845
341.62	0.846
341.83	0.847
342.04	0.842
342.25	0.853
342.46	0.858
342.67	0.857
342.88	0.849
343.09	0.849
343.30	0.856
343.50	0.859
343.71	0.849
343.92	0.849
344.13	0.853
344.34	0.852
344.55	0.835
344.76	0.834
344.97	0.840
345.18	0.838
345.38	0.835
345.59	0.829
345.80	0.828
346.01	0.826
346.22	0.822
346.43	0.815
346.64	0.824
346.85	0.824
347.06	0.817
347.26	0.816
347.47	0.820
347.68	0.815
347.89	0.812
348.10	0.806
348.31	0.813
348.52	0.812
348.73	0.811
348.93	0.807
349.14	0.808
349.35	0.808
349.56	0.803
349.77	0.799
349.98	0.805
350.19	0.801
350.39	0.798
350.60	0.794
350.81	0.809
351.02	0.808
351.23	0.804
351.44	0.808
351.65	0.810
351.86	0.807
352.06	0.805
352.27	0.805
352.48	0.807
352.69	0.805
352.90	0.800
353.11	0.786
353.31	0.792
353.52	0.787
353.73	0.778
353.94	0.779
354.15	0.785
354.36	0.786
354.57	0.777
354.77	0.780
354.98	0.779
355.19	0.779
355.40	0.779
355.61	0.785
355.82	0.790
356.02	0.790
356.23	0.784
356.44	0.785
356.65	0.787
356.86	0.788
357.07	0.782
357.27	0.784
357.48	0.787
357.69	0.783
357.90	0.768
358.11	0.764
358.32	0.766
358.52	0.768
358.73	0.759
358.94	0.763
359.15	0.767
359.36	0.767
359.56	0.762
359.77	0.760
359.98	0.765
360.19	0.765
360.40	0.762
360.61	0.764
360.81	0.763
361.02	0.763
361.23	0.754
361.44	0.752
361.65	0.752
361.85	0.752
362.06	0.750
362.27	0.753
362.48	0.753
362.69	0.755
362.89	0.749
363.10	0.751
363.31	0.754
363.52	0.758
363.73	0.754
363.93	0.754
364.14	0.756
364.35	0.757
364.56	0.747
364.77	0.750
364.97	0.751
365.18	0.752
365.39	0.746
365.60	0.743
365.81	0.744
366.01	0.744
366.22	0.741
366.43	0.740
366.64	0.742
366.84	0.747
367.05	0.744
367.26	0.744
367.47	0.745
367.68	0.745
367.88	0.742
368.09	0.739
368.30	0.741
368.51	0.741
368.71	0.740
368.92	0.743
369.13	0.741
369.34	0.740
369.55	0.738
369.75	0.738
369.96	0.746
370.17	0.745
370.38	0.742
370.58	0.742
370.79	0.747
371.00	0.746
371.21	0.738
371.41	0.743
371.62	0.747
371.83	0.743
372.04	0.741
372.24	0.734
372.45	0.735
372.66	0.735
372.87	0.731
373.07	0.729
373.28	0.729
373.49	0.734
373.70	0.724
373.90	0.723
374.11	0.732
374.32	0.731
374.53	0.731
374.73	0.731
374.94	0.733
375.15	0.733
375.36	0.731
375.56	0.739
375.77	0.738
375.98	0.739
376.19	0.737
376.39	0.731
376.60	0.735
376.81	0.735
377.02	0.733
377.22	0.733
377.43	0.733
377.64	0.733
377.84	0.724
378.05	0.730
378.26	0.736
378.47	0.735
378.67	0.731
378.88	0.728
379.09	0.729
379.30	0.729
379.50	0.726
379.71	0.728
379.92	0.731
380.12	0.730
380.33	0.721
380.54	0.717
380.75	0.724
380.95	0.725
381.16	0.723
381.37	0.723
381.57	0.724
381.78	0.725
381.99	0.725
382.20	0.724
382.40	0.727
382.61	0.728
382.82	0.725
383.02	0.719
383.23	0.721
383.44	0.721
383.64	0.719
383.85	0.723
384.06	0.725
384.27	0.723
384.47	0.720
384.68	0.720
384.89	0.726
385.09	0.725
385.30	0.725
385.51	0.725
385.71	0.728
385.92	0.728
386.13	0.727
386.33	0.728
386.54	0.729
386.75	0.728
386.95	0.724
387.16	0.720
387.37	0.722
387.58	0.721
387.78	0.719
387.99	0.717
388.20	0.719
388.40	0.716
388.61	0.712
388.82	0.715
389.02	0.717
389.23	0.717
389.44	0.716
389.64	0.717
389.85	0.728
390.06	0.728
390.26	0.728
390.47	0.728
390.68	0.730
390.88	0.728
391.09	0.724
391.30	0.724
391.50	0.724
391.71	0.724
391.92	0.721
392.12	0.714
392.33	0.714
392.53	0.714
392.74	0.714
392.95	0.714
393.15	0.717
393.36	0.719
393.57	0.717
393.77	0.719
393.98	0.722
394.19	0.722
394.39	0.721
394.60	0.722
394.81	0.724
395.01	0.722
395.22	0.721
395.43	0.722
395.63	0.726
395.84	0.727
396.04	0.724
396.25	0.725
396.46	0.727
396.66	0.726
396.87	0.724
397.08	0.721
397.28	0.724
397.49	0.724
397.69	0.720
397.90	0.715
398.11	0.716
398.31	0.717
398.52	0.713
398.73	0.714
398.93	0.713
399.14	0.713
399.34	0.712
399.55	0.712
399.76	0.713
399.96	0.714
400.17	0.712
400.37	0.711
400.58	0.717
400.79	0.719
400.99	0.717
401.20	0.722
401.41	0.724
401.61	0.725
401.82	0.731
402.02	0.731
402.23	0.732
402.44	0.732
402.64	0.732
402.85	0.726
403.05	0.725
403.26	0.724
403.47	0.717
403.67	0.716
403.88	0.717
404.08	0.710
404.29	0.709
404.50	0.708
404.70	0.709
404.91	0.708
405.11	0.705
405.32	0.705
405.52	0.706
405.73	0.706
405.94	0.704
406.14	0.706
406.35	0.709
406.55	0.708
406.76	0.706
406.97	0.707
407.17	0.709
407.38	0.709
407.58	0.708
407.79	0.710
407.99	0.712
408.20	0.713
408.41	0.709
408.61	0.707
408.82	0.708
409.02	0.709
409.23	0.706
409.43	0.706
409.64	0.707
409.84	0.705
410.05	0.703
410.26	0.701
410.46	0.701
410.67	0.701
410.87	0.703
411.08	0.704
411.28	0.705
411.49	0.707
411.69	0.704
411.90	0.706
412.11	0.708
412.31	0.709
412.52	0.708
412.72	0.709
412.93	0.709
413.13	0.707
413.34	0.704
413.54	0.705
413.75	0.707
413.95	0.707
414.16	0.704
414.37	0.707
414.57	0.707
414.78	0.709
414.98	0.707
415.19	0.709
415.39	0.706
415.60	0.708
415.80	0.708
416.01	0.706
416.21	0.708
416.42	0.707
416.62	0.703
416.83	0.703
417.03	0.703
417.24	0.703
417.44	0.701
417.65	0.700
417.86	0.700
418.06	0.698
418.27	0.696
418.47	0.697
418.68	0.698
418.88	0.698
419.09	0.696
419.29	0.696
419.50	0.697
419.70	0.696
419.91	0.695
420.11	0.693
420.32	0.695
420.52	0.695
420.73	0.694
420.93	0.695
421.14	0.697
421.34	0.696
421.55	0.692
421.75	0.693
421.96	0.694
422.16	0.694
422.37	0.693
422.57	0.691
422.78	0.693
422.98	0.690
423.19	0.687
423.39	0.686
423.60	0.690
423.80	0.691
424.01	0.690
424.21	0.692
424.42	0.692
424.62	0.692
424.83	0.691
425.03	0.690
425.23	0.692
425.44	0.692
425.64	0.692
425.85	0.691
426.05	0.692
426.26	0.692
426.46	0.689
426.67	0.688
426.87	0.693
427.08	0.694
427.28	0.691
427.49	0.692
427.69	0.693
427.90	0.692
428.10	0.689
428.31	0.689
428.51	0.690
428.71	0.689
428.92	0.690
429.12	0.688
429.33	0.688
429.53	0.692
429.74	0.697
429.94	0.696
430.15	0.697
430.35	0.697
430.56	0.694
430.76	0.693
430.96	0.694
431.17	0.691
431.37	0.688
431.58	0.686
431.78	0.683
431.99	0.676
432.19	0.678
432.40	0.679
432.60	0.679
432.80	0.682
433.01	0.680
433.21	0.681
433.42	0.683
433.62	0.683
433.83	0.683
434.03	0.685
434.23	0.688
434.44	0.686
434.64	0.684
434.85	0.689
435.05	0.690
435.26	0.690
435.46	0.689
435.66	0.688
435.87	0.688
436.07	0.687
436.28	0.683
436.48	0.680
436.69	0.680
436.89	0.680
437.09	0.674
437.30	0.673
437.50	0.673
437.71	0.685
437.91	0.683
438.11	0.685
438.32	0.690
438.52	0.690
438.73	0.689
438.93	0.687
439.13	0.687
439.34	0.691
439.54	0.688
439.75	0.688
439.95	0.678
440.15	0.683
440.36	0.681
440.56	0.679
440.77	0.679
440.97	0.679
441.17	0.678
441.38	0.679
441.58	0.676
441.79	0.676
441.99	0.674
442.19	0.674
442.40	0.671
442.60	0.670
442.81	0.668
443.01	0.669
443.21	0.669
443.42	0.668
443.62	0.667
443.82	0.666
444.03	0.668
444.23	0.668
444.44	0.668
444.64	0.667
444.84	0.668
445.05	0.668
445.25	0.665
445.45	0.665
445.66	0.669
445.86	0.668
446.06	0.670
446.27	0.669
446.47	0.671
446.68	0.669
446.88	0.668
447.08	0.667
447.29	0.669
447.49	0.669
447.69	0.669
447.90	0.667
448.10	0.670
448.30	0.667
448.51	0.669
448.71	0.667
448.91	0.670
449.12	0.668
449.32	0.669
449.52	0.668
449.73	0.672
449.93	0.671
450.14	0.671
450.34	0.670
450.54	0.672
450.75	0.669
450.95	0.669
451.15	0.668
451.36	0.671
451.56	0.668
451.76	0.667
451.97	0.664
452.17	0.664
452.37	0.663
452.58	0.659
452.78	0.659
452.98	0.662
453.19	0.661
453.39	0.662
453.59	0.660
453.79	0.661
454.00	0.661
454.20	0.660
454.40	0.661
454.61	0.663
454.81	0.664
455.01	0.662
455.22	0.663
455.42	0.664
455.62	0.663
455.83	0.663
456.03	0.666
456.23	0.667
456.44	0.667
456.64	0.666
456.84	0.666
457.04	0.666
457.25	0.665
457.45	0.662
457.65	0.661
457.86	0.662
458.06	0.661
458.26	0.656
458.47	0.656
458.67	0.657
458.87	0.657
459.07	0.654
459.28	0.656
459.48	0.659
459.68	0.659
459.89	0.658
460.09	0.656
460.29	0.657
460.49	0.658
460.70	0.657
460.90	0.657
461.10	0.658
461.31	0.657
461.51	0.654
461.71	0.656
461.91	0.656
462.12	0.656
462.32	0.655
462.52	0.655
462.72	0.659
462.93	0.659
463.13	0.658
463.33	0.659
463.53	0.662
463.74	0.662
463.94	0.657
464.14	0.658
464.35	0.660
464.55	0.660
464.75	0.659
464.95	0.656
465.16	0.658
465.36	0.657
465.56	0.656
465.76	0.655
465.97	0.655
466.17	0.656
466.37	0.654
466.57	0.654
466.78	0.655
466.98	0.655
467.18	0.654
467.38	0.652
467.59	0.654
467.79	0.655
467.99	0.654
468.19	0.655
468.39	0.658
468.60	0.657
468.80	0.656
469.00	0.657
469.20	0.658
469.41	0.658
469.61	0.658
469.81	0.658
470.01	0.657
470.22	0.658
470.42	0.655
470.62	0.654
470.82	0.655
471.02	0.654
471.23	0.652
471.43	0.653
471.63	0.655
471.83	0.655
472.04	0.654
472.24	0.653
472.44	0.658
472.64	0.658
472.84	0.656
473.05	0.656
473.25	0.659
473.45	0.658
473.65	0.656
473.85	0.656
474.06	0.657
474.26	0.656
474.46	0.657
474.66	0.653
474.86	0.654
475.07	0.654
475.27	0.652
475.47	0.650
475.67	0.651
475.87	0.653
476.08	0.650
476.28	0.650
476.48	0.652
476.68	0.650
476.88	0.648
477.09	0.650
477.29	0.651
477.49	0.651
477.69	0.650
477.89	0.650
478.09	0.649
478.30	0.651
478.50	0.649
478.70	0.649
478.90	0.650
479.10	0.652
479.31	0.653
479.51	0.651
479.71	0.652
479.91	0.653
480.11	0.651
480.31	0.652
480.52	0.650
480.72	0.650
480.92	0.649
481.12	0.647
481.32	0.645
481.52	0.642
481.72	0.643
481.93	0.646
482.13	0.646
482.33	0.646
482.53	0.644
482.73	0.645
482.93	0.647
483.14	0.646
483.34	0.645
483.54	0.646
483.74	0.645
483.94	0.645
484.14	0.640
484.34	0.641
484.55	0.641
484.75	0.641
484.95	0.638
485.15	0.638
485.35	0.638
485.55	0.638
485.75	0.636
485.96	0.637
486.16	0.638
486.36	0.637
486.56	0.636
486.76	0.636
486.96	0.636
487.16	0.635
487.36	0.633
487.57	0.633
487.77	0.634
487.97	0.635
488.17	0.633
488.37	0.631
488.57	0.632
488.77	0.633
488.97	0.631
489.18	0.631
489.38	0.634
489.58	0.635
489.78	0.634
489.98	0.633
490.18	0.633
490.38	0.634
490.58	0.633
490.78	0.634
490.98	0.635
491.19	0.636
491.39	0.635
491.59	0.633
491.79	0.636
491.99	0.636
492.19	0.636
492.39	0.639
492.59	0.639
492.79	0.641
492.99	0.640
493.20	0.641
493.40	0.640
493.60	0.642
493.80	0.640
494.00	0.639
494.20	0.639
494.40	0.639
494.60	0.637
494.80	0.641
495.00	0.640
495.20	0.638
495.40	0.637
495.61	0.639
495.81	0.639
496.01	0.643
496.21	0.644
496.41	0.643
496.61	0.644
496.81	0.642
497.01	0.638
497.21	0.637
497.41	0.638
497.61	0.638
497.81	0.635
498.01	0.635
498.21	0.633
498.41	0.630
498.61	0.630
498.82	0.631
499.02	0.633
499.22	0.633
499.42	0.633
499.62	0.634
499.82	0.635
500.02	0.636
500.22	0.634
500.42	0.636
500.62	0.636
500.82	0.637
501.02	0.635
501.22	0.636
501.42	0.635
501.62	0.637
501.82	0.637
502.02	0.637
502.22	0.637
502.42	0.638
502.62	0.635
502.82	0.636
503.02	0.636
503.22	0.636
503.42	0.634
503.63	0.634
503.83	0.632
504.03	0.631
504.23	0.630
504.43	0.631
504.63	0.631
504.83	0.631
505.03	0.630
505.23	0.632
505.43	0.634
505.63	0.634
505.83	0.634
506.03	0.635
506.23	0.637
506.43	0.637
506.63	0.636
506.83	0.635
507.03	0.637
507.23	0.638
507.43	0.635
507.63	0.636
507.83	0.637
508.03	0.637
508.23	0.637
508.43	0.636
508.63	0.637
508.83	0.638
509.03	0.639
509.23	0.638
509.43	0.639
509.63	0.638
509.83	0.637
510.03	0.639
510.23	0.640
510.43	0.641
510.63	0.641
510.83	0.641
511.03	0.643
511.23	0.640
511.43	0.640
511.63	0.641
511.83	0.644
512.03	0.644
512.22	0.640
512.42	0.640
512.62	0.640
512.82	0.640
513.02	0.639
513.22	0.639
513.42	0.640
513.62	0.643
513.82	0.641
514.02	0.640
514.22	0.642
514.42	0.643
514.62	0.642
514.82	0.642
515.02	0.645
515.22	0.647
515.42	0.646
515.62	0.649
515.82	0.648
516.02	0.649
516.22	0.649
516.42	0.650
516.62	0.652
516.82	0.654
517.01	0.652
517.21	0.651
517.41	0.655
517.61	0.655
517.81	0.651
518.01	0.651
518.21	0.650
518.41	0.649
518.61	0.647
518.81	0.647
519.01	0.647
519.21	0.648
519.41	0.647
519.61	0.642
519.81	0.644
520.00	0.644
520.20	0.645
520.40	0.648
520.60	0.649
520.80	0.648
521.00	0.648
521.20	0.649
521.40	0.654
521.60	0.654
521.80	0.653
522.00	0.653
522.20	0.656
522.39	0.656
522.59	0.653
522.79	0.654
522.99	0.657
523.19	0.655
523.39	0.653
523.59	0.652
523.79	0.655
523.99	0.657
524.19	0.656
524.38	0.654
524.58	0.656
524.78	0.656
524.98	0.654
525.18	0.656
525.38	0.657
525.58	0.657
525.78	0.655
525.98	0.653
526.18	0.654
526.37	0.653
526.57	0.655
526.77	0.655
526.97	0.656
527.17	0.656
527.37	0.652
527.57	0.654
527.77	0.656
527.96	0.656
528.16	0.655
528.36	0.655
528.56	0.657
528.76	0.654
528.96	0.654
529.16	0.655
529.36	0.658
529.55	0.658
529.75	0.654
529.95	0.655
530.15	0.655
530.35	0.658
530.55	0.656
530.75	0.657
530.94	0.659
531.14	0.658
531.34	0.657
531.54	0.655
531.74	0.658
531.94	0.661
532.13	0.660
532.33	0.662
532.53	0.661
532.73	0.660
532.93	0.659
533.13	0.660
533.33	0.660
533.52	0.660
533.72	0.664
533.92	0.662
534.12	0.660
534.32	0.660
534.52	0.658
534.71	0.660
534.91	0.663
535.11	0.665
535.31	0.663
535.51	0.665
535.71	0.666
535.90	0.663
536.10	0.664
536.30	0.666
536.50	0.667
536.70	0.667
536.89	0.664
537.09	0.664
537.29	0.665
537.49	0.665
537.69	0.664
537.89	0.664
538.08	0.663
538.28	0.661
538.48	0.662
538.68	0.664
538.88	0.666
539.07	0.666
539.27	0.664
539.47	0.663
539.67	0.664
539.87	0.665
540.06	0.663
540.26	0.664
540.46	0.666
540.66	0.663
540.86	0.661
541.05	0.660
541.25	0.662
541.45	0.662
541.65	0.660
541.84	0.662
542.04	0.662
542.24	0.663
542.44	0.662
542.64	0.663
542.83	0.667
543.03	0.668
543.23	0.665
543.43	0.666
543.62	0.668
543.82	0.669
544.02	0.668
544.22	0.668
544.42	0.672
544.61	0.672
544.81	0.669
545.01	0.667
545.21	0.668
545.40	0.669
545.60	0.667
545.80	0.670
546.00	0.670
546.19	0.669
546.39	0.667
546.59	0.664
546.79	0.666
546.98	0.667
547.18	0.667
547.38	0.668
547.58	0.670
547.77	0.670
547.97	0.667
548.17	0.668
548.37	0.669
548.56	0.669
548.76	0.668
548.96	0.670
549.16	0.672
549.35	0.671
549.55	0.669
549.75	0.669
549.95	0.672
550.14	0.673
550.34	0.671
550.54	0.676
550.73	0.680
550.93	0.681
551.13	0.678
551.33	0.677
551.52	0.678
551.72	0.679
551.92	0.677
552.12	0.677
552.31	0.678
552.51	0.677
552.71	0.672
552.90	0.672
553.10	0.673
553.30	0.673
553.50	0.672
553.69	0.674
553.89	0.674
554.09	0.674
554.28	0.671
554.48	0.672
554.68	0.674
554.87	0.674
555.07	0.671
555.27	0.671
555.47	0.673
555.66	0.674
555.86	0.672
556.06	0.674
556.25	0.675
556.45	0.683
556.65	0.681
556.84	0.685
557.04	0.687
557.24	0.689
557.43	0.689
557.63	0.692
557.83	0.693
558.02	0.694
558.22	0.698
558.42	0.699
558.61	0.692
558.81	0.693
559.01	0.689
559.21	0.690
559.40	0.690
559.60	0.690
559.80	0.686
559.99	0.688
560.19	0.689
560.39	0.684
560.58	0.682
560.78	0.682
560.97	0.685
561.17	0.683
561.37	0.681
561.56	0.682
561.76	0.684
561.96	0.683
562.15	0.681
562.35	0.683
562.55	0.684
562.74	0.683
562.94	0.682
563.14	0.681
563.33	0.682
563.53	0.682
563.73	0.679
563.92	0.680
564.12	0.682
564.31	0.684
564.51	0.682
564.71	0.684
564.90	0.687
565.10	0.688
565.30	0.690
565.49	0.691
565.69	0.693
565.89	0.694
566.08	0.690
566.28	0.692
566.47	0.694
566.67	0.693
566.87	0.691
567.06	0.692
567.26	0.698
567.46	0.694
567.65	0.693
567.85	0.695
568.04	0.698
568.24	0.698
568.44	0.695
568.63	0.694
568.83	0.695
569.02	0.694
569.22	0.689
569.42	0.685
569.61	0.687
569.81	0.685
570.00	0.683
570.20	0.683
570.40	0.684
570.59	0.684
570.79	0.682
570.98	0.679
571.18	0.680
571.38	0.680
571.57	0.677
571.77	0.676
571.96	0.679
572.16	0.677
572.35	0.672
572.55	0.673
572.75	0.672
572.94	0.672
573.14	0.670
573.33	0.671
573.53	0.671
573.73	0.671
573.92	0.669
574.12	0.667
574.31	0.670
574.51	0.671
574.70	0.668
574.90	0.670
575.09	0.672
575.29	0.672
575.49	0.670
575.68	0.671
575.88	0.673
576.07	0.674
576.27	0.672
576.46	0.670
576.66	0.669
576.86	0.669
577.05	0.666
577.25	0.664
577.44	0.666
577.64	0.666
577.83	0.664
578.03	0.665
578.22	0.664
578.42	0.664
578.61	0.662
578.81	0.663
579.00	0.663
579.20	0.663
579.40	0.662
579.59	0.660
579.79	0.660
579.98	0.660
580.18	0.659
580.37	0.659
580.57	0.661
580.76	0.665
580.96	0.663
581.15	0.664
581.35	0.666
581.54	0.666
581.74	0.665
581.93	0.667
582.13	0.668
582.32	0.665
582.52	0.663
582.71	0.662
582.91	0.658
583.10	0.659
583.30	0.657
583.49	0.656
583.69	0.660
583.88	0.661
584.08	0.660
584.27	0.662
584.47	0.666
584.66	0.667
584.86	0.666
585.05	0.669
585.25	0.671
585.44	0.671
585.64	0.670
585.83	0.666
586.03	0.666
586.22	0.664
586.42	0.660
586.61	0.662
586.81	0.664
587.00	0.663
587.20	0.661
587.39	0.661
587.59	0.663
587.78	0.663
587.98	0.664
588.17	0.665
588.37	0.667
588.56	0.669
588.76	0.666
588.95	0.666
589.15	0.670
589.34	0.672
589.54	0.671
589.73	0.673
589.92	0.676
590.12	0.676
590.31	0.674
590.51	0.679
590.70	0.681
590.90	0.682
591.09	0.680
591.29	0.678
591.48	0.678
591.68	0.679
591.87	0.677
592.06	0.676
592.26	0.678
592.45	0.678
592.65	0.671
592.84	0.670
593.04	0.673
593.23	0.675
593.43	0.673
593.62	0.672
593.81	0.672
594.01	0.671
594.20	0.669
594.40	0.669
594.59	0.670
594.79	0.672
594.98	0.671
595.17	0.669
595.37	0.670
595.56	0.671
595.76	0.671
595.95	0.673
596.14	0.676
596.34	0.678
596.53	0.676
596.73	0.678
596.92	0.679
597.12	0.682
597.31	0.682
597.50	0.681
597.70	0.683
597.89	0.682
598.09	0.678
598.28	0.680
598.47	0.682
598.67	0.681
598.86	0.677
599.06	0.679
599.25	0.679
599.44	0.677
599.64	0.675
599.83	0.672
600.03	0.675
600.22	0.675
600.41	0.675
600.61	0.672
600.80	0.674
601.00	0.675
601.19	0.670
601.38	0.669
601.58	0.671
601.77	0.672
601.96	0.674
602.16	0.674
602.35	0.683
602.55	0.681
602.74	0.682
602.93	0.684
603.13	0.690
603.32	0.692
603.51	0.691
603.71	0.694
603.90	0.697
604.09	0.698
604.29	0.695
604.48	0.689
604.68	0.691
604.87	0.689
605.06	0.685
605.26	0.682
605.45	0.682
605.64	0.682
605.84	0.676
606.03	0.675
606.22	0.674
606.42	0.674
606.61	0.670
606.80	0.670
607.00	0.671
607.19	0.671
607.38	0.669
607.58	0.671
607.77	0.673
607.96	0.673
608.16	0.671
608.35	0.676
608.54	0.678
608.74	0.681
608.93	0.686
609.12	0.689
609.32	0.692
609.51	0.695
609.70	0.695
609.90	0.696
610.09	0.701
610.28	0.707
610.48	0.700
610.67	0.702
610.86	0.703
611.06	0.698
611.25	0.695
611.44	0.695
611.64	0.695
611.83	0.697
612.02	0.694
612.21	0.692
612.41	0.690
612.60	0.690
612.79	0.685
612.99	0.685
613.18	0.688
613.37	0.686
613.57	0.683
613.76	0.685
613.95	0.683
614.14	0.683
614.34	0.680
614.53	0.681
614.72	0.683
614.92	0.684
615.11	0.680
615.30	0.677
615.49	0.679
615.69	0.681
615.88	0.678
616.07	0.679
616.26	0.681
616.46	0.682
616.65	0.679
616.84	0.679
617.04	0.680
617.23	0.684
617.42	0.684
617.61	0.688
617.81	0.688
618.00	0.690
618.19	0.689
618.38	0.692
618.58	0.696
618.77	0.698
618.96	0.697
619.15	0.699
619.35	0.700
619.54	0.701
619.73	0.696
619.92	0.699
620.12	0.703
620.31	0.703
620.50	0.698
620.69	0.698
620.89	0.701
621.08	0.701
621.27	0.702
621.46	0.700
621.66	0.704
621.85	0.704
622.04	0.701
622.23	0.701
622.43	0.701
622.62	0.701
622.81	0.700
623.00	0.699
623.19	0.703
623.39	0.701
623.58	0.698
623.77	0.697
623.96	0.700
624.16	0.699
624.35	0.695
624.54	0.698
624.73	0.701
624.92	0.700
625.12	0.697
625.31	0.698
625.50	0.700
625.69	0.701
625.88	0.697
626.08	0.697
626.27	0.699
626.46	0.700
626.65	0.696
626.84	0.696
627.04	0.701
627.23	0.701
627.42	0.697
627.61	0.700
627.80	0.703
628.00	0.703
628.19	0.701
628.38	0.704
628.57	0.706
628.76	0.705
628.96	0.701
629.15	0.702
629.34	0.704
629.53	0.705
629.72	0.698
629.91	0.699
630.11	0.704
630.30	0.704
630.49	0.707
630.68	0.708
630.87	0.711
631.06	0.714
631.26	0.709
631.45	0.711
631.64	0.718
631.83	0.721
632.02	0.719
632.21	0.717
632.41	0.723
632.60	0.717
632.79	0.714
632.98	0.716
633.17	0.718
633.36	0.719
633.55	0.715
633.75	0.711
633.94	0.712
634.13	0.713
634.32	0.710
634.51	0.704
634.70	0.707
634.89	0.707
635.09	0.702
635.28	0.703
635.47	0.705
635.66	0.708
635.85	0.703
636.04	0.705
636.23	0.708
636.43	0.710
636.62	0.709
636.81	0.707
637.00	0.710
637.19	0.713
637.38	0.710
637.57	0.709
637.76	0.711
637.95	0.712
638.15	0.709
638.34	0.707
638.53	0.711
638.72	0.712
638.91	0.711
639.10	0.709
639.29	0.709
639.48	0.710
639.67	0.710
639.87	0.709
640.06	0.714
640.25	0.713
640.44	0.714
640.63	0.714
640.82	0.716
641.01	0.716
641.20	0.715
641.39	0.717
641.58	0.719
641.78	0.716
641.97	0.713
642.16	0.727
642.35	0.728
642.54	0.726
642.73	0.721
642.92	0.720
643.11	0.723
643.30	0.722
643.49	0.717
643.68	0.719
643.87	0.721
644.06	0.721
644.25	0.701
644.45	0.703
644.64	0.705
644.83	0.706
645.02	0.702
645.21	0.702
645.40	0.704
645.59	0.705
645.78	0.699
645.97	0.701
646.16	0.702
646.35	0.702
646.54	0.700
646.73	0.702
646.92	0.703
647.11	0.702
647.30	0.698
647.49	0.700
647.68	0.699
647.88	0.698
648.07	0.691
648.26	0.694
648.45	0.696
648.64	0.693
648.83	0.690
649.02	0.692
649.21	0.702
649.40	0.701
649.59	0.696
649.78	0.697
649.97	0.711
650.16	0.711
650.35	0.705
650.54	0.708
650.73	0.715
650.92	0.712
651.11	0.706
651.30	0.703
651.49	0.708
651.68	0.708
651.87	0.705
652.06	0.695
652.25	0.698
652.44	0.701
652.63	0.700
652.82	0.701
653.01	0.701
653.20	0.700
653.39	0.689
653.58	0.686
653.77	0.686
653.96	0.682
654.15	0.674
654.34	0.672
654.53	0.667
654.72	0.660
654.91	0.651
655.10	0.647
655.29	0.645
655.48	0.643
655.67	0.638
655.86	0.635
656.05	0.633
656.24	0.632
656.43	0.627
656.62	0.626
656.81	0.625
657.00	0.623
657.19	0.619
657.38	0.619
657.57	0.618
657.76	0.620
657.95	0.618
658.14	0.621
658.33	0.623
658.51	0.628
658.70	0.628
658.89	0.630
659.08	0.639
659.27	0.648
659.46	0.647
659.65	0.654
659.84	0.657
660.03	0.661
660.22	0.662
660.41	0.666
660.60	0.665
660.79	0.667
660.98	0.673
661.17	0.672
661.36	0.671
661.55	0.673
661.74	0.670
661.92	0.673
662.11	0.676
662.30	0.674
662.49	0.668
662.68	0.667
662.87	0.671
663.06	0.665
663.25	0.666
663.44	0.666
663.63	0.666
663.82	0.666
664.01	0.660
664.20	0.659
664.38	0.661
664.57	0.661
664.76	0.660
664.95	0.661
665.14	0.665
665.33	0.661
665.52	0.667
665.71	0.671
665.90	0.670
666.09	0.672
666.28	0.669
666.46	0.668
666.65	0.669
666.84	0.667
667.03	0.661
667.22	0.659
667.41	0.662
667.60	0.652
667.79	0.646
667.98	0.647
668.16	0.648
668.35	0.648
668.54	0.645
668.73	0.645
668.92	0.645
669.11	0.644
669.30	0.638
669.49	0.634
669.67	0.636
669.86	0.638
670.05	0.635
670.24	0.633
670.43	0.631
670.62	0.629
670.81	0.625
671.00	0.626
671.18	0.626
671.37	0.626
671.56	0.623
671.75	0.623
671.94	0.620
672.13	0.618
672.32	0.614
672.50	0.614
672.69	0.614
672.88	0.614
673.07	0.610
673.26	0.612
673.45	0.613
673.63	0.613
673.82	0.609
674.01	0.611
674.20	0.610
674.39	0.609
674.58	0.609
674.76	0.608
674.95	0.607
675.14	0.607
675.33	0.603
675.52	0.602
675.71	0.602
675.89	0.601
676.08	0.597
676.27	0.597
676.46	0.598
676.65	0.597
676.84	0.596
677.02	0.598
677.21	0.600
677.40	0.599
677.59	0.596
677.78	0.597
677.96	0.600
678.15	0.599
678.34	0.597
678.53	0.598
678.72	0.598
678.90	0.595
679.09	0.591
679.28	0.588
679.47	0.588
679.66	0.587
679.84	0.584
680.03	0.582
680.22	0.580
680.41	0.581
680.60	0.578
680.78	0.578
680.97	0.579
681.16	0.580
681.35	0.578
681.53	0.577
681.72	0.579
681.91	0.581
682.10	0.578
682.29	0.582
682.47	0.579
682.66	0.578
682.85	0.576
683.04	0.574
683.22	0.574
683.41	0.576
683.60	0.574
683.79	0.575
683.97	0.575
684.16	0.574
684.35	0.570
684.54	0.573
684.72	0.573
684.91	0.574
685.10	0.572
685.29	0.574
685.47	0.571
685.66	0.570
685.85	0.567
686.04	0.566
686.22	0.569
686.41	0.571
686.60	0.568
686.79	0.571
686.97	0.572
687.16	0.573
687.35	0.570
687.54	0.574
687.72	0.578
687.91	0.578
688.10	0.579
688.29	0.579
688.47	0.576
688.66	0.576
688.85	0.572
689.03	0.569
689.22	0.573
689.41	0.574
689.60	0.570
689.78	0.567
689.97	0.567
690.16	0.564
690.34	0.560
690.53	0.560
690.72	0.560
690.91	0.558
691.09	0.556
691.28	0.550
691.47	0.548
691.65	0.547
691.84	0.543
692.03	0.543
692.21	0.541
692.40	0.541
692.59	0.538
692.77	0.537
692.96	0.539
693.15	0.540
693.34	0.537
693.52	0.537
693.71	0.538
693.90	0.539
694.08	0.540
694.27	0.541
694.46	0.550
694.64	0.551
694.83	0.551
695.02	0.550
695.20	0.549
695.39	0.549
695.58	0.549
695.76	0.549
695.95	0.549
696.14	0.548
696.32	0.545
696.51	0.536
696.70	0.535
696.88	0.537
697.07	0.535
697.26	0.537
697.44	0.538
697.63	0.537
697.81	0.535
698.00	0.534
698.19	0.534
698.37	0.534
698.56	0.534
698.75	0.534
698.93	0.534
699.12	0.533
699.31	0.532
699.49	0.532
699.68	0.533
699.87	0.535
700.05	0.535
700.24	0.534
700.42	0.535
700.61	0.535
700.80	0.533
700.98	0.534
701.17	0.535
701.36	0.534
701.54	0.533
701.73	0.534
701.91	0.532
702.10	0.532
702.29	0.530
702.47	0.529
702.66	0.530
702.84	0.531
703.03	0.528
703.22	0.530
703.40	0.529
703.59	0.531
703.77	0.530
703.96	0.529
704.15	0.530
704.33	0.531
704.52	0.530
704.70	0.529
704.89	0.529
705.08	0.528
705.26	0.525
705.45	0.525
705.63	0.524
705.82	0.522
706.00	0.521
706.19	0.520
706.38	0.519
706.56	0.519
706.75	0.517
706.93	0.516
707.12	0.518
707.30	0.518
707.49	0.515
707.68	0.513
707.86	0.513
708.05	0.513
708.23	0.509
708.42	0.510
708.60	0.512
708.79	0.512
708.98	0.510
709.16	0.508
709.35	0.511
709.53	0.515
709.72	0.514
709.90	0.516
710.09	0.518
710.27	0.520
710.46	0.524
710.64	0.522
710.83	0.524
711.02	0.526
711.20	0.525
711.39	0.523
711.57	0.521
711.76	0.521
711.94	0.519
712.13	0.520
712.31	0.520
712.50	0.515
712.68	0.513
712.87	0.515
713.05	0.516
713.24	0.516
713.42	0.515
713.61	0.516
713.79	0.517
713.98	0.516
714.16	0.517
714.35	0.517
714.54	0.518
714.72	0.518
714.91	0.516
715.09	0.522
715.28	0.524
715.46	0.524
715.65	0.522
715.83	0.521
716.02	0.524
716.20	0.519
716.39	0.518
716.57	0.520
716.76	0.522
716.94	0.522
717.12	0.515
717.31	0.516
717.49	0.519
717.68	0.521
717.86	0.521
718.05	0.523
718.23	0.526
718.42	0.528
718.60	0.528
718.79	0.535
718.97	0.537
719.16	0.538
719.34	0.536
719.53	0.536
719.71	0.536
719.90	0.537
720.08	0.535
720.27	0.535
720.45	0.534
720.63	0.533
720.82	0.527
721.00	0.530
721.19	0.532
721.37	0.532
721.56	0.531
721.74	0.534
721.93	0.543
722.11	0.550
722.30	0.549
722.48	0.553
722.66	0.555
722.85	0.554
723.03	0.555
723.22	0.553
723.40	0.556
723.59	0.556
723.77	0.560
723.95	0.554
724.14	0.555
724.32	0.556
724.51	0.556
724.69	0.558
724.88	0.558
725.06	0.557
725.24	0.558
725.43	0.560
725.61	0.562
725.80	0.556
725.98	0.554
726.16	0.550
726.35	0.556
726.53	0.555
726.72	0.553
726.90	0.563
727.09	0.563
727.27	0.568
727.45	0.565
727.64	0.573
727.82	0.581
728.01	0.586
728.19	0.583
728.37	0.588
728.56	0.592
728.74	0.599
728.92	0.587
729.11	0.590
729.29	0.589
729.48	0.592
729.66	0.584
729.84	0.584
730.03	0.586
730.21	0.588
730.40	0.579
730.58	0.580
730.76	0.580
730.95	0.582
731.13	0.582
731.31	0.593
731.50	0.601
731.68	0.602
731.86	0.598
732.05	0.612
732.23	0.616
732.42	0.619
732.60	0.623
732.78	0.627
732.97	0.644
733.15	0.650
733.33	0.641
733.52	0.648
733.70	0.660
733.88	0.669
734.07	0.655
734.25	0.680
734.43	0.688
734.62	0.690
734.80	0.686
734.98	0.677
735.17	0.684
735.35	0.689
735.53	0.679
735.72	0.680
735.90	0.699
736.08	0.718
736.27	0.694
736.45	0.702
736.63	0.713
736.82	0.722
737.00	0.720
737.18	0.730
737.37	0.758
737.55	0.779
737.73	0.776
737.92	0.779
738.10	0.776
738.28	0.794
738.46	0.782
738.65	0.792
738.83	0.810
739.01	0.865
739.20	0.854
739.38	0.836
739.56	0.829
739.75	0.833
739.93	0.802
740.11	0.825
740.29	0.827
740.48	0.835
740.66	0.817
740.84	0.813
741.03	0.778
741.21	0.789
741.39	0.772
741.57	0.783
741.76	0.797
741.94	0.801
742.12	0.766
742.31	0.771
742.49	0.791
742.67	0.813
742.85	0.827
743.04	0.827
743.22	0.835
743.40	0.882
743.58	0.861
743.77	0.875
743.95	0.910
744.13	0.961
744.31	0.940
744.50	0.929
744.68	0.925
744.86	0.902
745.04	0.913
745.23	0.968
745.41	0.951
745.59	0.959
745.77	0.928
745.96	0.914
746.14	0.917
746.32	0.917
746.50	0.911
746.69	0.898
746.87	0.905
747.05	0.888
747.23	0.825
747.42	0.814
747.60	0.837
747.78	0.841
747.96	0.868
748.14	0.831
748.33	0.856
748.51	0.853
748.69	0.847
748.87	0.870
749.06	0.869
749.24	0.869
749.42	0.858
749.60	0.840
749.78	0.849
749.97	0.806
750.15	0.797
750.33	0.797
750.51	0.818
750.69	0.821
750.88	0.825
751.06	0.836
751.24	0.856
751.42	0.846
751.60	0.840
751.79	0.906
751.97	0.950
752.15	0.956
752.33	0.929
752.51	0.990
752.69	1.006
752.88	0.978
753.06	1.021
753.24	0.997
753.42	1.028
753.60	1.178
753.78	1.047
753.97	1.073
754.15	1.081
754.33	1.111
754.51	0.992
754.69	0.975
754.87	1.000
755.06	0.934
755.24	0.937
755.42	0.941
755.60	0.853
755.78	0.860
755.96	0.807
756.15	0.809
756.33	0.812
756.51	0.833
756.69	0.821
756.87	0.794
757.05	0.812
757.23	0.800
757.42	0.772
757.60	0.770
757.78	0.760
757.96	0.757
758.14	0.743
758.32	0.727
758.50	0.738
758.69	0.734
758.87	0.725
759.05	0.728
759.23	0.735
759.41	0.737
759.59	0.731
759.77	0.751
759.95	0.775
760.13	0.819
760.32	0.817
760.50	0.812
760.68	0.839
760.86	0.840
761.04	0.815
761.22	0.819
761.40	0.859
761.58	0.861
761.76	0.837
761.95	0.821
762.13	0.782
762.31	0.783
762.49	0.755
762.67	0.772
762.85	0.785
763.03	0.779
763.21	0.763
763.39	0.746
763.57	0.748
763.75	0.744
763.94	0.734
764.12	0.734
764.30	0.756
764.48	0.759
764.66	0.726
764.84	0.722
765.02	0.759
765.20	0.765
765.38	0.748
765.56	0.751
765.74	0.786
765.92	0.783
766.10	0.789
766.28	0.783
766.46	0.807
766.65	0.805
766.83	0.794
767.01	0.780
767.19	0.785
767.37	0.783
767.55	0.772
767.73	0.756
767.91	0.758
768.09	0.747
768.27	0.736
768.45	0.727
768.63	0.733
768.81	0.737
768.99	0.714
769.17	0.735
769.35	0.749
769.53	0.749
769.71	0.730
769.89	0.740
770.07	0.747
770.25	0.731
770.43	0.714
770.61	0.735
770.79	0.739
770.97	0.747
771.15	0.720
771.33	0.724
771.51	0.726
771.69	0.734
771.87	0.745
772.05	0.747
772.24	0.755
772.42	0.763
772.60	0.741
772.78	0.794
772.96	0.818
773.14	0.813
773.32	0.791
773.49	0.798
773.67	0.798
773.85	0.778
774.03	0.770
774.21	0.799
774.39	0.806
774.57	0.827
774.75	0.763
774.93	0.760
775.11	0.781
775.29	0.788
775.47	0.788
775.65	0.797
775.83	0.809
776.01	0.828
776.19	0.787
776.37	0.792
776.55	0.793
776.73	0.790
776.91	0.786
777.09	0.770
777.27	0.767
777.45	0.758
777.63	0.736
777.81	0.732
777.99	0.720
778.17	0.718
778.35	0.694
778.53	0.683
778.71	0.686
778.89	0.674
779.07	0.666
779.24	0.673
779.42	0.673
779.60	0.692
779.78	0.689
779.96	0.694
780.14	0.700
780.32	0.719
780.50	0.703
780.68	0.706
780.86	0.697
781.04	0.713
781.22	0.717
781.40	0.727
781.58	0.716
781.75	0.711
781.93	0.695
782.11	0.698
782.29	0.684
782.47	0.685
782.65	0.672
782.83	0.697
783.01	0.689
783.19	0.683
783.37	0.669
783.55	0.675
783.72	0.690
783.90	0.700
784.08	0.692
784.26	0.702
784.44	0.718
784.62	0.721
784.80	0.693
784.98	0.699
785.16	0.705
785.33	0.718
785.51	0.701
785.69	0.688
785.87	0.687
786.05	0.696
786.23	0.695
786.41	0.695
786.59	0.702
786.77	0.700
786.94	0.688
787.12	0.691
787.30	0.690
787.48	0.690
787.66	0.681
787.84	0.683
788.02	0.673
788.19	0.669
788.37	0.657
788.55	0.657
788.73	0.657
788.91	0.653
789.09	0.638
789.27	0.630
789.44	0.639
789.62	0.644
789.80	0.651
789.98	0.675
790.16	0.663
790.34	0.660
790.51	0.650
790.69	0.670
790.87	0.675
791.05	0.673
791.23	0.668
791.41	0.669
791.58	0.675
791.76	0.655
791.94	0.628
792.12	0.636
792.30	0.638
792.48	0.635
792.65	0.629
792.83	0.637
793.01	0.645
793.19	0.642
793.37	0.629
793.54	0.627
793.72	0.638
793.90	0.636
794.08	0.626
794.26	0.624
794.43	0.632
794.61	0.617
794.79	0.604
794.97	0.602
795.15	0.605
795.32	0.608
795.50	0.599
795.68	0.595
795.86	0.599
796.04	0.602
796.21	0.598
796.39	0.595
796.57	0.609
796.75	0.615
796.92	0.616
797.10	0.621
797.28	0.623
797.46	0.624
797.64	0.624
797.81	0.632
797.99	0.635
798.17	0.638
798.35	0.634
798.52	0.637
798.70	0.633
798.88	0.639
799.06	0.640
799.23	0.642
799.41	0.651
799.59	0.646
799.77	0.633
799.94	0.639
800.12	0.649
800.30	0.665
800.48	0.664
800.65	0.663
800.83	0.656
801.01	0.647
801.19	0.647
801.36	0.642
801.54	0.645
801.72	0.656
801.90	0.644
802.07	0.639
802.25	0.627
802.43	0.610
802.60	0.608
802.78	0.614
802.96	0.619
803.14	0.613
803.31	0.612
803.49	0.613
803.67	0.609
803.84	0.613
804.02	0.606
804.20	0.607
804.38	0.614
804.55	0.613
804.73	0.601
804.91	0.600
805.08	0.611
805.26	0.608
805.44	0.668
805.61	0.672
805.79	0.672
805.97	0.671
806.15	0.665
806.32	0.660
806.50	0.665
806.68	0.664
806.85	0.657
807.03	0.649
807.21	0.664
807.38	0.600
807.56	0.591
807.74	0.600
807.91	0.605
808.09	0.607
808.27	0.625
808.44	0.650
808.62	0.660
808.80	0.662
808.97	0.658
809.15	0.653
809.33	0.669
809.50	0.675
809.68	0.664
809.86	0.671
810.03	0.700
810.21	0.681
810.39	0.663
810.56	0.670
810.74	0.689
810.91	0.756
811.09	0.745
811.27	0.765
811.44	0.772
811.62	0.773
811.80	0.756
811.97	0.727
812.15	0.727
812.33	0.724
812.50	0.708
812.68	0.700
812.85	0.647
813.03	0.648
813.21	0.616
813.38	0.610
813.56	0.614
813.74	0.624
813.91	0.631
814.09	0.659
814.26	0.651
814.44	0.655
814.62	0.646
814.79	0.650
814.97	0.654
815.14	0.659
815.32	0.661
815.50	0.676
815.67	0.678
815.85	0.670
816.02	0.659
816.20	0.664
816.38	0.675
816.55	0.679
816.73	0.679
816.90	0.689
817.08	0.715
817.26	0.721
817.43	0.702
817.61	0.724
817.78	0.740
817.96	0.721
818.13	0.714
818.31	0.714
818.49	0.727
818.66	0.718
818.84	0.704
819.01	0.688
819.19	0.694
819.36	0.694
819.54	0.668
819.71	0.708
819.89	0.721
820.07	0.731
820.24	0.727
820.42	0.726
820.59	0.745
820.77	0.767
820.94	0.755
821.12	0.773
821.29	0.790
821.47	0.790
821.64	0.731
821.82	0.742
822.00	0.741
822.17	0.739
822.35	0.731
822.52	0.732
822.70	0.724
822.87	0.734
823.05	0.715
823.22	0.724
823.40	0.748
823.57	0.771
823.75	0.753
823.92	0.777
824.10	0.796
824.27	0.832
824.45	0.821
824.62	0.873
824.80	0.887
824.97	0.895
825.15	0.886
825.32	0.898
825.50	0.899
825.67	0.908
825.85	0.885
826.02	0.899
826.20	0.921
826.37	1.040
826.55	0.962
826.72	1.125
826.90	1.191
827.07	1.234
827.25	1.182
827.42	1.313
827.60	1.443
827.77	1.596
827.95	1.557
828.12	1.630
828.30	1.324
828.47	1.439
828.65	1.138
828.82	1.159
829.00	1.211
829.17	1.265
829.34	1.248
829.52	1.271
829.69	-0.000
829.87	-0.000
830.04	-0.000
830.22	-0.000
830.39	-0.000
830.57	-0.000
830.74	-0.000
830.92	-0.000
831.09	-0.000
831.26	-0.000
831.44	-0.000
831.61	-0.000
831.79	-0.000
831.96	-0.000
832.14	-0.000
832.31	-0.000
832.49	-0.000
832.66	-0.000
832.83	-0.000
833.01	-0.000
833.18	-0.000
833.36	-0.000
833.53	-0.000
833.70	-0.000
833.88	-0.000
834.05	-0.000
834.23	-0.000
834.40	-0.000
834.58	-0.000
834.75	-0.000
834.92	-0.000
835.10	-0.000
835.27	-0.000
835.45	-0.000
835.62	-0.000
835.79	-0.000
835.97	-0.000
836.14	-0.000
836.32	-0.000
836.49	-0.000
836.66	-0.000
836.84	-0.000
837.01	-0.000
837.18	-0.000
837.36	-0.000
837.53	-0.000
837.71	-0.000
837.88	-0.000
838.05	-0.000
838.23	-0.000
838.40	-0.000
838.58	-0.000
838.75	-0.000
838.92	-0.000
839.10	-0.000
839.27	-0.000
839.44	-0.000
839.62	-0.000
839.79	-0.000
839.96	-0.000
840.14	-0.000
840.31	-0.000
840.48	-0.000
840.66	-0.000
840.83	-0.000
841.01	-0.000
841.18	-0.000
841.35	-0.000
841.53	-0.000
841.70	-0.000
841.87	-0.000
842.05	-0.000
842.22	-0.000
842.39	-0.000
842.57	-0.000
842.74	-0.000
842.91	-0.000
843.09	-0.000
843.26	-0.000
843.43	-0.000
843.60	-0.000
843.78	-0.000
843.95	-0.000
844.12	-0.000
844.30	-0.000
844.47	-0.000
844.64	-0.000
844.82	-0.000
844.99	-0.000
845.16	-0.000
845.34	-0.000
845.51	-0.000
845.68	-0.000
845.85	-0.000
846.03	-0.000
846.20	-0.000
846.37	-0.000
846.55	-0.000
846.72	-0.000
846.89	-0.000
847.06	-0.000
847.24	-0.000
847.41	-0.000
847.58	-0.000
847.76	-0.000
847.93	-0.000
848.10	-0.000
848.27	-0.000
848.45	-0.000
848.62	-0.000
848.79	-0.000
848.97	-0.000
849.14	-0.000
849.31	-0.000
849.48	-0.000
849.66	-0.000
849.83	-0.000
850.00	-0.000
850.17	-0.000
850.35	-0.000
850.52	-0.000
850.69	-0.000
850.86	-0.000
851.04	-0.000
851.21	-0.000
851.38	-0.000
851.55	-0.000
851.72	-0.000
851.90	-0.000
852.07	-0.000
852.24	-0.000
852.41	-0.000
852.59	-0.000
852.76	-0.000
852.93	-0.000
853.10	-0.000
853.28	-0.000
853.45	-0.000
853.62	-0.000
853.79	-0.000
853.96	-0.000
854.14	-0.000
854.31	-0.000
854.48	-0.000
854.65	-0.000
854.82	-0.000
855.00	-0.000
855.17	-0.000
855.34	-0.000
855.51	-0.000
855.68	-0.000
855.86	-0.000
856.03	-0.000
856.20	-0.000
856.37	-0.000
856.54	-0.000
856.72	-0.000
856.89	-0.000
857.06	-0.000
857.23	-0.000
857.40	-0.000
857.57	-0.000
857.75	-0.000
857.92	-0.000
858.09	-0.000
858.26	-0.000
858.43	-0.000
858.60	-0.000
858.78	-0.000
858.95	-0.000
859.12	-0.000
859.29	-0.000
859.46	-0.000
859.63	-0.000
859.81	-0.000
859.98	-0.000
860.15	-0.000
860.32	-0.000
860.49	-0.000
860.66	-0.000
860.83	-0.000
861.01	-0.000
861.18	-0.000
861.35	-0.000
861.52	-0.000
861.69	-0.000
861.86	-0.000
862.03	-0.000
862.21	-0.000
862.38	-0.000
862.55	-0.000
862.72	-0.000
862.89	-0.000
863.06	-0.000
863.23	-0.000
863.40	-0.000
863.58	-0.000
863.75	-0.000
863.92	-0.000
864.09	-0.000
864.26	-0.000
864.43	-0.000
864.60	-0.000
864.77	-0.000
864.94	-0.000
865.11	-0.000
865.29	-0.000
865.46	-0.000
865.63	-0.000
865.80	-0.000
865.97	-0.000
866.14	-0.000
866.31	-0.000
866.48	-0.000
866.65	-0.000
866.82	-0.000
866.99	-0.000
867.16	-0.000
867.34	-0.000
867.51	-0.000
867.68	-0.000
867.85	-0.000
868.02	-0.000
868.19	-0.000
868.36	-0.000
868.53	-0.000
868.70	-0.000
868.87	-0.000
869.04	-0.000
869.21	-0.000
869.38	-0.000
869.55	-0.000
869.72	-0.000
869.89	-0.000
870.06	-0.000
870.24	-0.000
870.41	-0.000
870.58	-0.000
870.75	-0.000
870.92	-0.000
871.09	-0.000
871.26	-0.000
871.43	-0.000
871.60	-0.000
871.77	-0.000
871.94	-0.000
872.11	-0.000
872.28	-0.000
872.45	-0.000
872.62	-0.000
872.79	-0.000
872.96	-0.000
873.13	-0.000
873.30	-0.000
873.47	-0.000
873.64	-0.000
873.81	-0.000
873.98	-0.000
874.15	-0.000
874.32	-0.000
874.49	-0.000
874.66	-0.000
874.83	-0.000
875.00	-0.000
875.17	-0.000
875.34	-0.000
875.51	-0.000
875.68	-0.000
875.85	-0.000
876.02	-0.000
876.19	-0.000
876.36	-0.000
876.53	-0.000
876.70	-0.000
876.87	-0.000
877.04	-0.000
877.21	-0.000
877.38	-0.000
877.55	-0.000
877.72	-0.000
877.89	-0.000
878.06	-0.000
878.23	-0.000
878.39	-0.000
878.56	-0.000
878.73	-0.000
878.90	-0.000
879.07	-0.000
879.24	-0.000
879.41	-0.000
879.58	-0.000
879.75	-0.000
879.92	-0.000
880.09	-0.000
880.26	-0.000
880.43	-0.000
880.60	-0.000
880.77	-0.000
880.94	-0.000
881.11	-0.000
881.27	-0.000
881.44	-0.000
881.61	-0.000
881.78	-0.000
881.95	-0.000
882.12	-0.000
882.29	-0.000
882.46	-0.000
882.63	-0.000
882.80	-0.000
882.97	-0.000
883.14	-0.000
883.30	-0.000
883.47	-0.000
883.64	-0.000
883.81	-0.000
883.98	-0.000
884.15	-0.000
884.32	-0.000
884.49	-0.000
884.66	-0.000
884.82	-0.000
884.99	-0.000
885.16	-0.000
885.33	-0.000
885.50	-0.000
885.67	-0.000
885.84	-0.000
886.01	-0.000
886.17	-0.000
886.34	-0.000
886.51	-0.000
886.68	-0.000
886.85	-0.000
887.02	-0.000
887.19	-0.000
887.36	-0.000
887.52	-0.000
887.69	-0.000
887.86	-0.000
888.03	-0.000
888.20	-0.000
888.37	-0.000
888.54	-0.000
888.70	-0.000
888.87	-0.000
889.04	-0.000
889.21	-0.000
889.38	-0.000
889.55	-0.000
889.71	-0.000
889.88	-0.000
890.05	-0.000
890.22	-0.000
890.39	-0.000
>>>>>End Processed Spectral Data<<<<<
