SpectraSuite Data File
++++++++++++++++++++++++++++++++++++
Date: Fri Jun 19 11:48:41 CEST 2015
User: introlabs
Dark Spectrum Present: Yes
Reference Spectrum Present: Yes
Number of Sampled Component Spectra: 1
Spectrometers: USB4H08886
Integration Time (usec): 5245692 (USB4H08886)
Spectra Averaged: 5 (USB4H08886)
Boxcar Smoothing: 5 (USB4H08886)
Correct for Electrical Dark: Yes (USB4H08886)
Strobe/Lamp Enabled: No (USB4H08886)
Correct for Detector Non-linearity: Yes (USB4H08886)
Correct for Stray Light: Yes (USB4H08886)
Number of Pixels in Processed Spectrum: 3648
>>>>>Begin Processed Spectral Data<<<<<
178.14	-0.000
178.36	-0.000
178.57	-0.000
178.79	-0.000
179.01	-0.000
179.22	-0.000
179.44	-0.000
179.65	-0.000
179.87	-0.000
180.08	-0.000
180.30	-0.000
180.52	-0.000
180.73	-0.000
180.95	-0.000
181.16	-0.000
181.38	-0.000
181.59	-0.000
181.81	-0.000
182.03	-0.000
182.24	-0.000
182.46	-0.000
182.67	-0.000
182.89	-0.000
183.10	-0.000
183.32	-0.000
183.54	-0.000
183.75	-0.000
183.97	-0.000
184.18	-0.000
184.40	-0.000
184.61	-0.000
184.83	-0.000
185.04	-0.000
185.26	-0.000
185.48	-0.000
185.69	-0.000
185.91	-0.000
186.12	-0.000
186.34	-0.000
186.55	-0.000
186.77	-0.000
186.98	-0.000
187.20	-0.000
187.42	-0.000
187.63	-0.000
187.85	-0.000
188.06	-0.000
188.28	-0.000
188.49	-0.000
188.71	-0.000
188.92	-0.000
189.14	-0.000
189.36	-0.000
189.57	-0.000
189.79	-0.000
190.00	-0.000
190.22	-0.000
190.43	-0.000
190.65	-0.000
190.86	-0.000
191.08	-0.000
191.29	-0.000
191.51	-0.000
191.72	-0.000
191.94	-0.000
192.16	-0.000
192.37	-0.000
192.59	-0.000
192.80	-0.000
193.02	-0.000
193.23	-0.000
193.45	-0.000
193.66	-0.000
193.88	-0.000
194.09	-0.000
194.31	-0.000
194.52	-0.000
194.74	-0.000
194.95	-0.000
195.17	-0.000
195.38	-0.000
195.60	-0.000
195.81	-0.000
196.03	-0.000
196.25	-0.000
196.46	-0.000
196.68	-0.000
196.89	-0.000
197.11	-0.000
197.32	-0.000
197.54	-0.000
197.75	-0.000
197.97	-0.000
198.18	-0.000
198.40	-0.000
198.61	-0.000
198.83	-0.000
199.04	-0.000
199.26	-0.000
199.47	-0.000
199.69	-0.000
199.90	-0.000
200.12	-0.000
200.33	-0.000
200.55	-0.000
200.76	-0.000
200.98	-0.000
201.19	-0.000
201.41	-0.000
201.62	-0.000
201.84	-0.000
202.05	-0.000
202.27	-0.000
202.48	-0.000
202.70	-0.000
202.91	-0.000
203.13	-0.000
203.34	-0.000
203.56	-0.000
203.77	-0.000
203.99	-0.000
204.20	-0.000
204.42	-0.000
204.63	-0.000
204.85	-0.000
205.06	-0.000
205.28	-0.000
205.49	-0.000
205.71	-0.000
205.92	-0.000
206.14	-0.000
206.35	-0.000
206.56	-0.000
206.78	-0.000
206.99	-0.000
207.21	-0.000
207.42	-0.000
207.64	-0.000
207.85	-0.000
208.07	-0.000
208.28	-0.000
208.50	-0.000
208.71	-0.000
208.93	-0.000
209.14	-0.000
209.36	-0.000
209.57	-0.000
209.79	-0.000
210.00	-0.000
210.22	-0.000
210.43	-0.000
210.64	-0.000
210.86	-0.000
211.07	-0.000
211.29	-0.000
211.50	-0.000
211.72	-0.000
211.93	-0.000
212.15	-0.000
212.36	-0.000
212.58	-0.000
212.79	-0.000
213.01	-0.000
213.22	-0.000
213.43	-0.000
213.65	-0.000
213.86	-0.000
214.08	-0.000
214.29	-0.000
214.51	-0.000
214.72	-0.000
214.94	-0.000
215.15	-0.000
215.36	-0.000
215.58	-0.000
215.79	-0.000
216.01	-0.000
216.22	-0.000
216.44	-0.000
216.65	-0.000
216.87	-0.000
217.08	-0.000
217.29	-0.000
217.51	-0.000
217.72	-0.000
217.94	-0.000
218.15	-0.000
218.37	-0.000
218.58	-0.000
218.80	-0.000
219.01	-0.000
219.22	-0.000
219.44	-0.000
219.65	-0.000
219.87	-0.000
220.08	-0.000
220.30	-0.000
220.51	-0.000
220.72	-0.000
220.94	-0.000
221.15	-0.000
221.37	-0.000
221.58	-0.000
221.79	-0.000
222.01	-0.000
222.22	-0.000
222.44	-0.000
222.65	-0.000
222.87	-0.000
223.08	-0.000
223.29	-0.000
223.51	-0.000
223.72	-0.000
223.94	-0.000
224.15	-0.000
224.36	-0.000
224.58	-0.000
224.79	-0.000
225.01	-0.000
225.22	-0.000
225.44	-0.000
225.65	-0.000
225.86	-0.000
226.08	-0.000
226.29	-0.000
226.51	-0.000
226.72	-0.000
226.93	-0.000
227.15	-0.000
227.36	-0.000
227.58	-0.000
227.79	-0.000
228.00	-0.000
228.22	-0.000
228.43	-0.000
228.65	-0.000
228.86	-0.000
229.07	-0.000
229.29	-0.000
229.50	-0.000
229.72	-0.000
229.93	-0.000
230.14	-0.000
230.36	-0.000
230.57	-0.000
230.78	-0.000
231.00	-0.000
231.21	-0.000
231.43	-0.000
231.64	-0.000
231.85	-0.000
232.07	-0.000
232.28	-0.000
232.50	-0.000
232.71	-0.000
232.92	-0.000
233.14	-0.000
233.35	-0.000
233.56	-0.000
233.78	-0.000
233.99	-0.000
234.21	-0.000
234.42	-0.000
234.63	-0.000
234.85	-0.000
235.06	-0.000
235.27	-0.000
235.49	-0.000
235.70	-0.000
235.91	-0.000
236.13	-0.000
236.34	-0.000
236.56	-0.000
236.77	-0.000
236.98	-0.000
237.20	-0.000
237.41	-0.000
237.62	-0.000
237.84	-0.000
238.05	-0.000
238.26	-0.000
238.48	-0.000
238.69	-0.000
238.91	-0.000
239.12	-0.000
239.33	-0.000
239.55	-0.000
239.76	-0.000
239.97	-0.000
240.19	-0.000
240.40	-0.000
240.61	-0.000
240.83	-0.000
241.04	-0.000
241.25	-0.000
241.47	-0.000
241.68	-0.000
241.89	-0.000
242.11	-0.000
242.32	-0.000
242.53	-0.000
242.75	-0.000
242.96	-0.000
243.17	-0.000
243.39	-0.000
243.60	-0.000
243.81	-0.000
244.03	-0.000
244.24	-0.000
244.45	-0.000
244.67	-0.000
244.88	-0.000
245.09	-0.000
245.31	-0.000
245.52	-0.000
245.73	-0.000
245.95	-0.000
246.16	-0.000
246.37	-0.000
246.59	-0.000
246.80	-0.000
247.01	-0.000
247.23	-0.000
247.44	-0.000
247.65	-0.000
247.87	-0.000
248.08	-0.000
248.29	-0.000
248.51	-0.000
248.72	-0.000
248.93	-0.000
249.15	-0.000
249.36	-0.000
249.57	-0.000
249.78	-0.000
250.00	-0.000
250.21	-0.000
250.42	-0.000
250.64	-0.000
250.85	-0.000
251.06	-0.000
251.28	-0.000
251.49	-0.000
251.70	-0.000
251.92	-0.000
252.13	-0.000
252.34	-0.000
252.55	-0.000
252.77	-0.000
252.98	-0.000
253.19	-0.000
253.41	-0.000
253.62	-0.000
253.83	-0.000
254.05	-0.000
254.26	-0.000
254.47	-0.000
254.68	-0.000
254.90	-0.000
255.11	-0.000
255.32	-0.000
255.54	-0.000
255.75	-0.000
255.96	-0.000
256.17	-0.000
256.39	-0.000
256.60	-0.000
256.81	-0.000
257.03	-0.000
257.24	-0.000
257.45	-0.000
257.66	-0.000
257.88	-0.000
258.09	-0.000
258.30	-0.000
258.51	-0.000
258.73	-0.000
258.94	-0.000
259.15	-0.000
259.37	-0.000
259.58	-0.000
259.79	-0.000
260.00	-0.000
260.22	-0.000
260.43	-0.000
260.64	-0.000
260.85	-0.000
261.07	-0.000
261.28	-0.000
261.49	-0.000
261.71	-0.000
261.92	-0.000
262.13	-0.000
262.34	-0.000
262.56	-0.000
262.77	-0.000
262.98	-0.000
263.19	-0.000
263.41	-0.000
263.62	-0.000
263.83	-0.000
264.04	-0.000
264.26	-0.000
264.47	-0.000
264.68	-0.000
264.89	-0.000
265.11	-0.000
265.32	-0.000
265.53	-0.000
265.74	-0.000
265.96	-0.000
266.17	-0.000
266.38	-0.000
266.59	-0.000
266.81	-0.000
267.02	-0.000
267.23	-0.000
267.44	-0.000
267.65	-0.000
267.87	-0.000
268.08	-0.000
268.29	-0.000
268.50	-0.000
268.72	-0.000
268.93	-0.000
269.14	-0.000
269.35	-0.000
269.57	-0.000
269.78	-0.000
269.99	-0.000
270.20	-0.000
270.41	-0.000
270.63	-0.000
270.84	-0.000
271.05	-0.000
271.26	-0.000
271.48	-0.000
271.69	-0.000
271.90	-0.000
272.11	-0.000
272.32	-0.000
272.54	-0.000
272.75	-0.000
272.96	-0.000
273.17	-0.000
273.39	-0.000
273.60	-0.000
273.81	-0.000
274.02	-0.000
274.23	-0.000
274.45	-0.000
274.66	-0.000
274.87	-0.000
275.08	-0.000
275.29	-0.000
275.51	-0.000
275.72	-0.000
275.93	-0.000
276.14	-0.000
276.35	-0.000
276.57	-0.000
276.78	-0.000
276.99	-0.000
277.20	-0.000
277.41	-0.000
277.63	-0.000
277.84	-0.000
278.05	-0.000
278.26	-0.000
278.47	-0.000
278.69	-0.000
278.90	-0.000
279.11	-0.000
279.32	-0.000
279.53	-0.000
279.74	-0.000
279.96	-0.000
280.17	-0.000
280.38	-0.000
280.59	-0.000
280.80	-0.000
281.02	-0.000
281.23	-0.000
281.44	-0.000
281.65	-0.000
281.86	-0.000
282.07	-0.000
282.29	-0.000
282.50	-0.000
282.71	-0.000
282.92	-0.000
283.13	-0.000
283.35	-0.000
283.56	-0.000
283.77	-0.000
283.98	-0.000
284.19	-0.000
284.40	-0.000
284.62	-0.000
284.83	-0.000
285.04	-0.000
285.25	-0.000
285.46	-0.000
285.67	-0.000
285.88	-0.000
286.10	-0.000
286.31	-0.000
286.52	-0.000
286.73	-0.000
286.94	-0.000
287.15	-0.000
287.37	-0.000
287.58	-0.000
287.79	-0.000
288.00	-0.000
288.21	-0.000
288.42	-0.000
288.63	-0.000
288.85	-0.000
289.06	-0.000
289.27	-0.000
289.48	-0.000
289.69	-0.000
289.90	-0.000
290.11	-0.000
290.33	-0.000
290.54	-0.000
290.75	-0.000
290.96	-0.000
291.17	-0.000
291.38	-0.000
291.59	-0.000
291.81	-0.000
292.02	-0.000
292.23	-0.000
292.44	-0.000
292.65	-0.000
292.86	-0.000
293.07	-0.000
293.28	-0.000
293.50	2.532
293.71	2.620
293.92	3.860
294.13	2.249
294.34	2.200
294.55	2.045
294.76	2.067
294.97	2.139
295.19	2.161
295.40	2.036
295.61	2.009
295.82	2.443
296.03	2.547
296.24	2.198
296.45	2.485
296.66	-0.000
296.87	-0.000
297.09	-0.000
297.30	-0.000
297.51	-0.000
297.72	-0.000
297.93	2.914
298.14	2.321
298.35	2.098
298.56	2.595
298.77	2.248
298.99	2.083
299.20	2.000
299.41	1.915
299.62	1.932
299.83	1.889
300.04	1.869
300.25	1.962
300.46	1.964
300.67	2.018
300.88	1.857
301.10	1.866
301.31	1.750
301.52	1.756
301.73	1.736
301.94	1.754
302.15	1.766
302.36	1.852
302.57	1.834
302.78	1.761
302.99	1.803
303.20	1.784
303.41	1.778
303.63	1.905
303.84	2.030
304.05	1.981
304.26	2.006
304.47	1.929
304.68	1.855
304.89	1.862
305.10	1.995
305.31	1.888
305.52	1.866
305.73	1.938
305.94	1.836
306.15	1.769
306.37	1.747
306.58	1.693
306.79	1.703
307.00	1.712
307.21	1.712
307.42	1.668
307.63	1.668
307.84	1.767
308.05	1.711
308.26	1.695
308.47	1.733
308.68	1.726
308.89	1.741
309.10	1.730
309.31	1.767
309.52	1.724
309.73	1.702
309.95	1.745
310.16	1.654
310.37	1.656
310.58	1.640
310.79	1.601
311.00	1.591
311.21	1.597
311.42	1.655
311.63	1.619
311.84	1.605
312.05	1.592
312.26	1.545
312.47	1.557
312.68	1.558
312.89	1.610
313.10	1.651
313.31	1.679
313.52	1.649
313.73	1.593
313.94	1.617
314.15	1.676
314.36	1.658
314.57	1.710
314.78	1.748
314.99	1.736
315.21	1.677
315.42	1.629
315.63	1.598
315.84	1.627
316.05	1.627
316.26	1.586
316.47	1.543
316.68	1.594
316.89	1.579
317.10	1.542
317.31	1.553
317.52	1.563
317.73	1.586
317.94	1.600
318.15	1.569
318.36	1.598
318.57	1.640
318.78	1.676
318.99	1.617
319.20	1.655
319.41	1.673
319.62	1.689
319.83	1.730
320.04	1.712
320.25	1.697
320.46	1.733
320.67	1.699
320.88	1.687
321.09	1.675
321.30	1.693
321.51	1.653
321.72	1.659
321.93	1.657
322.14	1.612
322.35	1.593
322.56	1.608
322.77	1.593
322.98	1.577
323.19	1.539
323.40	1.523
323.61	1.524
323.82	1.511
324.03	1.514
324.24	1.531
324.45	1.529
324.66	1.555
324.87	1.556
325.08	1.557
325.29	1.592
325.50	1.609
325.71	1.625
325.92	1.612
326.13	1.618
326.34	1.635
326.55	1.632
326.76	1.651
326.97	1.653
327.18	1.676
327.39	1.662
327.60	1.619
327.80	1.603
328.01	1.584
328.22	1.607
328.43	1.605
328.64	1.577
328.85	1.548
329.06	1.526
329.27	1.525
329.48	1.509
329.69	1.526
329.90	1.527
330.11	1.556
330.32	1.550
330.53	1.536
330.74	1.524
330.95	1.529
331.16	1.529
331.37	1.548
331.58	1.520
331.79	1.526
332.00	1.507
332.21	1.524
332.42	1.515
332.63	1.534
332.83	1.562
333.04	1.610
333.25	1.583
333.46	1.615
333.67	1.601
333.88	1.624
334.09	1.602
334.30	1.638
334.51	1.637
334.72	1.643
334.93	1.642
335.14	1.608
335.35	1.557
335.56	1.569
335.77	1.526
335.98	1.552
336.18	1.532
336.39	1.539
336.60	1.529
336.81	1.538
337.02	1.511
337.23	1.497
337.44	1.502
337.65	1.510
337.86	1.507
338.07	1.517
338.28	1.491
338.49	1.522
338.70	1.517
338.91	1.503
339.11	1.494
339.32	1.504
339.53	1.532
339.74	1.554
339.95	1.555
340.16	1.590
340.37	1.602
340.58	1.630
340.79	1.588
341.00	1.592
341.21	1.582
341.41	1.562
341.62	1.580
341.83	1.550
342.04	1.529
342.25	1.531
342.46	1.499
342.67	1.506
342.88	1.503
343.09	1.502
343.30	1.488
343.50	1.495
343.71	1.492
343.92	1.485
344.13	1.484
344.34	1.481
344.55	1.481
344.76	1.500
344.97	1.474
345.18	1.485
345.38	1.483
345.59	1.515
345.80	1.519
346.01	1.562
346.22	1.585
346.43	1.593
346.64	1.578
346.85	1.582
347.06	1.580
347.26	1.589
347.47	1.569
347.68	1.611
347.89	1.574
348.10	1.597
348.31	1.548
348.52	1.544
348.73	1.531
348.93	1.551
349.14	1.549
349.35	1.558
349.56	1.555
349.77	1.562
349.98	1.566
350.19	1.578
350.39	1.574
350.60	1.620
350.81	1.578
351.02	1.588
351.23	1.574
351.44	1.566
351.65	1.563
351.86	1.579
352.06	1.553
352.27	1.520
352.48	1.526
352.69	1.532
352.90	1.508
353.11	1.514
353.31	1.513
353.52	1.544
353.73	1.559
353.94	1.538
354.15	1.524
354.36	1.528
354.57	1.547
354.77	1.539
354.98	1.533
355.19	1.544
355.40	1.545
355.61	1.542
355.82	1.519
356.02	1.518
356.23	1.517
356.44	1.523
356.65	1.520
356.86	1.502
357.07	1.512
357.27	1.498
357.48	1.483
357.69	1.494
357.90	1.500
358.11	1.507
358.32	1.499
358.52	1.492
358.73	1.495
358.94	1.492
359.15	1.501
359.36	1.488
359.56	1.504
359.77	1.508
359.98	1.489
360.19	1.494
360.40	1.498
360.61	1.508
360.81	1.512
361.02	1.507
361.23	1.516
361.44	1.528
361.65	1.540
361.85	1.532
362.06	1.550
362.27	1.557
362.48	1.553
362.69	1.525
362.89	1.531
363.10	1.552
363.31	1.546
363.52	1.543
363.73	1.518
363.93	1.534
364.14	1.527
364.35	1.500
364.56	1.533
364.77	1.530
364.97	1.537
365.18	1.520
365.39	1.523
365.60	1.524
365.81	1.523
366.01	1.533
366.22	1.508
366.43	1.506
366.64	1.510
366.84	1.478
367.05	1.478
367.26	1.473
367.47	1.491
367.68	1.471
367.88	1.485
368.09	1.488
368.30	1.474
368.51	1.487
368.71	1.475
368.92	1.471
369.13	1.494
369.34	1.502
369.55	1.501
369.75	1.485
369.96	1.476
370.17	1.484
370.38	1.499
370.58	1.509
370.79	1.489
371.00	1.501
371.21	1.519
371.41	1.496
371.62	1.485
371.83	1.509
372.04	1.494
372.24	1.511
372.45	1.487
372.66	1.472
372.87	1.491
373.07	1.495
373.28	1.502
373.49	1.484
373.70	1.493
373.90	1.486
374.11	1.473
374.32	1.481
374.53	1.481
374.73	1.505
374.94	1.496
375.15	1.479
375.36	1.479
375.56	1.468
375.77	1.467
375.98	1.462
376.19	1.459
376.39	1.480
376.60	1.473
376.81	1.466
377.02	1.459
377.22	1.480
377.43	1.479
377.64	1.487
377.84	1.480
378.05	1.476
378.26	1.468
378.47	1.481
378.67	1.470
378.88	1.475
379.09	1.472
379.30	1.462
379.50	1.453
379.71	1.445
379.92	1.435
380.12	1.440
380.33	1.464
380.54	1.470
380.75	1.455
380.95	1.452
381.16	1.461
381.37	1.464
381.57	1.471
381.78	1.468
381.99	1.462
382.20	1.473
382.40	1.489
382.61	1.477
382.82	1.484
383.02	1.503
383.23	1.503
383.44	1.506
383.64	1.514
383.85	1.498
384.06	1.498
384.27	1.511
384.47	1.517
384.68	1.501
384.89	1.490
385.09	1.501
385.30	1.498
385.51	1.508
385.71	1.489
385.92	1.476
386.13	1.472
386.33	1.483
386.54	1.482
386.75	1.474
386.95	1.481
387.16	1.496
387.37	1.486
387.58	1.485
387.78	1.469
387.99	1.476
388.20	1.474
388.40	1.489
388.61	1.467
388.82	1.484
389.02	1.473
389.23	1.462
389.44	1.466
389.64	1.476
389.85	1.461
390.06	1.460
390.26	1.449
390.47	1.459
390.68	1.462
390.88	1.485
391.09	1.462
391.30	1.479
391.50	1.487
391.71	1.484
391.92	1.468
392.12	1.477
392.33	1.479
392.53	1.480
392.74	1.471
392.95	1.458
393.15	1.449
393.36	1.449
393.57	1.452
393.77	1.442
393.98	1.442
394.19	1.452
394.39	1.444
394.60	1.438
394.81	1.447
395.01	1.458
395.22	1.461
395.43	1.451
395.63	1.447
395.84	1.429
396.04	1.450
396.25	1.434
396.46	1.430
396.66	1.434
396.87	1.432
397.08	1.437
397.28	1.435
397.49	1.431
397.69	1.444
397.90	1.447
398.11	1.456
398.31	1.437
398.52	1.437
398.73	1.445
398.93	1.447
399.14	1.451
399.34	1.450
399.55	1.445
399.76	1.454
399.96	1.438
400.17	1.442
400.37	1.443
400.58	1.443
400.79	1.441
400.99	1.424
401.20	1.420
401.41	1.419
401.61	1.412
401.82	1.408
402.02	1.413
402.23	1.426
402.44	1.427
402.64	1.416
402.85	1.416
403.05	1.421
403.26	1.428
403.47	1.434
403.67	1.432
403.88	1.433
404.08	1.434
404.29	1.431
404.50	1.432
404.70	1.428
404.91	1.440
405.11	1.443
405.32	1.448
405.52	1.450
405.73	1.452
405.94	1.459
406.14	1.454
406.35	1.450
406.55	1.451
406.76	1.438
406.97	1.435
407.17	1.432
407.38	1.442
407.58	1.437
407.79	1.427
407.99	1.419
408.20	1.412
408.41	1.418
408.61	1.423
408.82	1.415
409.02	1.425
409.23	1.434
409.43	1.428
409.64	1.413
409.84	1.423
410.05	1.424
410.26	1.431
410.46	1.436
410.67	1.444
410.87	1.440
411.08	1.431
411.28	1.423
411.49	1.418
411.69	1.415
411.90	1.428
412.11	1.424
412.31	1.423
412.52	1.418
412.72	1.417
412.93	1.410
413.13	1.414
413.34	1.425
413.54	1.428
413.75	1.439
413.95	1.452
414.16	1.452
414.37	1.440
414.57	1.449
414.78	1.442
414.98	1.452
415.19	1.449
415.39	1.448
415.60	1.437
415.80	1.429
416.01	1.420
416.21	1.408
416.42	1.408
416.62	1.416
416.83	1.409
417.03	1.412
417.24	1.407
417.44	1.403
417.65	1.410
417.86	1.415
418.06	1.422
418.27	1.421
418.47	1.424
418.68	1.416
418.88	1.408
419.09	1.409
419.29	1.414
419.50	1.411
419.70	1.422
419.91	1.420
420.11	1.424
420.32	1.419
420.52	1.421
420.73	1.417
420.93	1.416
421.14	1.429
421.34	1.435
421.55	1.444
421.75	1.438
421.96	1.430
422.16	1.426
422.37	1.419
422.57	1.429
422.78	1.424
422.98	1.436
423.19	1.448
423.39	1.444
423.60	1.438
423.80	1.424
424.01	1.433
424.21	1.428
424.42	1.428
424.62	1.431
424.83	1.428
425.03	1.426
425.23	1.417
425.44	1.404
425.64	1.394
425.85	1.388
426.05	1.389
426.26	1.381
426.46	1.380
426.67	1.379
426.87	1.372
427.08	1.369
427.28	1.369
427.49	1.368
427.69	1.368
427.90	1.370
428.10	1.385
428.31	1.392
428.51	1.405
428.71	1.409
428.92	1.407
429.12	1.418
429.33	1.422
429.53	1.420
429.74	1.418
429.94	1.428
430.15	1.433
430.35	1.419
430.56	1.414
430.76	1.406
430.96	1.415
431.17	1.419
431.37	1.423
431.58	1.426
431.78	1.427
431.99	1.434
432.19	1.421
432.40	1.427
432.60	1.442
432.80	1.440
433.01	1.440
433.21	1.432
433.42	1.432
433.62	1.429
433.83	1.429
434.03	1.429
434.23	1.423
434.44	1.425
434.64	1.417
434.85	1.407
435.05	1.421
435.26	1.418
435.46	1.426
435.66	1.425
435.87	1.423
436.07	1.418
436.28	1.429
436.48	1.445
436.69	1.455
436.89	1.457
437.09	1.453
437.30	1.453
437.50	1.452
437.71	1.440
437.91	1.436
438.11	1.439
438.32	1.431
438.52	1.421
438.73	1.417
438.93	1.420
439.13	1.419
439.34	1.422
439.54	1.414
439.75	1.425
439.95	1.439
440.15	1.442
440.36	1.436
440.56	1.444
440.77	1.455
440.97	1.460
441.17	1.446
441.38	1.452
441.58	1.464
441.79	1.465
441.99	1.467
442.19	1.456
442.40	1.452
442.60	1.447
442.81	1.451
443.01	1.440
443.21	1.438
443.42	1.450
443.62	1.439
443.82	1.436
444.03	1.443
444.23	1.442
444.44	1.434
444.64	1.449
444.84	1.465
445.05	1.471
445.25	1.474
445.45	1.469
445.66	1.454
445.86	1.468
446.06	1.460
446.27	1.451
446.47	1.437
446.68	1.447
446.88	1.433
447.08	1.421
447.29	1.416
447.49	1.421
447.69	1.412
447.90	1.421
448.10	1.407
448.30	1.409
448.51	1.400
448.71	1.409
448.91	1.398
449.12	1.415
449.32	1.407
449.52	1.407
449.73	1.396
449.93	1.403
450.14	1.396
450.34	1.398
450.54	1.392
450.75	1.403
450.95	1.398
451.15	1.406
451.36	1.398
451.56	1.414
451.76	1.414
451.97	1.430
452.17	1.430
452.37	1.434
452.58	1.452
452.78	1.463
452.98	1.467
453.19	1.480
453.39	1.474
453.59	1.472
453.79	1.463
454.00	1.466
454.20	1.459
454.40	1.464
454.61	1.473
454.81	1.460
455.01	1.453
455.22	1.450
455.42	1.442
455.62	1.444
455.83	1.436
456.03	1.430
456.23	1.427
456.44	1.422
456.64	1.417
456.84	1.409
457.04	1.419
457.25	1.433
457.45	1.433
457.65	1.440
457.86	1.454
458.06	1.470
458.26	1.485
458.47	1.484
458.67	1.481
458.87	1.477
459.07	1.472
459.28	1.452
459.48	1.442
459.68	1.434
459.89	1.424
460.09	1.418
460.29	1.414
460.49	1.401
460.70	1.406
460.90	1.409
461.10	1.405
461.31	1.420
461.51	1.427
461.71	1.440
461.91	1.441
462.12	1.453
462.32	1.460
462.52	1.453
462.72	1.455
462.93	1.448
463.13	1.447
463.33	1.455
463.53	1.447
463.74	1.458
463.94	1.446
464.14	1.458
464.35	1.456
464.55	1.452
464.75	1.464
464.95	1.471
465.16	1.468
465.36	1.478
465.56	1.468
465.76	1.477
465.97	1.479
466.17	1.473
466.37	1.462
466.57	1.447
466.78	1.450
466.98	1.441
467.18	1.439
467.38	1.440
467.59	1.431
467.79	1.434
467.99	1.428
468.19	1.417
468.39	1.413
468.60	1.411
468.80	1.411
469.00	1.408
469.20	1.416
469.41	1.418
469.61	1.416
469.81	1.419
470.01	1.428
470.22	1.428
470.42	1.435
470.62	1.449
470.82	1.452
471.02	1.466
471.23	1.454
471.43	1.448
471.63	1.453
471.83	1.466
472.04	1.464
472.24	1.457
472.44	1.445
472.64	1.449
472.84	1.450
473.05	1.443
473.25	1.428
473.45	1.435
473.65	1.433
473.85	1.421
474.06	1.413
474.26	1.410
474.46	1.403
474.66	1.415
474.86	1.413
475.07	1.411
475.27	1.423
475.47	1.434
475.67	1.427
475.87	1.421
476.08	1.426
476.28	1.433
476.48	1.445
476.68	1.449
476.88	1.442
477.09	1.427
477.29	1.422
477.49	1.420
477.69	1.424
477.89	1.428
478.09	1.430
478.30	1.427
478.50	1.427
478.70	1.414
478.90	1.420
479.10	1.416
479.31	1.414
479.51	1.422
479.71	1.418
479.91	1.412
480.11	1.406
480.31	1.403
480.52	1.400
480.72	1.400
480.92	1.398
481.12	1.399
481.32	1.408
481.52	1.410
481.72	1.399
481.93	1.393
482.13	1.399
482.33	1.410
482.53	1.415
482.73	1.424
482.93	1.418
483.14	1.425
483.34	1.419
483.54	1.419
483.74	1.420
483.94	1.424
484.14	1.423
484.34	1.423
484.55	1.412
484.75	1.406
484.95	1.398
485.15	1.402
485.35	1.400
485.55	1.407
485.75	1.402
485.96	1.401
486.16	1.400
486.36	1.403
486.56	1.399
486.76	1.409
486.96	1.418
487.16	1.423
487.36	1.427
487.57	1.426
487.77	1.424
487.97	1.420
488.17	1.427
488.37	1.435
488.57	1.434
488.77	1.438
488.97	1.432
489.18	1.430
489.38	1.423
489.58	1.411
489.78	1.419
489.98	1.416
490.18	1.421
490.38	1.415
490.58	1.413
490.78	1.420
490.98	1.413
491.19	1.418
491.39	1.417
491.59	1.421
491.79	1.418
491.99	1.409
492.19	1.417
492.39	1.412
492.59	1.413
492.79	1.407
492.99	1.395
493.20	1.391
493.40	1.388
493.60	1.382
493.80	1.389
494.00	1.396
494.20	1.393
494.40	1.389
494.60	1.387
494.80	1.386
495.00	1.386
495.20	1.399
495.40	1.398
495.61	1.391
495.81	1.393
496.01	1.385
496.21	1.379
496.41	1.391
496.61	1.389
496.81	1.395
497.01	1.400
497.21	1.398
497.41	1.396
497.61	1.396
497.81	1.405
498.01	1.408
498.21	1.412
498.41	1.419
498.61	1.409
498.82	1.408
499.02	1.403
499.22	1.401
499.42	1.405
499.62	1.404
499.82	1.416
500.02	1.409
500.22	1.409
500.42	1.404
500.62	1.407
500.82	1.408
501.02	1.401
501.22	1.402
501.42	1.407
501.62	1.402
501.82	1.393
502.02	1.393
502.22	1.395
502.42	1.395
502.62	1.395
502.82	1.392
503.02	1.402
503.22	1.407
503.42	1.409
503.63	1.410
503.83	1.412
504.03	1.423
504.23	1.422
504.43	1.427
504.63	1.424
504.83	1.432
505.03	1.433
505.23	1.421
505.43	1.422
505.63	1.418
505.83	1.418
506.03	1.416
506.23	1.407
506.43	1.403
506.63	1.399
506.83	1.403
507.03	1.400
507.23	1.398
507.43	1.404
507.63	1.399
507.83	1.405
508.03	1.407
508.23	1.407
508.43	1.410
508.63	1.414
508.83	1.408
509.03	1.404
509.23	1.409
509.43	1.414
509.63	1.420
509.83	1.418
510.03	1.414
510.23	1.404
510.43	1.403
510.63	1.397
510.83	1.390
511.03	1.395
511.23	1.405
511.43	1.398
511.63	1.388
511.83	1.378
512.03	1.381
512.22	1.393
512.42	1.405
512.62	1.418
512.82	1.426
513.02	1.429
513.22	1.428
513.42	1.431
513.62	1.432
513.82	1.438
514.02	1.443
514.22	1.439
514.42	1.438
514.62	1.424
514.82	1.409
515.02	1.406
515.22	1.403
515.42	1.410
515.62	1.396
515.82	1.405
516.02	1.400
516.22	1.401
516.42	1.412
516.62	1.402
516.82	1.403
517.01	1.410
517.21	1.420
517.41	1.418
517.61	1.423
517.81	1.433
518.01	1.431
518.21	1.442
518.41	1.453
518.61	1.442
518.81	1.442
519.01	1.447
519.21	1.451
519.41	1.446
519.61	1.463
519.81	1.464
520.00	1.473
520.20	1.463
520.40	1.454
520.60	1.438
520.80	1.446
521.00	1.442
521.20	1.439
521.40	1.428
521.60	1.425
521.80	1.421
522.00	1.406
522.20	1.386
522.39	1.392
522.59	1.396
522.79	1.410
522.99	1.407
523.19	1.420
523.39	1.433
523.59	1.445
523.79	1.443
523.99	1.432
524.19	1.427
524.38	1.436
524.58	1.441
524.78	1.442
524.98	1.427
525.18	1.426
525.38	1.422
525.58	1.409
525.78	1.407
525.98	1.406
526.18	1.403
526.37	1.416
526.57	1.410
526.77	1.408
526.97	1.400
527.17	1.408
527.37	1.409
527.57	1.402
527.77	1.398
527.96	1.402
528.16	1.408
528.36	1.423
528.56	1.421
528.76	1.434
528.96	1.438
529.16	1.444
529.36	1.434
529.55	1.443
529.75	1.453
529.95	1.462
530.15	1.452
530.35	1.446
530.55	1.437
530.75	1.430
530.94	1.431
531.14	1.431
531.34	1.434
531.54	1.450
531.74	1.433
531.94	1.426
532.13	1.426
532.33	1.436
532.53	1.441
532.73	1.457
532.93	1.454
533.13	1.447
533.33	1.444
533.52	1.440
533.72	1.427
533.92	1.444
534.12	1.460
534.32	1.461
534.52	1.445
534.71	1.444
534.91	1.424
535.11	1.433
535.31	1.428
535.51	1.428
535.71	1.421
535.90	1.423
536.10	1.408
536.30	1.395
536.50	1.398
536.70	1.403
536.89	1.403
537.09	1.414
537.29	1.410
537.49	1.413
537.69	1.408
537.89	1.419
538.08	1.426
538.28	1.432
538.48	1.431
538.68	1.423
538.88	1.420
539.07	1.426
539.27	1.418
539.47	1.425
539.67	1.431
539.87	1.431
540.06	1.425
540.26	1.422
540.46	1.417
540.66	1.432
540.86	1.441
541.05	1.450
541.25	1.452
541.45	1.467
541.65	1.454
541.84	1.457
542.04	1.454
542.24	1.459
542.44	1.457
542.64	1.462
542.83	1.451
543.03	1.451
543.23	1.461
543.43	1.447
543.62	1.448
543.82	1.449
544.02	1.437
544.22	1.442
544.42	1.434
544.61	1.447
544.81	1.457
545.01	1.459
545.21	1.444
545.40	1.430
545.60	1.433
545.80	1.417
546.00	1.420
546.19	1.430
546.39	1.426
546.59	1.440
546.79	1.442
546.98	1.444
547.18	1.434
547.38	1.440
547.58	1.444
547.77	1.443
547.97	1.453
548.17	1.453
548.37	1.457
548.56	1.470
548.76	1.461
548.96	1.446
549.16	1.434
549.35	1.454
549.55	1.464
549.75	1.457
549.95	1.451
550.14	1.456
550.34	1.455
550.54	1.444
550.73	1.428
550.93	1.439
551.13	1.454
551.33	1.458
551.52	1.444
551.72	1.444
551.92	1.444
552.12	1.460
552.31	1.450
552.51	1.461
552.71	1.461
552.90	1.463
553.10	1.450
553.30	1.442
553.50	1.451
553.69	1.456
553.89	1.457
554.09	1.456
554.28	1.443
554.48	1.442
554.68	1.430
554.87	1.431
555.07	1.448
555.27	1.456
555.47	1.451
555.66	1.448
555.86	1.455
556.06	1.454
556.25	1.473
556.45	1.476
556.65	1.493
556.84	1.501
557.04	1.516
557.24	1.501
557.43	1.500
557.63	1.513
557.83	1.516
558.02	1.520
558.22	1.506
558.42	1.499
558.61	1.510
558.81	1.503
559.01	1.493
559.21	1.476
559.40	1.480
559.60	1.493
559.80	1.484
559.99	1.485
560.19	1.471
560.39	1.490
560.58	1.487
560.78	1.495
560.97	1.476
561.17	1.493
561.37	1.503
561.56	1.501
561.76	1.497
561.96	1.497
562.15	1.493
562.35	1.486
562.55	1.468
562.74	1.479
562.94	1.465
563.14	1.474
563.33	1.476
563.53	1.478
563.73	1.484
563.92	1.481
564.12	1.474
564.31	1.460
564.51	1.460
564.71	1.465
564.90	1.446
565.10	1.447
565.30	1.446
565.49	1.444
565.69	1.438
565.89	1.446
566.08	1.446
566.28	1.442
566.47	1.447
566.67	1.457
566.87	1.470
567.06	1.476
567.26	1.468
567.46	1.485
567.65	1.468
567.85	1.469
568.04	1.458
568.24	1.454
568.44	1.453
568.63	1.461
568.83	1.467
569.02	1.466
569.22	1.472
569.42	1.487
569.61	1.471
569.81	1.481
570.00	1.468
570.20	1.457
570.40	1.459
570.59	1.460
570.79	1.445
570.98	1.438
571.18	1.427
571.38	1.423
571.57	1.423
571.77	1.429
571.96	1.418
572.16	1.432
572.35	1.437
572.55	1.433
572.75	1.439
572.94	1.441
573.14	1.433
573.33	1.436
573.53	1.433
573.73	1.426
573.92	1.427
574.12	1.439
574.31	1.428
574.51	1.424
574.70	1.416
574.90	1.412
575.09	1.408
575.29	1.410
575.49	1.404
575.68	1.409
575.88	1.404
576.07	1.396
576.27	1.387
576.46	1.388
576.66	1.388
576.86	1.394
577.05	1.403
577.25	1.412
577.44	1.410
577.64	1.414
577.83	1.417
578.03	1.419
578.22	1.422
578.42	1.425
578.61	1.423
578.81	1.421
579.00	1.416
579.20	1.411
579.40	1.402
579.59	1.412
579.79	1.416
579.98	1.413
580.18	1.409
580.37	1.410
580.57	1.408
580.76	1.410
580.96	1.413
581.15	1.421
581.35	1.415
581.54	1.422
581.74	1.412
581.93	1.411
582.13	1.408
582.32	1.414
582.52	1.409
582.71	1.411
582.91	1.419
583.10	1.423
583.30	1.413
583.49	1.422
583.69	1.414
583.88	1.417
584.08	1.408
584.27	1.406
584.47	1.401
584.66	1.406
584.86	1.404
585.05	1.395
585.25	1.395
585.44	1.399
585.64	1.402
585.83	1.415
586.03	1.413
586.22	1.422
586.42	1.428
586.61	1.431
586.81	1.428
587.00	1.431
587.20	1.431
587.39	1.429
587.59	1.429
587.78	1.424
587.98	1.411
588.17	1.416
588.37	1.416
588.56	1.408
588.76	1.409
588.95	1.408
589.15	1.416
589.34	1.419
589.54	1.418
589.73	1.425
589.92	1.422
590.12	1.432
590.31	1.440
590.51	1.442
590.70	1.451
590.90	1.452
591.09	1.454
591.29	1.448
591.48	1.448
591.68	1.446
591.87	1.443
592.06	1.448
592.26	1.441
592.45	1.437
592.65	1.427
592.84	1.430
593.04	1.429
593.23	1.428
593.43	1.429
593.62	1.428
593.81	1.426
594.01	1.430
594.20	1.430
594.40	1.436
594.59	1.432
594.79	1.435
594.98	1.435
595.17	1.437
595.37	1.453
595.56	1.448
595.76	1.460
595.95	1.469
596.14	1.466
596.34	1.466
596.53	1.460
596.73	1.458
596.92	1.456
597.12	1.445
597.31	1.436
597.50	1.421
597.70	1.416
597.89	1.405
598.09	1.406
598.28	1.397
598.47	1.389
598.67	1.390
598.86	1.396
599.06	1.402
599.25	1.398
599.44	1.402
599.64	1.402
599.83	1.416
600.03	1.410
600.22	1.405
600.41	1.403
600.61	1.407
600.80	1.407
601.00	1.401
601.19	1.406
601.38	1.411
601.58	1.413
601.77	1.422
601.96	1.409
602.16	1.416
602.35	1.416
602.55	1.433
602.74	1.432
602.93	1.435
603.13	1.430
603.32	1.426
603.51	1.437
603.71	1.431
603.90	1.422
604.09	1.424
604.29	1.418
604.48	1.418
604.68	1.407
604.87	1.410
605.06	1.413
605.26	1.417
605.45	1.408
605.64	1.405
605.84	1.408
606.03	1.406
606.22	1.408
606.42	1.416
606.61	1.425
606.80	1.428
607.00	1.439
607.19	1.435
607.38	1.446
607.58	1.460
607.77	1.455
607.96	1.459
608.16	1.474
608.35	1.473
608.54	1.475
608.74	1.471
608.93	1.463
609.12	1.446
609.32	1.455
609.51	1.440
609.70	1.426
609.90	1.428
610.09	1.429
610.28	1.416
610.48	1.421
610.67	1.430
610.86	1.437
611.06	1.442
611.25	1.440
611.44	1.430
611.64	1.444
611.83	1.450
612.02	1.455
612.21	1.453
612.41	1.457
612.60	1.464
612.79	1.450
612.99	1.447
613.18	1.448
613.37	1.459
613.57	1.475
613.76	1.461
613.95	1.467
614.14	1.463
614.34	1.461
614.53	1.457
614.72	1.446
614.92	1.462
615.11	1.463
615.30	1.472
615.49	1.482
615.69	1.467
615.88	1.479
616.07	1.479
616.26	1.493
616.46	1.497
616.65	1.509
616.84	1.533
617.04	1.520
617.23	1.506
617.42	1.498
617.61	1.478
617.81	1.475
618.00	1.489
618.19	1.483
618.38	1.474
618.58	1.493
618.77	1.493
618.96	1.489
619.15	1.508
619.35	1.535
619.54	1.541
619.73	1.552
619.92	1.565
620.12	1.537
620.31	1.549
620.50	1.537
620.69	1.526
620.89	1.521
621.08	1.530
621.27	1.494
621.46	1.495
621.66	1.486
621.85	1.490
622.04	1.503
622.23	1.530
622.43	1.529
622.62	1.545
622.81	1.525
623.00	1.517
623.19	1.491
623.39	1.502
623.58	1.493
623.77	1.506
623.96	1.499
624.16	1.501
624.35	1.497
624.54	1.489
624.73	1.481
624.92	1.501
625.12	1.498
625.31	1.495
625.50	1.490
625.69	1.487
625.88	1.500
626.08	1.513
626.27	1.510
626.46	1.507
626.65	1.496
626.84	1.486
627.04	1.470
627.23	1.497
627.42	1.509
627.61	1.513
627.80	1.494
628.00	1.501
628.19	1.475
628.38	1.452
628.57	1.451
628.76	1.469
628.96	1.476
629.15	1.477
629.34	1.483
629.53	1.491
629.72	1.504
629.91	1.527
630.11	1.496
630.30	1.508
630.49	1.508
630.68	1.511
630.87	1.515
631.06	1.515
631.26	1.527
631.45	1.520
631.64	1.498
631.83	1.489
632.02	1.492
632.21	1.505
632.41	1.504
632.60	1.511
632.79	1.498
632.98	1.495
633.17	1.504
633.36	1.497
633.55	1.490
633.75	1.525
633.94	1.523
634.13	1.518
634.32	1.523
634.51	1.536
634.70	1.536
634.89	1.542
635.09	1.536
635.28	1.527
635.47	1.532
635.66	1.518
635.85	1.526
636.04	1.544
636.23	1.549
636.43	1.530
636.62	1.541
636.81	1.542
637.00	1.522
637.19	1.512
637.38	1.530
637.57	1.555
637.76	1.580
637.95	1.549
638.15	1.526
638.34	1.543
638.53	1.542
638.72	1.518
638.91	1.532
639.10	1.556
639.29	1.554
639.48	1.536
639.67	1.502
639.87	1.511
640.06	1.539
640.25	1.557
640.44	1.511
640.63	1.530
640.82	1.543
641.01	1.552
641.20	1.564
641.39	1.591
641.58	1.615
641.78	1.621
641.97	1.612
642.16	1.578
642.35	1.562
642.54	1.573
642.73	1.578
642.92	1.580
643.11	1.582
643.30	1.575
643.49	1.550
643.68	1.530
643.87	1.529
644.06	1.518
644.25	1.546
644.45	1.586
644.64	1.621
644.83	1.600
645.02	1.616
645.21	1.613
645.40	1.585
645.59	1.616
645.78	1.624
645.97	1.630
646.16	1.615
646.35	1.596
646.54	1.540
646.73	1.520
646.92	1.541
647.11	1.537
647.30	1.536
647.49	1.532
647.68	1.526
647.88	1.525
648.07	1.552
648.26	1.543
648.45	1.527
648.64	1.570
648.83	1.548
649.02	1.523
649.21	1.490
649.40	1.491
649.59	1.494
649.78	1.507
649.97	1.492
650.16	1.469
650.35	1.464
650.54	1.486
650.73	1.458
650.92	1.476
651.11	1.491
651.30	1.505
651.49	1.497
651.68	1.501
651.87	1.486
652.06	1.501
652.25	1.525
652.44	1.557
652.63	1.547
652.82	1.545
653.01	1.530
653.20	1.504
653.39	1.511
653.58	1.490
653.77	1.473
653.96	1.464
654.15	1.453
654.34	1.433
654.53	1.427
654.72	1.412
654.91	1.422
655.10	1.421
655.29	1.426
655.48	1.416
655.67	1.420
655.86	1.421
656.05	1.422
656.24	1.419
656.43	1.416
656.62	1.420
656.81	1.418
657.00	1.405
657.19	1.416
657.38	1.413
657.57	1.425
657.76	1.422
657.95	1.435
658.14	1.438
658.33	1.458
658.51	1.467
658.70	1.468
658.89	1.484
659.08	1.503
659.27	1.488
659.46	1.500
659.65	1.499
659.84	1.534
660.03	1.536
660.22	1.526
660.41	1.517
660.60	1.548
660.79	1.556
660.98	1.541
661.17	1.532
661.36	1.551
661.55	1.573
661.74	1.544
661.92	1.519
662.11	1.514
662.30	1.521
662.49	1.533
662.68	1.523
662.87	1.488
663.06	1.505
663.25	1.497
663.44	1.486
663.63	1.475
663.82	1.487
664.01	1.477
664.20	1.480
664.38	1.481
664.57	1.465
664.76	1.444
664.95	1.449
665.14	1.433
665.33	1.461
665.52	1.448
665.71	1.433
665.90	1.450
666.09	1.456
666.28	1.446
666.46	1.404
666.65	1.398
666.84	1.416
667.03	1.438
667.22	1.445
667.41	1.431
667.60	1.454
667.79	1.449
667.98	1.424
668.16	1.414
668.35	1.413
668.54	1.452
668.73	1.454
668.92	1.460
669.11	1.458
669.30	1.475
669.49	1.489
669.67	1.494
669.86	1.496
670.05	1.490
670.24	1.502
670.43	1.523
670.62	1.518
670.81	1.515
671.00	1.493
671.18	1.469
671.37	1.463
671.56	1.449
671.75	1.435
671.94	1.454
672.13	1.472
672.32	1.479
672.50	1.476
672.69	1.467
672.88	1.464
673.07	1.469
673.26	1.475
673.45	1.469
673.63	1.472
673.82	1.487
674.01	1.469
674.20	1.463
674.39	1.465
674.58	1.467
674.76	1.497
674.95	1.522
675.14	1.536
675.33	1.535
675.52	1.548
675.71	1.553
675.89	1.553
676.08	1.575
676.27	1.580
676.46	1.588
676.65	1.590
676.84	1.550
677.02	1.527
677.21	1.500
677.40	1.504
677.59	1.512
677.78	1.498
677.96	1.480
678.15	1.477
678.34	1.483
678.53	1.458
678.72	1.428
678.90	1.451
679.09	1.469
679.28	1.495
679.47	1.493
679.66	1.479
679.84	1.493
680.03	1.504
680.22	1.506
680.41	1.490
680.60	1.502
680.78	1.523
680.97	1.519
681.16	1.504
681.35	1.485
681.53	1.483
681.72	1.485
681.91	1.465
682.10	1.457
682.29	1.439
682.47	1.448
682.66	1.447
682.85	1.441
683.04	1.446
683.22	1.435
683.41	1.430
683.60	1.435
683.79	1.423
683.97	1.422
684.16	1.430
684.35	1.442
684.54	1.438
684.72	1.434
684.91	1.433
685.10	1.417
685.29	1.421
685.47	1.439
685.66	1.444
685.85	1.444
686.04	1.452
686.22	1.433
686.41	1.419
686.60	1.416
686.79	1.412
686.97	1.407
687.16	1.404
687.35	1.402
687.54	1.385
687.72	1.365
687.91	1.372
688.10	1.362
688.29	1.368
688.47	1.367
688.66	1.376
688.85	1.373
689.03	1.386
689.22	1.382
689.41	1.381
689.60	1.391
689.78	1.412
689.97	1.409
690.16	1.416
690.34	1.425
690.53	1.435
690.72	1.418
690.91	1.430
691.09	1.429
691.28	1.448
691.47	1.468
691.65	1.472
691.84	1.466
692.03	1.469
692.21	1.468
692.40	1.457
692.59	1.456
692.77	1.473
692.96	1.466
693.15	1.455
693.34	1.445
693.52	1.435
693.71	1.425
693.90	1.420
694.08	1.410
694.27	1.421
694.46	1.417
694.64	1.410
694.83	1.395
695.02	1.409
695.20	1.421
695.39	1.430
695.58	1.421
695.76	1.418
695.95	1.410
696.14	1.412
696.32	1.398
696.51	1.408
696.70	1.402
696.88	1.400
697.07	1.387
697.26	1.375
697.44	1.371
697.63	1.376
697.81	1.375
698.00	1.392
698.19	1.388
698.37	1.392
698.56	1.382
698.75	1.394
698.93	1.394
699.12	1.404
699.31	1.397
699.49	1.396
699.68	1.397
699.87	1.392
700.05	1.373
700.24	1.378
700.42	1.375
700.61	1.386
700.80	1.385
700.98	1.386
701.17	1.375
701.36	1.380
701.54	1.369
701.73	1.361
701.91	1.367
702.10	1.373
702.29	1.387
702.47	1.400
702.66	1.408
702.84	1.401
703.03	1.399
703.22	1.401
703.40	1.412
703.59	1.421
703.77	1.418
703.96	1.428
704.15	1.432
704.33	1.423
704.52	1.404
704.70	1.393
704.89	1.392
705.08	1.410
705.26	1.413
705.45	1.402
705.63	1.392
705.82	1.410
706.00	1.397
706.19	1.396
706.38	1.394
706.56	1.397
706.75	1.403
706.93	1.413
707.12	1.403
707.30	1.395
707.49	1.400
707.68	1.413
707.86	1.401
708.05	1.402
708.23	1.411
708.42	1.410
708.60	1.407
708.79	1.395
708.98	1.391
709.16	1.387
709.35	1.389
709.53	1.386
709.72	1.391
709.90	1.387
710.09	1.387
710.27	1.376
710.46	1.363
710.64	1.366
710.83	1.363
711.02	1.366
711.20	1.381
711.39	1.387
711.57	1.390
711.76	1.383
711.94	1.400
712.13	1.406
712.31	1.412
712.50	1.435
712.68	1.451
712.87	1.452
713.05	1.457
713.24	1.443
713.42	1.437
713.61	1.436
713.79	1.451
713.98	1.439
714.16	1.427
714.35	1.424
714.54	1.427
714.72	1.425
714.91	1.428
715.09	1.417
715.28	1.402
715.46	1.408
715.65	1.410
715.83	1.410
716.02	1.418
716.20	1.431
716.39	1.444
716.57	1.437
716.76	1.433
716.94	1.442
717.12	1.442
717.31	1.451
717.49	1.454
717.68	1.446
717.86	1.428
718.05	1.412
718.23	1.394
718.42	1.375
718.60	1.353
718.79	1.347
718.97	1.333
719.16	1.336
719.34	1.335
719.53	1.340
719.71	1.351
719.90	1.347
720.08	1.343
720.27	1.345
720.45	1.344
720.63	1.348
720.82	1.336
721.00	1.337
721.19	1.329
721.37	1.330
721.56	1.308
721.74	1.302
721.93	1.294
722.11	1.289
722.30	1.298
722.48	1.295
722.66	1.297
722.85	1.304
723.03	1.297
723.22	1.314
723.40	1.325
723.59	1.339
723.77	1.324
723.95	1.336
724.14	1.334
724.32	1.325
724.51	1.321
724.69	1.345
724.88	1.356
725.06	1.361
725.24	1.349
725.43	1.357
725.61	1.381
725.80	1.412
725.98	1.433
726.16	1.445
726.35	1.446
726.53	1.459
726.72	1.431
726.90	1.413
727.09	1.420
727.27	1.407
727.45	1.399
727.64	1.351
727.82	1.328
728.01	1.302
728.19	1.322
728.37	1.316
728.56	1.305
728.74	1.302
728.92	1.322
729.11	1.335
729.29	1.344
729.48	1.342
729.66	1.378
729.84	1.385
730.03	1.390
730.21	1.379
730.40	1.389
730.58	1.425
730.76	1.439
730.95	1.444
731.13	1.431
731.31	1.410
731.50	1.369
731.68	1.365
731.86	1.376
732.05	1.361
732.23	1.354
732.42	1.385
732.60	1.342
732.78	1.333
732.97	1.286
733.15	1.278
733.33	1.283
733.52	1.284
733.70	1.277
733.88	1.251
734.07	1.244
734.25	1.224
734.43	1.221
734.62	1.236
734.80	1.250
734.98	1.271
735.17	1.261
735.35	1.273
735.53	1.299
735.72	1.270
735.90	1.267
736.08	1.281
736.27	1.291
736.45	1.288
736.63	1.309
736.82	1.283
737.00	1.266
737.18	1.289
737.37	1.259
737.55	1.236
737.73	1.241
737.92	1.254
738.10	1.291
738.28	1.284
738.46	1.257
738.65	1.222
738.83	1.231
739.01	1.236
739.20	1.214
739.38	1.225
739.56	1.279
739.75	1.301
739.93	1.362
740.11	1.312
740.29	1.295
740.48	1.334
740.66	1.362
740.84	1.390
741.03	1.414
741.21	1.414
741.39	1.502
741.57	1.469
741.76	1.437
741.94	1.390
742.12	1.457
742.31	1.504
742.49	1.543
742.67	1.537
742.85	1.438
743.04	1.561
743.22	1.575
743.40	1.456
743.58	1.514
743.77	1.581
743.95	1.713
744.13	1.557
744.31	1.553
744.50	1.431
744.68	1.387
744.86	1.418
745.04	1.297
745.23	1.315
745.41	1.320
745.59	1.273
745.77	1.322
745.96	1.340
746.14	1.335
746.32	1.428
746.50	1.435
746.69	1.580
746.87	1.675
747.05	1.705
747.23	2.073
747.42	-0.000
747.60	2.501
747.78	2.076
747.96	1.618
748.14	1.732
748.33	1.600
748.51	1.688
748.69	1.789
748.87	1.685
749.06	1.904
749.24	1.641
749.42	1.493
749.60	1.618
749.78	1.579
749.97	1.774
750.15	1.960
750.33	1.843
750.51	1.817
750.69	1.567
750.88	1.488
751.06	1.452
751.24	1.407
751.42	1.519
751.60	1.412
751.79	1.379
751.97	1.428
752.15	1.364
752.33	1.405
752.51	1.331
752.69	1.440
752.88	1.472
753.06	1.396
753.24	1.480
753.42	1.389
753.60	1.409
753.78	1.471
753.97	1.336
754.15	1.384
754.33	1.346
754.51	1.421
754.69	1.364
754.87	1.332
755.06	1.409
755.24	1.318
755.42	1.400
755.60	1.439
755.78	1.372
755.96	1.382
756.15	1.358
756.33	1.340
756.51	1.292
756.69	1.326
756.87	1.386
757.05	1.327
757.23	1.375
757.42	1.336
757.60	1.357
757.78	1.394
757.96	1.441
758.14	1.412
758.32	1.436
758.50	1.407
758.69	1.355
758.87	1.366
759.05	1.378
759.23	1.347
759.41	1.331
759.59	1.335
759.77	1.318
759.95	1.309
760.13	1.281
760.32	1.262
760.50	1.291
760.68	1.259
760.86	1.252
761.04	1.242
761.22	1.302
761.40	1.250
761.58	1.207
761.76	1.177
761.95	1.155
762.13	1.187
762.31	1.192
762.49	1.197
762.67	1.192
762.85	1.204
763.03	1.255
763.21	1.241
763.39	1.265
763.57	1.270
763.75	1.313
763.94	1.343
764.12	1.302
764.30	1.314
764.48	1.301
764.66	1.346
764.84	1.331
765.02	1.259
765.20	1.220
765.38	1.233
765.56	1.257
765.74	1.227
765.92	1.239
766.10	1.244
766.28	1.237
766.46	1.216
766.65	1.225
766.83	1.201
767.01	1.219
767.19	1.221
767.37	1.234
767.55	1.225
767.73	1.228
767.91	1.220
768.09	1.269
768.27	1.251
768.45	1.292
768.63	1.235
768.81	1.229
768.99	1.247
769.17	1.243
769.35	1.220
769.53	1.224
769.71	1.231
769.89	1.228
770.07	1.222
770.25	1.276
770.43	1.329
770.61	1.339
770.79	1.315
770.97	1.296
771.15	1.283
771.33	1.283
771.51	1.300
771.69	1.283
771.87	1.265
772.05	1.253
772.24	1.227
772.42	1.172
772.60	1.167
772.78	1.191
772.96	1.165
773.14	1.231
773.32	1.272
773.49	1.246
773.67	1.240
773.85	1.255
774.03	1.234
774.21	1.230
774.39	1.282
774.57	1.301
774.75	1.312
774.93	1.340
775.11	1.259
775.29	1.210
775.47	1.185
775.65	1.218
775.83	1.260
776.01	1.262
776.19	1.286
776.37	1.265
776.55	1.268
776.73	1.266
776.91	1.247
777.09	1.293
777.27	1.377
777.45	1.478
777.63	1.517
777.81	1.497
777.99	1.493
778.17	1.509
778.35	1.518
778.53	1.625
778.71	1.589
778.89	1.637
779.07	1.643
779.24	1.618
779.42	1.472
779.60	1.422
779.78	1.334
779.96	1.350
780.14	1.341
780.32	1.297
780.50	1.259
780.68	1.264
780.86	1.274
781.04	1.249
781.22	1.193
781.40	1.208
781.58	1.214
781.75	1.227
781.93	1.256
782.11	1.245
782.29	1.240
782.47	1.261
782.65	1.307
782.83	1.299
783.01	1.315
783.19	1.329
783.37	1.337
783.55	1.343
783.72	1.347
783.90	1.281
784.08	1.257
784.26	1.329
784.44	1.280
784.62	1.278
784.80	1.287
784.98	1.273
785.16	1.309
785.33	1.295
785.51	1.343
785.69	1.390
785.87	1.473
786.05	1.475
786.23	1.372
786.41	1.451
786.59	1.427
786.77	1.419
786.94	1.394
787.12	1.357
787.30	1.337
787.48	1.295
787.66	1.295
787.84	1.245
788.02	1.281
788.19	1.286
788.37	1.242
788.55	1.226
788.73	1.215
788.91	1.243
789.09	1.251
789.27	1.316
789.44	1.340
789.62	1.319
789.80	1.312
789.98	1.306
790.16	1.334
790.34	1.361
790.51	1.411
790.69	1.420
790.87	1.443
791.05	1.513
791.23	1.436
791.41	1.416
791.58	1.382
791.76	1.447
791.94	1.421
792.12	1.428
792.30	1.388
792.48	1.399
792.65	1.370
792.83	1.348
793.01	1.309
793.19	1.361
793.37	1.347
793.54	1.392
793.72	1.340
793.90	1.366
794.08	1.360
794.26	1.403
794.43	1.398
794.61	1.493
794.79	1.459
794.97	1.526
795.15	1.472
795.32	1.467
795.50	1.483
795.68	1.549
795.86	1.505
796.04	1.551
796.21	1.545
796.39	1.531
796.57	1.431
796.75	1.470
796.92	1.380
797.10	1.389
797.28	1.433
797.46	1.415
797.64	1.375
797.81	1.388
797.99	1.336
798.17	1.324
798.35	1.306
798.52	1.321
798.70	1.308
798.88	1.329
799.06	1.301
799.23	1.268
799.41	1.259
799.59	1.278
799.77	1.282
799.94	1.286
800.12	1.274
800.30	1.251
800.48	1.244
800.65	1.283
800.83	1.307
801.01	1.360
801.19	1.346
801.36	1.361
801.54	1.389
801.72	1.378
801.90	1.405
802.07	1.416
802.25	1.469
802.43	1.596
802.60	1.532
802.78	1.515
802.96	1.557
803.14	1.647
803.31	1.596
803.49	1.589
803.67	1.613
803.84	1.566
804.02	1.591
804.20	1.616
804.38	1.501
804.55	1.517
804.73	1.537
804.91	1.519
805.08	1.448
805.26	1.474
805.44	1.417
805.61	1.426
805.79	1.484
805.97	1.485
806.15	1.469
806.32	1.542
806.50	1.562
806.68	1.560
806.85	1.462
807.03	1.515
807.21	1.449
807.38	1.480
807.56	1.521
807.74	1.463
807.91	1.518
808.09	1.508
808.27	1.429
808.44	1.406
808.62	1.389
808.80	1.476
808.97	1.446
809.15	1.483
809.33	1.446
809.50	1.399
809.68	1.420
809.86	1.370
810.03	1.330
810.21	1.369
810.39	1.331
810.56	1.328
810.74	1.255
810.91	1.254
811.09	1.269
811.27	1.278
811.44	1.298
811.62	1.322
811.80	1.323
811.97	1.377
812.15	1.393
812.33	1.422
812.50	1.506
812.68	1.579
812.85	1.592
813.03	1.604
813.21	1.631
813.38	1.685
813.56	1.621
813.74	1.589
813.91	1.507
814.09	1.449
814.26	1.501
814.44	1.415
814.62	1.399
814.79	1.418
814.97	1.398
815.14	1.410
815.32	1.242
815.50	1.241
815.67	1.256
815.85	1.293
816.02	1.289
816.20	1.266
816.38	1.304
816.55	1.304
816.73	1.280
816.90	1.274
817.08	1.246
817.26	1.376
817.43	1.441
817.61	1.421
817.78	1.380
817.96	1.475
818.13	1.473
818.31	1.456
818.49	1.444
818.66	1.519
818.84	1.538
819.01	1.615
819.19	1.610
819.36	1.613
819.54	1.634
819.71	1.676
819.89	1.561
820.07	1.558
820.24	1.468
820.42	1.564
820.59	1.514
820.77	1.511
820.94	1.473
821.12	1.464
821.29	1.397
821.47	1.497
821.64	1.526
821.82	1.553
822.00	1.563
822.17	1.780
822.35	1.677
822.52	1.674
822.70	1.793
822.87	1.858
823.05	1.919
823.22	2.075
823.40	1.978
823.57	1.846
823.75	2.309
823.92	2.742
824.10	1.973
824.27	1.842
824.45	2.158
824.62	1.869
824.80	1.837
824.97	2.028
825.15	1.834
825.32	1.786
825.50	1.829
825.67	1.594
825.85	1.535
826.02	1.662
826.20	1.704
826.37	1.516
826.55	1.862
826.72	1.869
826.90	1.699
827.07	1.706
827.25	1.792
827.42	1.785
827.60	1.837
827.77	1.982
827.95	-0.000
828.12	-0.000
828.30	-0.000
828.47	-0.000
828.65	-0.000
828.82	-0.000
829.00	-0.000
829.17	-0.000
829.34	-0.000
829.52	-0.000
829.69	-0.000
829.87	-0.000
830.04	-0.000
830.22	-0.000
830.39	-0.000
830.57	-0.000
830.74	-0.000
830.92	-0.000
831.09	-0.000
831.26	-0.000
831.44	-0.000
831.61	-0.000
831.79	-0.000
831.96	-0.000
832.14	-0.000
832.31	-0.000
832.49	-0.000
832.66	-0.000
832.83	-0.000
833.01	-0.000
833.18	-0.000
833.36	-0.000
833.53	-0.000
833.70	-0.000
833.88	-0.000
834.05	-0.000
834.23	-0.000
834.40	-0.000
834.58	-0.000
834.75	-0.000
834.92	-0.000
835.10	-0.000
835.27	-0.000
835.45	-0.000
835.62	-0.000
835.79	-0.000
835.97	-0.000
836.14	-0.000
836.32	-0.000
836.49	-0.000
836.66	-0.000
836.84	-0.000
837.01	-0.000
837.18	-0.000
837.36	-0.000
837.53	-0.000
837.71	-0.000
837.88	-0.000
838.05	-0.000
838.23	-0.000
838.40	-0.000
838.58	-0.000
838.75	-0.000
838.92	-0.000
839.10	-0.000
839.27	-0.000
839.44	-0.000
839.62	-0.000
839.79	-0.000
839.96	-0.000
840.14	-0.000
840.31	-0.000
840.48	-0.000
840.66	-0.000
840.83	-0.000
841.01	-0.000
841.18	-0.000
841.35	-0.000
841.53	-0.000
841.70	-0.000
841.87	-0.000
842.05	-0.000
842.22	-0.000
842.39	-0.000
842.57	-0.000
842.74	-0.000
842.91	-0.000
843.09	-0.000
843.26	-0.000
843.43	-0.000
843.60	-0.000
843.78	-0.000
843.95	-0.000
844.12	-0.000
844.30	-0.000
844.47	-0.000
844.64	-0.000
844.82	-0.000
844.99	-0.000
845.16	-0.000
845.34	-0.000
845.51	-0.000
845.68	-0.000
845.85	-0.000
846.03	-0.000
846.20	-0.000
846.37	-0.000
846.55	-0.000
846.72	-0.000
846.89	-0.000
847.06	-0.000
847.24	-0.000
847.41	-0.000
847.58	-0.000
847.76	-0.000
847.93	-0.000
848.10	-0.000
848.27	-0.000
848.45	-0.000
848.62	-0.000
848.79	-0.000
848.97	-0.000
849.14	-0.000
849.31	-0.000
849.48	-0.000
849.66	-0.000
849.83	-0.000
850.00	-0.000
850.17	-0.000
850.35	-0.000
850.52	-0.000
850.69	-0.000
850.86	-0.000
851.04	-0.000
851.21	-0.000
851.38	-0.000
851.55	-0.000
851.72	-0.000
851.90	-0.000
852.07	-0.000
852.24	-0.000
852.41	-0.000
852.59	-0.000
852.76	-0.000
852.93	-0.000
853.10	-0.000
853.28	-0.000
853.45	-0.000
853.62	-0.000
853.79	-0.000
853.96	-0.000
854.14	-0.000
854.31	-0.000
854.48	-0.000
854.65	-0.000
854.82	-0.000
855.00	-0.000
855.17	-0.000
855.34	-0.000
855.51	-0.000
855.68	-0.000
855.86	-0.000
856.03	-0.000
856.20	-0.000
856.37	-0.000
856.54	-0.000
856.72	-0.000
856.89	-0.000
857.06	-0.000
857.23	-0.000
857.40	-0.000
857.57	-0.000
857.75	-0.000
857.92	-0.000
858.09	-0.000
858.26	-0.000
858.43	-0.000
858.60	-0.000
858.78	-0.000
858.95	-0.000
859.12	-0.000
859.29	-0.000
859.46	-0.000
859.63	-0.000
859.81	-0.000
859.98	-0.000
860.15	-0.000
860.32	-0.000
860.49	-0.000
860.66	-0.000
860.83	-0.000
861.01	-0.000
861.18	-0.000
861.35	-0.000
861.52	-0.000
861.69	-0.000
861.86	-0.000
862.03	-0.000
862.21	-0.000
862.38	-0.000
862.55	-0.000
862.72	-0.000
862.89	-0.000
863.06	-0.000
863.23	-0.000
863.40	-0.000
863.58	-0.000
863.75	-0.000
863.92	-0.000
864.09	-0.000
864.26	-0.000
864.43	-0.000
864.60	-0.000
864.77	-0.000
864.94	-0.000
865.11	-0.000
865.29	-0.000
865.46	-0.000
865.63	-0.000
865.80	-0.000
865.97	-0.000
866.14	-0.000
866.31	-0.000
866.48	-0.000
866.65	-0.000
866.82	-0.000
866.99	-0.000
867.16	-0.000
867.34	-0.000
867.51	-0.000
867.68	-0.000
867.85	-0.000
868.02	-0.000
868.19	-0.000
868.36	-0.000
868.53	-0.000
868.70	-0.000
868.87	-0.000
869.04	-0.000
869.21	-0.000
869.38	-0.000
869.55	-0.000
869.72	-0.000
869.89	-0.000
870.06	-0.000
870.24	-0.000
870.41	-0.000
870.58	-0.000
870.75	-0.000
870.92	-0.000
871.09	-0.000
871.26	-0.000
871.43	-0.000
871.60	-0.000
871.77	-0.000
871.94	-0.000
872.11	-0.000
872.28	-0.000
872.45	-0.000
872.62	-0.000
872.79	-0.000
872.96	-0.000
873.13	-0.000
873.30	-0.000
873.47	-0.000
873.64	-0.000
873.81	-0.000
873.98	-0.000
874.15	-0.000
874.32	-0.000
874.49	-0.000
874.66	-0.000
874.83	-0.000
875.00	-0.000
875.17	-0.000
875.34	-0.000
875.51	-0.000
875.68	-0.000
875.85	-0.000
876.02	-0.000
876.19	-0.000
876.36	-0.000
876.53	-0.000
876.70	-0.000
876.87	-0.000
877.04	-0.000
877.21	-0.000
877.38	-0.000
877.55	-0.000
877.72	-0.000
877.89	-0.000
878.06	-0.000
878.23	-0.000
878.39	-0.000
878.56	-0.000
878.73	-0.000
878.90	-0.000
879.07	-0.000
879.24	-0.000
879.41	-0.000
879.58	-0.000
879.75	-0.000
879.92	-0.000
880.09	-0.000
880.26	-0.000
880.43	-0.000
880.60	-0.000
880.77	-0.000
880.94	-0.000
881.11	-0.000
881.27	-0.000
881.44	-0.000
881.61	-0.000
881.78	-0.000
881.95	-0.000
882.12	-0.000
882.29	-0.000
882.46	-0.000
882.63	-0.000
882.80	-0.000
882.97	-0.000
883.14	-0.000
883.30	-0.000
883.47	-0.000
883.64	-0.000
883.81	-0.000
883.98	-0.000
884.15	-0.000
884.32	-0.000
884.49	-0.000
884.66	-0.000
884.82	-0.000
884.99	-0.000
885.16	-0.000
885.33	-0.000
885.50	-0.000
885.67	-0.000
885.84	-0.000
886.01	-0.000
886.17	-0.000
886.34	-0.000
886.51	-0.000
886.68	-0.000
886.85	-0.000
887.02	-0.000
887.19	-0.000
887.36	-0.000
887.52	-0.000
887.69	-0.000
887.86	-0.000
888.03	-0.000
888.20	-0.000
888.37	-0.000
888.54	-0.000
888.70	-0.000
888.87	-0.000
889.04	-0.000
889.21	-0.000
889.38	-0.000
889.55	-0.000
889.71	-0.000
889.88	-0.000
890.05	-0.000
890.22	-0.000
890.39	-0.000
>>>>>End Processed Spectral Data<<<<<
