SpectraSuite Data File
++++++++++++++++++++++++++++++++++++
Date: Fri Jun 19 17:03:08 CEST 2015
User: introlabs
Dark Spectrum Present: Yes
Reference Spectrum Present: Yes
Number of Sampled Component Spectra: 1
Spectrometers: USB4H08886
Integration Time (usec): 745692 (USB4H08886)
Spectra Averaged: 5 (USB4H08886)
Boxcar Smoothing: 5 (USB4H08886)
Correct for Electrical Dark: Yes (USB4H08886)
Strobe/Lamp Enabled: No (USB4H08886)
Correct for Detector Non-linearity: Yes (USB4H08886)
Correct for Stray Light: Yes (USB4H08886)
Number of Pixels in Processed Spectrum: 3648
>>>>>Begin Processed Spectral Data<<<<<
178.14	-0.000
178.36	-0.000
178.57	-0.000
178.79	-0.000
179.01	-0.000
179.22	-0.000
179.44	-0.000
179.65	-0.000
179.87	-0.000
180.08	-0.000
180.30	-0.000
180.52	-0.000
180.73	-0.000
180.95	-0.000
181.16	-0.000
181.38	-0.000
181.59	-0.000
181.81	-0.000
182.03	-0.000
182.24	-0.000
182.46	-0.000
182.67	-0.000
182.89	-0.000
183.10	-0.000
183.32	-0.000
183.54	-0.000
183.75	-0.000
183.97	-0.000
184.18	-0.000
184.40	-0.000
184.61	-0.000
184.83	-0.000
185.04	-0.000
185.26	-0.000
185.48	-0.000
185.69	-0.000
185.91	-0.000
186.12	-0.000
186.34	-0.000
186.55	-0.000
186.77	-0.000
186.98	-0.000
187.20	-0.000
187.42	-0.000
187.63	-0.000
187.85	-0.000
188.06	-0.000
188.28	-0.000
188.49	-0.000
188.71	-0.000
188.92	-0.000
189.14	-0.000
189.36	-0.000
189.57	-0.000
189.79	-0.000
190.00	-0.000
190.22	-0.000
190.43	-0.000
190.65	-0.000
190.86	-0.000
191.08	-0.000
191.29	-0.000
191.51	-0.000
191.72	-0.000
191.94	-0.000
192.16	-0.000
192.37	-0.000
192.59	-0.000
192.80	-0.000
193.02	-0.000
193.23	-0.000
193.45	-0.000
193.66	-0.000
193.88	-0.000
194.09	-0.000
194.31	-0.000
194.52	-0.000
194.74	-0.000
194.95	-0.000
195.17	-0.000
195.38	-0.000
195.60	-0.000
195.81	-0.000
196.03	-0.000
196.25	-0.000
196.46	-0.000
196.68	-0.000
196.89	-0.000
197.11	-0.000
197.32	-0.000
197.54	-0.000
197.75	-0.000
197.97	-0.000
198.18	-0.000
198.40	-0.000
198.61	-0.000
198.83	-0.000
199.04	-0.000
199.26	-0.000
199.47	-0.000
199.69	-0.000
199.90	-0.000
200.12	-0.000
200.33	-0.000
200.55	-0.000
200.76	-0.000
200.98	-0.000
201.19	-0.000
201.41	-0.000
201.62	-0.000
201.84	-0.000
202.05	-0.000
202.27	-0.000
202.48	-0.000
202.70	-0.000
202.91	-0.000
203.13	-0.000
203.34	-0.000
203.56	-0.000
203.77	-0.000
203.99	-0.000
204.20	-0.000
204.42	-0.000
204.63	-0.000
204.85	-0.000
205.06	-0.000
205.28	-0.000
205.49	-0.000
205.71	-0.000
205.92	-0.000
206.14	-0.000
206.35	-0.000
206.56	-0.000
206.78	-0.000
206.99	-0.000
207.21	-0.000
207.42	-0.000
207.64	-0.000
207.85	-0.000
208.07	-0.000
208.28	-0.000
208.50	-0.000
208.71	-0.000
208.93	-0.000
209.14	-0.000
209.36	-0.000
209.57	-0.000
209.79	-0.000
210.00	-0.000
210.22	-0.000
210.43	-0.000
210.64	-0.000
210.86	-0.000
211.07	-0.000
211.29	-0.000
211.50	-0.000
211.72	-0.000
211.93	-0.000
212.15	-0.000
212.36	-0.000
212.58	-0.000
212.79	-0.000
213.01	-0.000
213.22	-0.000
213.43	-0.000
213.65	-0.000
213.86	-0.000
214.08	-0.000
214.29	-0.000
214.51	-0.000
214.72	-0.000
214.94	-0.000
215.15	-0.000
215.36	-0.000
215.58	-0.000
215.79	-0.000
216.01	-0.000
216.22	-0.000
216.44	-0.000
216.65	-0.000
216.87	-0.000
217.08	-0.000
217.29	-0.000
217.51	-0.000
217.72	-0.000
217.94	-0.000
218.15	-0.000
218.37	-0.000
218.58	-0.000
218.80	-0.000
219.01	-0.000
219.22	-0.000
219.44	-0.000
219.65	-0.000
219.87	-0.000
220.08	-0.000
220.30	-0.000
220.51	-0.000
220.72	-0.000
220.94	-0.000
221.15	-0.000
221.37	-0.000
221.58	-0.000
221.79	-0.000
222.01	-0.000
222.22	-0.000
222.44	-0.000
222.65	-0.000
222.87	-0.000
223.08	-0.000
223.29	-0.000
223.51	-0.000
223.72	-0.000
223.94	-0.000
224.15	-0.000
224.36	-0.000
224.58	-0.000
224.79	-0.000
225.01	-0.000
225.22	-0.000
225.44	-0.000
225.65	-0.000
225.86	-0.000
226.08	-0.000
226.29	-0.000
226.51	-0.000
226.72	-0.000
226.93	-0.000
227.15	-0.000
227.36	-0.000
227.58	-0.000
227.79	-0.000
228.00	-0.000
228.22	-0.000
228.43	-0.000
228.65	-0.000
228.86	-0.000
229.07	-0.000
229.29	-0.000
229.50	-0.000
229.72	-0.000
229.93	-0.000
230.14	-0.000
230.36	-0.000
230.57	-0.000
230.78	-0.000
231.00	-0.000
231.21	-0.000
231.43	-0.000
231.64	-0.000
231.85	-0.000
232.07	-0.000
232.28	-0.000
232.50	-0.000
232.71	-0.000
232.92	-0.000
233.14	-0.000
233.35	-0.000
233.56	-0.000
233.78	-0.000
233.99	-0.000
234.21	-0.000
234.42	-0.000
234.63	-0.000
234.85	-0.000
235.06	-0.000
235.27	-0.000
235.49	-0.000
235.70	-0.000
235.91	-0.000
236.13	-0.000
236.34	-0.000
236.56	-0.000
236.77	-0.000
236.98	-0.000
237.20	-0.000
237.41	-0.000
237.62	-0.000
237.84	-0.000
238.05	-0.000
238.26	-0.000
238.48	-0.000
238.69	-0.000
238.91	-0.000
239.12	-0.000
239.33	-0.000
239.55	-0.000
239.76	-0.000
239.97	-0.000
240.19	-0.000
240.40	-0.000
240.61	-0.000
240.83	-0.000
241.04	-0.000
241.25	-0.000
241.47	-0.000
241.68	-0.000
241.89	-0.000
242.11	-0.000
242.32	-0.000
242.53	-0.000
242.75	-0.000
242.96	-0.000
243.17	-0.000
243.39	-0.000
243.60	-0.000
243.81	-0.000
244.03	-0.000
244.24	-0.000
244.45	-0.000
244.67	-0.000
244.88	-0.000
245.09	-0.000
245.31	-0.000
245.52	-0.000
245.73	-0.000
245.95	-0.000
246.16	-0.000
246.37	-0.000
246.59	-0.000
246.80	-0.000
247.01	-0.000
247.23	-0.000
247.44	-0.000
247.65	-0.000
247.87	-0.000
248.08	-0.000
248.29	-0.000
248.51	-0.000
248.72	-0.000
248.93	-0.000
249.15	-0.000
249.36	-0.000
249.57	-0.000
249.78	-0.000
250.00	-0.000
250.21	-0.000
250.42	-0.000
250.64	-0.000
250.85	-0.000
251.06	-0.000
251.28	-0.000
251.49	-0.000
251.70	-0.000
251.92	-0.000
252.13	-0.000
252.34	-0.000
252.55	-0.000
252.77	-0.000
252.98	-0.000
253.19	-0.000
253.41	-0.000
253.62	-0.000
253.83	-0.000
254.05	-0.000
254.26	-0.000
254.47	-0.000
254.68	-0.000
254.90	-0.000
255.11	-0.000
255.32	-0.000
255.54	-0.000
255.75	-0.000
255.96	-0.000
256.17	-0.000
256.39	-0.000
256.60	-0.000
256.81	-0.000
257.03	-0.000
257.24	-0.000
257.45	-0.000
257.66	-0.000
257.88	-0.000
258.09	-0.000
258.30	-0.000
258.51	-0.000
258.73	-0.000
258.94	-0.000
259.15	-0.000
259.37	-0.000
259.58	-0.000
259.79	-0.000
260.00	-0.000
260.22	-0.000
260.43	-0.000
260.64	-0.000
260.85	-0.000
261.07	-0.000
261.28	-0.000
261.49	-0.000
261.71	-0.000
261.92	-0.000
262.13	-0.000
262.34	-0.000
262.56	-0.000
262.77	-0.000
262.98	-0.000
263.19	-0.000
263.41	-0.000
263.62	-0.000
263.83	-0.000
264.04	-0.000
264.26	-0.000
264.47	-0.000
264.68	-0.000
264.89	-0.000
265.11	-0.000
265.32	-0.000
265.53	-0.000
265.74	-0.000
265.96	-0.000
266.17	-0.000
266.38	-0.000
266.59	-0.000
266.81	-0.000
267.02	-0.000
267.23	-0.000
267.44	-0.000
267.65	-0.000
267.87	-0.000
268.08	-0.000
268.29	-0.000
268.50	-0.000
268.72	-0.000
268.93	-0.000
269.14	-0.000
269.35	-0.000
269.57	-0.000
269.78	-0.000
269.99	-0.000
270.20	-0.000
270.41	-0.000
270.63	-0.000
270.84	-0.000
271.05	-0.000
271.26	-0.000
271.48	-0.000
271.69	-0.000
271.90	-0.000
272.11	-0.000
272.32	-0.000
272.54	-0.000
272.75	-0.000
272.96	-0.000
273.17	-0.000
273.39	-0.000
273.60	-0.000
273.81	-0.000
274.02	-0.000
274.23	-0.000
274.45	-0.000
274.66	-0.000
274.87	-0.000
275.08	-0.000
275.29	-0.000
275.51	-0.000
275.72	-0.000
275.93	-0.000
276.14	-0.000
276.35	-0.000
276.57	-0.000
276.78	-0.000
276.99	-0.000
277.20	-0.000
277.41	-0.000
277.63	-0.000
277.84	-0.000
278.05	-0.000
278.26	-0.000
278.47	-0.000
278.69	-0.000
278.90	-0.000
279.11	-0.000
279.32	-0.000
279.53	-0.000
279.74	-0.000
279.96	-0.000
280.17	-0.000
280.38	-0.000
280.59	-0.000
280.80	-0.000
281.02	-0.000
281.23	-0.000
281.44	-0.000
281.65	-0.000
281.86	-0.000
282.07	-0.000
282.29	-0.000
282.50	-0.000
282.71	-0.000
282.92	-0.000
283.13	-0.000
283.35	-0.000
283.56	-0.000
283.77	-0.000
283.98	-0.000
284.19	-0.000
284.40	-0.000
284.62	-0.000
284.83	-0.000
285.04	-0.000
285.25	-0.000
285.46	-0.000
285.67	-0.000
285.88	-0.000
286.10	-0.000
286.31	-0.000
286.52	-0.000
286.73	-0.000
286.94	-0.000
287.15	-0.000
287.37	-0.000
287.58	-0.000
287.79	-0.000
288.00	-0.000
288.21	-0.000
288.42	-0.000
288.63	-0.000
288.85	-0.000
289.06	-0.000
289.27	-0.000
289.48	-0.000
289.69	-0.000
289.90	-0.000
290.11	-0.000
290.33	-0.000
290.54	-0.000
290.75	-0.000
290.96	-0.000
291.17	-0.000
291.38	-0.000
291.59	-0.000
291.81	-0.000
292.02	-0.000
292.23	-0.000
292.44	-0.000
292.65	-0.000
292.86	-0.000
293.07	-0.000
293.28	-0.000
293.50	-0.000
293.71	-0.000
293.92	-0.000
294.13	-0.000
294.34	-0.000
294.55	-0.000
294.76	-0.000
294.97	-0.000
295.19	-0.000
295.40	-0.000
295.61	-0.000
295.82	-0.000
296.03	-0.000
296.24	-0.000
296.45	-0.000
296.66	-0.000
296.87	-0.000
297.09	-0.000
297.30	-0.000
297.51	-0.000
297.72	-0.000
297.93	-0.000
298.14	-0.000
298.35	-0.000
298.56	-0.000
298.77	-0.000
298.99	-0.000
299.20	-0.000
299.41	-0.000
299.62	-0.000
299.83	-0.000
300.04	-0.000
300.25	-0.000
300.46	-0.000
300.67	-0.000
300.88	-0.000
301.10	-0.000
301.31	-0.000
301.52	-0.000
301.73	-0.000
301.94	-0.000
302.15	-0.000
302.36	-0.000
302.57	-0.000
302.78	-0.000
302.99	-0.000
303.20	-0.000
303.41	-0.000
303.63	-0.000
303.84	-0.000
304.05	-0.000
304.26	-0.000
304.47	-0.000
304.68	-0.000
304.89	-0.000
305.10	-0.000
305.31	-0.000
305.52	-0.000
305.73	-0.000
305.94	-0.000
306.15	-0.000
306.37	-0.000
306.58	-0.000
306.79	-0.000
307.00	-0.000
307.21	-0.000
307.42	-0.000
307.63	-0.000
307.84	-0.000
308.05	-0.000
308.26	-0.000
308.47	-0.000
308.68	-0.000
308.89	-0.000
309.10	-0.000
309.31	-0.000
309.52	-0.000
309.73	-0.000
309.95	-0.000
310.16	-0.000
310.37	-0.000
310.58	-0.000
310.79	-0.000
311.00	-0.000
311.21	-0.000
311.42	-0.000
311.63	-0.000
311.84	-0.000
312.05	-0.000
312.26	-0.000
312.47	-0.000
312.68	-0.000
312.89	-0.000
313.10	-0.000
313.31	-0.000
313.52	-0.000
313.73	-0.000
313.94	-0.000
314.15	-0.000
314.36	-0.000
314.57	-0.000
314.78	-0.000
314.99	-0.000
315.21	-0.000
315.42	-0.000
315.63	-0.000
315.84	-0.000
316.05	-0.000
316.26	-0.000
316.47	-0.000
316.68	-0.000
316.89	-0.000
317.10	-0.000
317.31	-0.000
317.52	-0.000
317.73	-0.000
317.94	-0.000
318.15	-0.000
318.36	-0.000
318.57	-0.000
318.78	-0.000
318.99	-0.000
319.20	-0.000
319.41	-0.000
319.62	-0.000
319.83	-0.000
320.04	-0.000
320.25	-0.000
320.46	-0.000
320.67	-0.000
320.88	-0.000
321.09	-0.000
321.30	-0.000
321.51	-0.000
321.72	-0.000
321.93	-0.000
322.14	-0.000
322.35	-0.000
322.56	-0.000
322.77	-0.000
322.98	-0.000
323.19	-0.000
323.40	-0.000
323.61	-0.000
323.82	-0.000
324.03	-0.000
324.24	-0.000
324.45	-0.000
324.66	-0.000
324.87	-0.000
325.08	-0.000
325.29	-0.000
325.50	-0.000
325.71	-0.000
325.92	-0.000
326.13	-0.000
326.34	-0.000
326.55	-0.000
326.76	-0.000
326.97	-0.000
327.18	-0.000
327.39	-0.000
327.60	-0.000
327.80	-0.000
328.01	-0.000
328.22	-0.000
328.43	-0.000
328.64	-0.000
328.85	-0.000
329.06	-0.000
329.27	-0.000
329.48	-0.000
329.69	-0.000
329.90	-0.000
330.11	-0.000
330.32	-0.000
330.53	-0.000
330.74	-0.000
330.95	3.717
331.16	2.527
331.37	3.135
331.58	2.932
331.79	2.949
332.00	2.632
332.21	2.440
332.42	2.463
332.63	2.281
332.83	2.296
333.04	2.441
333.25	3.026
333.46	3.069
333.67	2.385
333.88	2.468
334.09	3.008
334.30	2.809
334.51	2.495
334.72	2.435
334.93	2.460
335.14	2.376
335.35	2.232
335.56	2.152
335.77	2.249
335.98	2.272
336.18	2.176
336.39	2.039
336.60	2.071
336.81	2.059
337.02	2.060
337.23	2.137
337.44	2.154
337.65	2.182
337.86	2.069
338.07	2.008
338.28	2.021
338.49	2.029
338.70	1.980
338.91	2.069
339.11	2.174
339.32	2.113
339.53	2.001
339.74	1.988
339.95	1.943
340.16	1.944
340.37	1.899
340.58	1.900
340.79	1.894
341.00	1.903
341.21	1.831
341.41	1.820
341.62	1.830
341.83	1.831
342.04	1.809
342.25	1.907
342.46	1.927
342.67	1.916
342.88	1.877
343.09	1.892
343.30	1.953
343.50	1.985
343.71	1.910
343.92	1.900
344.13	1.939
344.34	1.931
344.55	1.803
344.76	1.801
344.97	1.833
345.18	1.828
345.38	1.814
345.59	1.778
345.80	1.773
346.01	1.777
346.22	1.765
346.43	1.728
346.64	1.775
346.85	1.777
347.06	1.745
347.26	1.742
347.47	1.761
347.68	1.743
347.89	1.728
348.10	1.694
348.31	1.718
348.52	1.712
348.73	1.704
348.93	1.701
349.14	1.711
349.35	1.705
349.56	1.681
349.77	1.658
349.98	1.691
350.19	1.673
350.39	1.656
350.60	1.639
350.81	1.739
351.02	1.730
351.23	1.697
351.44	1.710
351.65	1.719
351.86	1.707
352.06	1.703
352.27	1.702
352.48	1.711
352.69	1.711
352.90	1.682
353.11	1.604
353.31	1.652
353.52	1.637
353.73	1.605
353.94	1.617
354.15	1.639
354.36	1.637
354.57	1.595
354.77	1.602
354.98	1.599
355.19	1.601
355.40	1.600
355.61	1.635
355.82	1.650
356.02	1.646
356.23	1.617
356.44	1.626
356.65	1.637
356.86	1.637
357.07	1.618
357.27	1.627
357.48	1.631
357.69	1.605
357.90	1.525
358.11	1.511
358.32	1.523
358.52	1.535
358.73	1.499
358.94	1.511
359.15	1.535
359.36	1.530
359.56	1.518
359.77	1.510
359.98	1.542
360.19	1.540
360.40	1.530
360.61	1.539
360.81	1.525
361.02	1.524
361.23	1.494
361.44	1.484
361.65	1.486
361.85	1.482
362.06	1.478
362.27	1.487
362.48	1.486
362.69	1.490
362.89	1.466
363.10	1.475
363.31	1.491
363.52	1.504
363.73	1.484
363.93	1.485
364.14	1.489
364.35	1.491
364.56	1.454
364.77	1.459
364.97	1.466
365.18	1.466
365.39	1.452
365.60	1.440
365.81	1.440
366.01	1.441
366.22	1.431
366.43	1.427
366.64	1.431
366.84	1.453
367.05	1.446
367.26	1.445
367.47	1.451
367.68	1.448
367.88	1.441
368.09	1.428
368.30	1.430
368.51	1.434
368.71	1.434
368.92	1.453
369.13	1.441
369.34	1.437
369.55	1.437
369.75	1.434
369.96	1.458
370.17	1.459
370.38	1.455
370.58	1.456
370.79	1.468
371.00	1.462
371.21	1.431
371.41	1.453
371.62	1.463
371.83	1.449
372.04	1.444
372.24	1.418
372.45	1.414
372.66	1.413
372.87	1.405
373.07	1.395
373.28	1.396
373.49	1.405
373.70	1.371
373.90	1.367
374.11	1.396
374.32	1.394
374.53	1.393
374.73	1.395
374.94	1.398
375.15	1.395
375.36	1.389
375.56	1.423
375.77	1.420
375.98	1.420
376.19	1.413
376.39	1.386
376.60	1.393
376.81	1.390
377.02	1.386
377.22	1.384
377.43	1.383
377.64	1.382
377.84	1.347
378.05	1.361
378.26	1.379
378.47	1.376
378.67	1.368
378.88	1.359
379.09	1.359
379.30	1.360
379.50	1.353
379.71	1.359
379.92	1.363
380.12	1.365
380.33	1.341
380.54	1.327
380.75	1.350
380.95	1.351
381.16	1.349
381.37	1.350
381.57	1.352
381.78	1.354
381.99	1.355
382.20	1.354
382.40	1.362
382.61	1.362
382.82	1.354
383.02	1.331
383.23	1.339
383.44	1.337
383.64	1.334
383.85	1.340
384.06	1.347
384.27	1.338
384.47	1.337
384.68	1.335
384.89	1.352
385.09	1.351
385.30	1.349
385.51	1.343
385.71	1.347
385.92	1.348
386.13	1.346
386.33	1.356
386.54	1.355
386.75	1.348
386.95	1.339
387.16	1.322
387.37	1.326
387.58	1.324
387.78	1.318
387.99	1.313
388.20	1.315
388.40	1.305
388.61	1.289
388.82	1.302
389.02	1.305
389.23	1.303
389.44	1.298
389.64	1.300
389.85	1.337
390.06	1.336
390.26	1.339
390.47	1.336
390.68	1.341
390.88	1.336
391.09	1.319
391.30	1.319
391.50	1.317
391.71	1.317
391.92	1.308
392.12	1.279
392.33	1.279
392.53	1.278
392.74	1.281
392.95	1.276
393.15	1.280
393.36	1.286
393.57	1.282
393.77	1.290
393.98	1.293
394.19	1.293
394.39	1.294
394.60	1.296
394.81	1.302
395.01	1.295
395.22	1.292
395.43	1.293
395.63	1.306
395.84	1.305
396.04	1.296
396.25	1.300
396.46	1.300
396.66	1.290
396.87	1.284
397.08	1.273
397.28	1.278
397.49	1.280
397.69	1.273
397.90	1.256
398.11	1.259
398.31	1.258
398.52	1.248
398.73	1.254
398.93	1.252
399.14	1.250
399.34	1.248
399.55	1.250
399.76	1.248
399.96	1.248
400.17	1.247
400.37	1.243
400.58	1.262
400.79	1.266
400.99	1.258
401.20	1.275
401.41	1.278
401.61	1.280
401.82	1.299
402.02	1.298
402.23	1.300
402.44	1.297
402.64	1.298
402.85	1.279
403.05	1.274
403.26	1.270
403.47	1.252
403.67	1.247
403.88	1.246
404.08	1.227
404.29	1.223
404.50	1.221
404.70	1.220
404.91	1.218
405.11	1.212
405.32	1.212
405.52	1.212
405.73	1.214
405.94	1.212
406.14	1.220
406.35	1.223
406.55	1.222
406.76	1.217
406.97	1.219
407.17	1.225
407.38	1.226
407.58	1.225
407.79	1.231
407.99	1.234
408.20	1.234
408.41	1.224
408.61	1.219
408.82	1.220
409.02	1.220
409.23	1.216
409.43	1.211
409.64	1.210
409.84	1.210
410.05	1.203
410.26	1.199
410.46	1.197
410.67	1.198
410.87	1.204
411.08	1.208
411.28	1.210
411.49	1.214
411.69	1.210
411.90	1.216
412.11	1.217
412.31	1.218
412.52	1.215
412.72	1.216
412.93	1.214
413.13	1.212
413.34	1.205
413.54	1.210
413.75	1.214
413.95	1.213
414.16	1.207
414.37	1.213
414.57	1.212
414.78	1.219
414.98	1.217
415.19	1.221
415.39	1.211
415.60	1.215
415.80	1.214
416.01	1.206
416.21	1.208
416.42	1.207
416.62	1.197
416.83	1.199
417.03	1.195
417.24	1.195
417.44	1.190
417.65	1.189
417.86	1.190
418.06	1.183
418.27	1.179
418.47	1.185
418.68	1.185
418.88	1.185
419.09	1.182
419.29	1.183
419.50	1.184
419.70	1.184
419.91	1.181
420.11	1.174
420.32	1.179
420.52	1.179
420.73	1.175
420.93	1.176
421.14	1.180
421.34	1.178
421.55	1.172
421.75	1.173
421.96	1.173
422.16	1.175
422.37	1.173
422.57	1.168
422.78	1.169
422.98	1.163
423.19	1.162
423.39	1.156
423.60	1.165
423.80	1.167
424.01	1.164
424.21	1.171
424.42	1.171
424.62	1.172
424.83	1.170
425.03	1.171
425.23	1.174
425.44	1.172
425.64	1.176
425.85	1.171
426.05	1.172
426.26	1.173
426.46	1.164
426.67	1.163
426.87	1.173
427.08	1.174
427.28	1.170
427.49	1.172
427.69	1.173
427.90	1.169
428.10	1.163
428.31	1.162
428.51	1.166
428.71	1.165
428.92	1.169
429.12	1.161
429.33	1.161
429.53	1.172
429.74	1.187
429.94	1.188
430.15	1.186
430.35	1.185
430.56	1.179
430.76	1.174
430.96	1.176
431.17	1.170
431.37	1.166
431.58	1.164
431.78	1.154
431.99	1.134
432.19	1.142
432.40	1.147
432.60	1.149
432.80	1.156
433.01	1.154
433.21	1.153
433.42	1.155
433.62	1.155
433.83	1.155
434.03	1.162
434.23	1.168
434.44	1.164
434.64	1.159
434.85	1.172
435.05	1.174
435.26	1.175
435.46	1.174
435.66	1.174
435.87	1.174
436.07	1.173
436.28	1.165
436.48	1.158
436.69	1.157
436.89	1.157
437.09	1.142
437.30	1.139
437.50	1.138
437.71	1.172
437.91	1.171
438.11	1.173
438.32	1.184
438.52	1.183
438.73	1.183
438.93	1.178
439.13	1.177
439.34	1.188
439.54	1.182
439.75	1.184
439.95	1.155
440.15	1.167
440.36	1.165
440.56	1.158
440.77	1.160
440.97	1.160
441.17	1.159
441.38	1.161
441.58	1.152
441.79	1.153
441.99	1.150
442.19	1.145
442.40	1.137
442.60	1.137
442.81	1.133
443.01	1.132
443.21	1.133
443.42	1.132
443.62	1.130
443.82	1.130
444.03	1.131
444.23	1.131
444.44	1.133
444.64	1.131
444.84	1.135
445.05	1.135
445.25	1.132
445.45	1.131
445.66	1.136
445.86	1.135
446.06	1.140
446.27	1.139
446.47	1.144
446.68	1.139
446.88	1.136
447.08	1.133
447.29	1.135
447.49	1.136
447.69	1.135
447.90	1.131
448.10	1.137
448.30	1.129
448.51	1.134
448.71	1.129
448.91	1.135
449.12	1.134
449.32	1.141
449.52	1.139
449.73	1.147
449.93	1.147
450.14	1.152
450.34	1.149
450.54	1.155
450.75	1.149
450.95	1.148
451.15	1.146
451.36	1.151
451.56	1.142
451.76	1.141
451.97	1.135
452.17	1.135
452.37	1.131
452.58	1.126
452.78	1.125
452.98	1.129
453.19	1.130
453.39	1.134
453.59	1.129
453.79	1.130
454.00	1.131
454.20	1.129
454.40	1.130
454.61	1.135
454.81	1.136
455.01	1.135
455.22	1.139
455.42	1.141
455.62	1.135
455.83	1.136
456.03	1.144
456.23	1.145
456.44	1.146
456.64	1.144
456.84	1.143
457.04	1.144
457.25	1.142
457.45	1.134
457.65	1.132
457.86	1.135
458.06	1.133
458.26	1.124
458.47	1.123
458.67	1.126
458.87	1.127
459.07	1.122
459.28	1.126
459.48	1.130
459.68	1.129
459.89	1.126
460.09	1.122
460.29	1.124
460.49	1.127
460.70	1.126
460.90	1.124
461.10	1.125
461.31	1.126
461.51	1.122
461.71	1.129
461.91	1.130
462.12	1.133
462.32	1.133
462.52	1.134
462.72	1.138
462.93	1.138
463.13	1.135
463.33	1.136
463.53	1.138
463.74	1.137
463.94	1.124
464.14	1.128
464.35	1.128
464.55	1.128
464.75	1.126
464.95	1.120
465.16	1.124
465.36	1.122
465.56	1.121
465.76	1.120
465.97	1.120
466.17	1.122
466.37	1.116
466.57	1.119
466.78	1.119
466.98	1.118
467.18	1.115
467.38	1.112
467.59	1.113
467.79	1.118
467.99	1.116
468.19	1.118
468.39	1.123
468.60	1.125
468.80	1.120
469.00	1.123
469.20	1.126
469.41	1.128
469.61	1.128
469.81	1.129
470.01	1.127
470.22	1.126
470.42	1.124
470.62	1.118
470.82	1.120
471.02	1.119
471.23	1.114
471.43	1.114
471.63	1.119
471.83	1.118
472.04	1.114
472.24	1.111
472.44	1.125
472.64	1.124
472.84	1.122
473.05	1.121
473.25	1.125
473.45	1.123
473.65	1.119
473.85	1.118
474.06	1.118
474.26	1.117
474.46	1.122
474.66	1.111
474.86	1.113
475.07	1.112
475.27	1.109
475.47	1.105
475.67	1.105
475.87	1.109
476.08	1.103
476.28	1.108
476.48	1.110
476.68	1.105
476.88	1.101
477.09	1.101
477.29	1.103
477.49	1.103
477.69	1.102
477.89	1.103
478.09	1.100
478.30	1.106
478.50	1.099
478.70	1.097
478.90	1.096
479.10	1.102
479.31	1.106
479.51	1.103
479.71	1.103
479.91	1.102
480.11	1.100
480.31	1.101
480.52	1.096
480.72	1.095
480.92	1.093
481.12	1.091
481.32	1.086
481.52	1.081
481.72	1.080
481.93	1.088
482.13	1.089
482.33	1.089
482.53	1.085
482.73	1.087
482.93	1.088
483.14	1.087
483.34	1.085
483.54	1.087
483.74	1.084
483.94	1.082
484.14	1.073
484.34	1.073
484.55	1.072
484.75	1.072
484.95	1.068
485.15	1.068
485.35	1.067
485.55	1.066
485.75	1.062
485.96	1.062
486.16	1.064
486.36	1.063
486.56	1.059
486.76	1.060
486.96	1.061
487.16	1.059
487.36	1.056
487.57	1.057
487.77	1.058
487.97	1.060
488.17	1.057
488.37	1.057
488.57	1.057
488.77	1.058
488.97	1.055
489.18	1.053
489.38	1.059
489.58	1.059
489.78	1.059
489.98	1.058
490.18	1.057
490.38	1.058
490.58	1.056
490.78	1.057
490.98	1.059
491.19	1.060
491.39	1.060
491.59	1.056
491.79	1.062
491.99	1.061
492.19	1.062
492.39	1.068
492.59	1.068
492.79	1.073
492.99	1.074
493.20	1.074
493.40	1.074
493.60	1.078
493.80	1.076
494.00	1.071
494.20	1.071
494.40	1.069
494.60	1.064
494.80	1.073
495.00	1.068
495.20	1.065
495.40	1.063
495.61	1.067
495.81	1.066
496.01	1.073
496.21	1.077
496.41	1.076
496.61	1.077
496.81	1.074
497.01	1.064
497.21	1.063
497.41	1.064
497.61	1.062
497.81	1.058
498.01	1.057
498.21	1.050
498.41	1.046
498.61	1.046
498.82	1.049
499.02	1.052
499.22	1.053
499.42	1.052
499.62	1.054
499.82	1.057
500.02	1.059
500.22	1.057
500.42	1.063
500.62	1.064
500.82	1.063
501.02	1.060
501.22	1.060
501.42	1.060
501.62	1.064
501.82	1.064
502.02	1.063
502.22	1.061
502.42	1.066
502.62	1.059
502.82	1.059
503.02	1.062
503.22	1.062
503.42	1.059
503.63	1.059
503.83	1.054
504.03	1.053
504.23	1.051
504.43	1.052
504.63	1.052
504.83	1.053
505.03	1.052
505.23	1.054
505.43	1.057
505.63	1.057
505.83	1.057
506.03	1.059
506.23	1.063
506.43	1.064
506.63	1.063
506.83	1.060
507.03	1.064
507.23	1.065
507.43	1.060
507.63	1.060
507.83	1.061
508.03	1.062
508.23	1.062
508.43	1.059
508.63	1.061
508.83	1.062
509.03	1.066
509.23	1.062
509.43	1.064
509.63	1.065
509.83	1.064
510.03	1.069
510.23	1.071
510.43	1.071
510.63	1.072
510.83	1.070
511.03	1.073
511.23	1.068
511.43	1.068
511.63	1.070
511.83	1.072
512.03	1.072
512.22	1.068
512.42	1.067
512.62	1.069
512.82	1.069
513.02	1.068
513.22	1.068
513.42	1.070
513.62	1.077
513.82	1.074
514.02	1.074
514.22	1.076
514.42	1.076
514.62	1.077
514.82	1.076
515.02	1.080
515.22	1.088
515.42	1.087
515.62	1.092
515.82	1.087
516.02	1.089
516.22	1.090
516.42	1.092
516.62	1.094
516.82	1.097
517.01	1.095
517.21	1.093
517.41	1.100
517.61	1.101
517.81	1.094
518.01	1.093
518.21	1.092
518.41	1.090
518.61	1.088
518.81	1.088
519.01	1.089
519.21	1.089
519.41	1.088
519.61	1.074
519.81	1.078
520.00	1.080
520.20	1.082
520.40	1.087
520.60	1.087
520.80	1.085
521.00	1.089
521.20	1.089
521.40	1.098
521.60	1.099
521.80	1.098
522.00	1.097
522.20	1.098
522.39	1.096
522.59	1.091
522.79	1.095
522.99	1.098
523.19	1.093
523.39	1.091
523.59	1.086
523.79	1.091
523.99	1.096
524.19	1.095
524.38	1.093
524.58	1.095
524.78	1.096
524.98	1.092
525.18	1.097
525.38	1.097
525.58	1.098
525.78	1.093
525.98	1.090
526.18	1.089
526.37	1.088
526.57	1.093
526.77	1.092
526.97	1.092
527.17	1.093
527.37	1.085
527.57	1.091
527.77	1.092
527.96	1.094
528.16	1.092
528.36	1.095
528.56	1.098
528.76	1.094
528.96	1.094
529.16	1.096
529.36	1.101
529.55	1.102
529.75	1.096
529.95	1.095
530.15	1.096
530.35	1.102
530.55	1.097
530.75	1.096
530.94	1.097
531.14	1.097
531.34	1.095
531.54	1.092
531.74	1.095
531.94	1.103
532.13	1.101
532.33	1.105
532.53	1.099
532.73	1.099
532.93	1.097
533.13	1.098
533.33	1.098
533.52	1.099
533.72	1.107
533.92	1.103
534.12	1.096
534.32	1.097
534.52	1.093
534.71	1.097
534.91	1.100
535.11	1.104
535.31	1.100
535.51	1.104
535.71	1.105
535.90	1.097
536.10	1.101
536.30	1.105
536.50	1.106
536.70	1.107
536.89	1.104
537.09	1.104
537.29	1.106
537.49	1.109
537.69	1.105
537.89	1.107
538.08	1.106
538.28	1.102
538.48	1.105
538.68	1.107
538.88	1.109
539.07	1.110
539.27	1.106
539.47	1.103
539.67	1.102
539.87	1.103
540.06	1.100
540.26	1.102
540.46	1.104
540.66	1.098
540.86	1.094
541.05	1.094
541.25	1.096
541.45	1.097
541.65	1.094
541.84	1.100
542.04	1.099
542.24	1.100
542.44	1.098
542.64	1.101
542.83	1.105
543.03	1.107
543.23	1.104
543.43	1.104
543.62	1.105
543.82	1.105
544.02	1.102
544.22	1.102
544.42	1.108
544.61	1.109
544.81	1.104
545.01	1.101
545.21	1.104
545.40	1.102
545.60	1.099
545.80	1.105
546.00	1.106
546.19	1.105
546.39	1.103
546.59	1.098
546.79	1.102
546.98	1.102
547.18	1.102
547.38	1.103
547.58	1.107
547.77	1.108
547.97	1.101
548.17	1.104
548.37	1.103
548.56	1.104
548.76	1.103
548.96	1.103
549.16	1.106
549.35	1.108
549.55	1.105
549.75	1.106
549.95	1.111
550.14	1.112
550.34	1.109
550.54	1.120
550.73	1.126
550.93	1.128
551.13	1.125
551.33	1.122
551.52	1.122
551.72	1.122
551.92	1.119
552.12	1.122
552.31	1.121
552.51	1.122
552.71	1.111
552.90	1.113
553.10	1.112
553.30	1.111
553.50	1.111
553.69	1.113
553.89	1.113
554.09	1.112
554.28	1.104
554.48	1.107
554.68	1.109
554.87	1.110
555.07	1.105
555.27	1.105
555.47	1.107
555.66	1.106
555.86	1.105
556.06	1.109
556.25	1.112
556.45	1.131
556.65	1.130
556.84	1.137
557.04	1.145
557.24	1.147
557.43	1.148
557.63	1.156
557.83	1.160
558.02	1.161
558.22	1.175
558.42	1.175
558.61	1.156
558.81	1.157
559.01	1.148
559.21	1.144
559.40	1.143
559.60	1.145
559.80	1.136
559.99	1.137
560.19	1.139
560.39	1.124
560.58	1.122
560.78	1.122
560.97	1.127
561.17	1.125
561.37	1.122
561.56	1.125
561.76	1.127
561.96	1.126
562.15	1.122
562.35	1.130
562.55	1.130
562.74	1.130
562.94	1.127
563.14	1.122
563.33	1.125
563.53	1.124
563.73	1.119
563.92	1.121
564.12	1.125
564.31	1.129
564.51	1.123
564.71	1.126
564.90	1.130
565.10	1.132
565.30	1.142
565.49	1.143
565.69	1.147
565.89	1.148
566.08	1.143
566.28	1.147
566.47	1.149
566.67	1.146
566.87	1.143
567.06	1.147
567.26	1.161
567.46	1.149
567.65	1.148
567.85	1.150
568.04	1.154
568.24	1.152
568.44	1.145
568.63	1.139
568.83	1.142
569.02	1.136
569.22	1.127
569.42	1.117
569.61	1.119
569.81	1.116
570.00	1.113
570.20	1.116
570.40	1.118
570.59	1.118
570.79	1.114
570.98	1.108
571.18	1.110
571.38	1.109
571.57	1.103
571.77	1.098
571.96	1.103
572.16	1.098
572.35	1.087
572.55	1.089
572.75	1.085
572.94	1.084
573.14	1.081
573.33	1.082
573.53	1.082
573.73	1.081
573.92	1.079
574.12	1.075
574.31	1.079
574.51	1.081
574.70	1.074
574.90	1.076
575.09	1.080
575.29	1.081
575.49	1.075
575.68	1.078
575.88	1.080
576.07	1.082
576.27	1.079
576.46	1.076
576.66	1.074
576.86	1.073
577.05	1.070
577.25	1.065
577.44	1.067
577.64	1.067
577.83	1.064
578.03	1.064
578.22	1.062
578.42	1.061
578.61	1.058
578.81	1.058
579.00	1.059
579.20	1.057
579.40	1.056
579.59	1.054
579.79	1.054
579.98	1.052
580.18	1.053
580.37	1.053
580.57	1.056
580.76	1.067
580.96	1.065
581.15	1.067
581.35	1.069
581.54	1.069
581.74	1.068
581.93	1.071
582.13	1.072
582.32	1.066
582.52	1.063
582.71	1.061
582.91	1.051
583.10	1.051
583.30	1.049
583.49	1.048
583.69	1.054
583.88	1.057
584.08	1.055
584.27	1.061
584.47	1.067
584.66	1.069
584.86	1.069
585.05	1.073
585.25	1.077
585.44	1.077
585.64	1.077
585.83	1.071
586.03	1.072
586.22	1.069
586.42	1.063
586.61	1.066
586.81	1.071
587.00	1.070
587.20	1.065
587.39	1.065
587.59	1.067
587.78	1.068
587.98	1.070
588.17	1.072
588.37	1.076
588.56	1.078
588.76	1.071
588.95	1.071
589.15	1.080
589.34	1.087
589.54	1.085
589.73	1.088
589.92	1.094
590.12	1.093
590.31	1.090
590.51	1.102
590.70	1.105
590.90	1.105
591.09	1.102
591.29	1.095
591.48	1.093
591.68	1.094
591.87	1.091
592.06	1.090
592.26	1.096
592.45	1.094
592.65	1.081
592.84	1.081
593.04	1.084
593.23	1.090
593.43	1.087
593.62	1.087
593.81	1.087
594.01	1.087
594.20	1.083
594.40	1.079
594.59	1.083
594.79	1.084
594.98	1.082
595.17	1.080
595.37	1.081
595.56	1.084
595.76	1.084
595.95	1.087
596.14	1.092
596.34	1.095
596.53	1.093
596.73	1.095
596.92	1.097
597.12	1.101
597.31	1.102
597.50	1.099
597.70	1.103
597.89	1.100
598.09	1.094
598.28	1.096
598.47	1.101
598.67	1.098
598.86	1.092
599.06	1.097
599.25	1.096
599.44	1.092
599.64	1.088
599.83	1.083
600.03	1.089
600.22	1.089
600.41	1.090
600.61	1.084
600.80	1.089
601.00	1.090
601.19	1.083
601.38	1.080
601.58	1.084
601.77	1.087
601.96	1.093
602.16	1.093
602.35	1.113
602.55	1.108
602.74	1.111
602.93	1.113
603.13	1.122
603.32	1.122
603.51	1.123
603.71	1.130
603.90	1.132
604.09	1.133
604.29	1.130
604.48	1.115
604.68	1.116
604.87	1.114
605.06	1.108
605.26	1.102
605.45	1.102
605.64	1.100
605.84	1.091
606.03	1.090
606.22	1.086
606.42	1.083
606.61	1.077
606.80	1.077
607.00	1.080
607.19	1.080
607.38	1.080
607.58	1.084
607.77	1.088
607.96	1.087
608.16	1.085
608.35	1.096
608.54	1.102
608.74	1.108
608.93	1.122
609.12	1.127
609.32	1.133
609.51	1.139
609.70	1.136
609.90	1.143
610.09	1.152
610.28	1.164
610.48	1.151
610.67	1.153
610.86	1.155
611.06	1.140
611.25	1.135
611.44	1.136
611.64	1.136
611.83	1.143
612.02	1.137
612.21	1.134
612.41	1.128
612.60	1.127
612.79	1.120
612.99	1.121
613.18	1.125
613.37	1.121
613.57	1.118
613.76	1.121
613.95	1.114
614.14	1.112
614.34	1.107
614.53	1.109
614.72	1.113
614.92	1.113
615.11	1.107
615.30	1.100
615.49	1.103
615.69	1.106
615.88	1.099
616.07	1.103
616.26	1.108
616.46	1.111
616.65	1.107
616.84	1.106
617.04	1.108
617.23	1.115
617.42	1.117
617.61	1.122
617.81	1.122
618.00	1.127
618.19	1.125
618.38	1.133
618.58	1.141
618.77	1.142
618.96	1.142
619.15	1.149
619.35	1.153
619.54	1.155
619.73	1.148
619.92	1.153
620.12	1.161
620.31	1.162
620.50	1.149
620.69	1.149
620.89	1.157
621.08	1.158
621.27	1.157
621.46	1.154
621.66	1.161
621.85	1.163
622.04	1.157
622.23	1.162
622.43	1.163
622.62	1.164
622.81	1.164
623.00	1.159
623.19	1.164
623.39	1.159
623.58	1.154
623.77	1.153
623.96	1.158
624.16	1.159
624.35	1.148
624.54	1.154
624.73	1.160
624.92	1.154
625.12	1.151
625.31	1.153
625.50	1.160
625.69	1.160
625.88	1.154
626.08	1.152
626.27	1.153
626.46	1.152
626.65	1.145
626.84	1.144
627.04	1.155
627.23	1.155
627.42	1.147
627.61	1.154
627.80	1.157
628.00	1.159
628.19	1.156
628.38	1.161
628.57	1.165
628.76	1.167
628.96	1.160
629.15	1.160
629.34	1.165
629.53	1.166
629.72	1.154
629.91	1.157
630.11	1.164
630.30	1.166
630.49	1.176
630.68	1.177
630.87	1.183
631.06	1.190
631.26	1.182
631.45	1.187
631.64	1.206
631.83	1.210
632.02	1.207
632.21	1.203
632.41	1.221
632.60	1.206
632.79	1.204
632.98	1.207
633.17	1.208
633.36	1.211
633.55	1.205
633.75	1.195
633.94	1.196
634.13	1.197
634.32	1.194
634.51	1.180
634.70	1.182
634.89	1.182
635.09	1.174
635.28	1.173
635.47	1.174
635.66	1.179
635.85	1.172
636.04	1.176
636.23	1.185
636.43	1.186
636.62	1.188
636.81	1.185
637.00	1.187
637.19	1.194
637.38	1.190
637.57	1.191
637.76	1.196
637.95	1.196
638.15	1.190
638.34	1.182
638.53	1.185
638.72	1.185
638.91	1.181
639.10	1.178
639.29	1.175
639.48	1.177
639.67	1.177
639.87	1.172
640.06	1.187
640.25	1.187
640.44	1.189
640.63	1.194
640.82	1.195
641.01	1.198
641.20	1.200
641.39	1.206
641.58	1.210
641.78	1.207
641.97	1.198
642.16	1.236
642.35	1.236
642.54	1.234
642.73	1.222
642.92	1.221
643.11	1.228
643.30	1.229
643.49	1.218
643.68	1.222
643.87	1.224
644.06	1.225
644.25	1.175
644.45	1.183
644.64	1.184
644.83	1.185
645.02	1.183
645.21	1.179
645.40	1.179
645.59	1.180
645.78	1.170
645.97	1.176
646.16	1.176
646.35	1.172
646.54	1.168
646.73	1.173
646.92	1.176
647.11	1.173
647.30	1.165
647.49	1.169
647.68	1.165
647.88	1.163
648.07	1.152
648.26	1.160
648.45	1.161
648.64	1.154
648.83	1.148
649.02	1.153
649.21	1.173
649.40	1.170
649.59	1.160
649.78	1.161
649.97	1.195
650.16	1.192
650.35	1.177
650.54	1.188
650.73	1.205
650.92	1.196
651.11	1.183
651.30	1.181
651.49	1.191
651.68	1.193
651.87	1.189
652.06	1.160
652.25	1.164
652.44	1.170
652.63	1.163
652.82	1.165
653.01	1.164
653.20	1.158
653.39	1.132
653.58	1.125
653.77	1.121
653.96	1.111
654.15	1.095
654.34	1.091
654.53	1.082
654.72	1.069
654.91	1.051
655.10	1.042
655.29	1.037
655.48	1.033
655.67	1.023
655.86	1.019
656.05	1.016
656.24	1.014
656.43	1.006
656.62	1.006
656.81	1.008
657.00	1.002
657.19	0.997
657.38	0.996
657.57	0.994
657.76	0.999
657.95	0.996
658.14	1.003
658.33	1.008
658.51	1.018
658.70	1.017
658.89	1.018
659.08	1.038
659.27	1.056
659.46	1.060
659.65	1.075
659.84	1.083
660.03	1.092
660.22	1.095
660.41	1.105
660.60	1.105
660.79	1.108
660.98	1.123
661.17	1.118
661.36	1.115
661.55	1.117
661.74	1.112
661.92	1.117
662.11	1.118
662.30	1.115
662.49	1.101
662.68	1.099
662.87	1.102
663.06	1.090
663.25	1.096
663.44	1.097
663.63	1.096
663.82	1.094
664.01	1.081
664.20	1.080
664.38	1.083
664.57	1.084
664.76	1.085
664.95	1.089
665.14	1.097
665.33	1.088
665.52	1.107
665.71	1.121
665.90	1.122
666.09	1.129
666.28	1.125
666.46	1.120
666.65	1.119
666.84	1.115
667.03	1.105
667.22	1.101
667.41	1.108
667.60	1.085
667.79	1.068
667.98	1.070
668.16	1.071
668.35	1.070
668.54	1.066
668.73	1.069
668.92	1.069
669.11	1.067
669.30	1.056
669.49	1.048
669.67	1.052
669.86	1.059
670.05	1.054
670.24	1.047
670.43	1.043
670.62	1.041
670.81	1.033
671.00	1.033
671.18	1.032
671.37	1.030
671.56	1.026
671.75	1.020
671.94	1.012
672.13	1.008
672.32	1.001
672.50	0.999
672.69	0.997
672.88	0.998
673.07	0.990
673.26	0.994
673.45	0.996
673.63	0.996
673.82	0.992
674.01	0.993
674.20	0.993
674.39	0.992
674.58	0.993
674.76	0.993
674.95	0.991
675.14	0.992
675.33	0.984
675.52	0.982
675.71	0.981
675.89	0.981
676.08	0.977
676.27	0.977
676.46	0.979
676.65	0.977
676.84	0.978
677.02	0.980
677.21	0.982
677.40	0.980
677.59	0.977
677.78	0.977
677.96	0.981
678.15	0.980
678.34	0.977
678.53	0.977
678.72	0.976
678.90	0.971
679.09	0.966
679.28	0.962
679.47	0.962
679.66	0.960
679.84	0.958
680.03	0.951
680.22	0.949
680.41	0.952
680.60	0.946
680.78	0.944
680.97	0.948
681.16	0.947
681.35	0.946
681.53	0.944
681.72	0.945
681.91	0.948
682.10	0.947
682.29	0.951
682.47	0.946
682.66	0.941
682.85	0.939
683.04	0.936
683.22	0.936
683.41	0.938
683.60	0.936
683.79	0.939
683.97	0.934
684.16	0.933
684.35	0.927
684.54	0.929
684.72	0.932
684.91	0.934
685.10	0.930
685.29	0.932
685.47	0.927
685.66	0.926
685.85	0.919
686.04	0.918
686.22	0.922
686.41	0.926
686.60	0.922
686.79	0.928
686.97	0.929
687.16	0.931
687.35	0.927
687.54	0.934
687.72	0.939
687.91	0.940
688.10	0.946
688.29	0.945
688.47	0.941
688.66	0.941
688.85	0.934
689.03	0.931
689.22	0.941
689.41	0.942
689.60	0.934
689.78	0.929
689.97	0.929
690.16	0.924
690.34	0.919
690.53	0.919
690.72	0.918
690.91	0.915
691.09	0.913
691.28	0.902
691.47	0.900
691.65	0.899
691.84	0.896
692.03	0.895
692.21	0.891
692.40	0.890
692.59	0.887
692.77	0.886
692.96	0.887
693.15	0.888
693.34	0.884
693.52	0.883
693.71	0.882
693.90	0.884
694.08	0.886
694.27	0.888
694.46	0.906
694.64	0.906
694.83	0.905
695.02	0.904
695.20	0.902
695.39	0.901
695.58	0.902
695.76	0.903
695.95	0.901
696.14	0.898
696.32	0.894
696.51	0.875
696.70	0.875
696.88	0.876
697.07	0.875
697.26	0.875
697.44	0.877
697.63	0.876
697.81	0.872
698.00	0.873
698.19	0.871
698.37	0.871
698.56	0.872
698.75	0.872
698.93	0.870
699.12	0.869
699.31	0.868
699.49	0.866
699.68	0.867
699.87	0.872
700.05	0.871
700.24	0.869
700.42	0.872
700.61	0.870
700.80	0.867
700.98	0.870
701.17	0.871
701.36	0.870
701.54	0.870
701.73	0.871
701.91	0.866
702.10	0.865
702.29	0.865
702.47	0.863
702.66	0.866
702.84	0.868
703.03	0.865
703.22	0.868
703.40	0.868
703.59	0.871
703.77	0.872
703.96	0.872
704.15	0.874
704.33	0.874
704.52	0.875
704.70	0.873
704.89	0.871
705.08	0.870
705.26	0.864
705.45	0.864
705.63	0.861
705.82	0.857
706.00	0.856
706.19	0.855
706.38	0.853
706.56	0.851
706.75	0.849
706.93	0.848
707.12	0.849
707.30	0.848
707.49	0.845
707.68	0.842
707.86	0.839
708.05	0.839
708.23	0.835
708.42	0.836
708.60	0.840
708.79	0.839
708.98	0.837
709.16	0.836
709.35	0.839
709.53	0.846
709.72	0.845
709.90	0.848
710.09	0.850
710.27	0.853
710.46	0.860
710.64	0.856
710.83	0.859
711.02	0.862
711.20	0.860
711.39	0.859
711.57	0.853
711.76	0.854
711.94	0.851
712.13	0.853
712.31	0.851
712.50	0.843
712.68	0.841
712.87	0.844
713.05	0.843
713.24	0.844
713.42	0.843
713.61	0.844
713.79	0.845
713.98	0.845
714.16	0.848
714.35	0.847
714.54	0.850
714.72	0.849
714.91	0.847
715.09	0.859
715.28	0.864
715.46	0.864
715.65	0.861
715.83	0.860
716.02	0.864
716.20	0.858
716.39	0.858
716.57	0.861
716.76	0.864
716.94	0.864
717.12	0.850
717.31	0.853
717.49	0.858
717.68	0.862
717.86	0.863
718.05	0.865
718.23	0.869
718.42	0.872
718.60	0.875
718.79	0.892
718.97	0.895
719.16	0.895
719.34	0.892
719.53	0.891
719.71	0.891
719.90	0.893
720.08	0.891
720.27	0.892
720.45	0.890
720.63	0.886
720.82	0.875
721.00	0.879
721.19	0.884
721.37	0.882
721.56	0.884
721.74	0.889
721.93	0.903
722.11	0.914
722.30	0.913
722.48	0.921
722.66	0.925
722.85	0.923
723.03	0.925
723.22	0.923
723.40	0.930
723.59	0.929
723.77	0.938
723.95	0.924
724.14	0.929
724.32	0.931
724.51	0.932
724.69	0.935
724.88	0.934
725.06	0.930
725.24	0.933
725.43	0.937
725.61	0.943
725.80	0.933
725.98	0.933
726.16	0.924
726.35	0.933
726.53	0.933
726.72	0.931
726.90	0.953
727.09	0.953
727.27	0.964
727.45	0.959
727.64	0.975
727.82	0.988
728.01	0.994
728.19	0.994
728.37	1.008
728.56	1.012
728.74	1.027
728.92	1.006
729.11	1.012
729.29	1.008
729.48	1.015
729.66	0.996
729.84	0.994
730.03	1.000
730.21	1.005
730.40	0.985
730.58	0.989
730.76	0.986
730.95	0.991
731.13	0.993
731.31	1.020
731.50	1.035
731.68	1.042
731.86	1.044
732.05	1.076
732.23	1.082
732.42	1.095
732.60	1.105
732.78	1.119
732.97	1.157
733.15	1.174
733.33	1.150
733.52	1.171
733.70	1.194
733.88	1.213
734.07	1.178
734.25	1.244
734.43	1.267
734.62	1.277
734.80	1.269
734.98	1.241
735.17	1.258
735.35	1.280
735.53	1.246
735.72	1.253
735.90	1.312
736.08	1.387
736.27	1.318
736.45	1.342
736.63	1.382
736.82	1.411
737.00	1.426
737.18	1.460
737.37	1.582
737.55	1.756
737.73	1.749
737.92	1.791
738.10	1.739
738.28	1.934
738.46	1.833
738.65	1.931
738.83	2.229
739.01	-0.000
739.20	-0.000
739.38	-0.000
739.56	-0.000
739.75	-0.000
739.93	2.571
740.11	-0.000
740.29	-0.000
740.48	-0.000
740.66	-0.000
740.84	4.797
741.03	1.854
741.21	1.965
741.39	1.892
741.57	1.973
741.76	2.104
741.94	2.203
742.12	1.857
742.31	1.935
742.49	2.173
742.67	-0.000
742.85	-0.000
743.04	-0.000
743.22	-0.000
743.40	-0.000
743.58	-0.000
743.77	-0.000
743.95	-0.000
744.13	-0.000
744.31	-0.000
744.50	-0.000
744.68	-0.000
744.86	-0.000
745.04	-0.000
745.23	-0.000
745.41	-0.000
745.59	-0.000
745.77	-0.000
745.96	-0.000
746.14	-0.000
746.32	-0.000
746.50	-0.000
746.69	-0.000
746.87	-0.000
747.05	-0.000
747.23	-0.000
747.42	-0.000
747.60	-0.000
747.78	-0.000
747.96	-0.000
748.14	-0.000
748.33	-0.000
748.51	-0.000
748.69	-0.000
748.87	-0.000
749.06	-0.000
749.24	-0.000
749.42	-0.000
749.60	-0.000
749.78	-0.000
749.97	-0.000
750.15	-0.000
750.33	-0.000
750.51	-0.000
750.69	-0.000
750.88	-0.000
751.06	-0.000
751.24	-0.000
751.42	-0.000
751.60	-0.000
751.79	-0.000
751.97	-0.000
752.15	-0.000
752.33	-0.000
752.51	-0.000
752.69	-0.000
752.88	-0.000
753.06	-0.000
753.24	-0.000
753.42	-0.000
753.60	-0.000
753.78	-0.000
753.97	-0.000
754.15	-0.000
754.33	-0.000
754.51	-0.000
754.69	-0.000
754.87	-0.000
755.06	-0.000
755.24	-0.000
755.42	-0.000
755.60	-0.000
755.78	-0.000
755.96	-0.000
756.15	-0.000
756.33	-0.000
756.51	-0.000
756.69	-0.000
756.87	2.588
757.05	2.902
757.23	2.257
757.42	1.813
757.60	1.802
757.78	1.702
757.96	1.729
758.14	1.650
758.32	1.546
758.50	1.592
758.69	1.588
758.87	1.560
759.05	1.587
759.23	1.615
759.41	1.624
759.59	1.622
759.77	1.735
759.95	1.915
760.13	-0.000
760.32	-0.000
760.50	-0.000
760.68	-0.000
760.86	-0.000
761.04	-0.000
761.22	-0.000
761.40	-0.000
761.58	-0.000
761.76	-0.000
761.95	-0.000
762.13	1.952
762.31	1.988
762.49	1.752
762.67	2.036
762.85	2.189
763.03	2.190
763.21	1.975
763.39	1.748
763.57	1.728
763.75	1.724
763.94	1.639
764.12	1.639
764.30	1.820
764.48	1.802
764.66	1.557
764.84	1.544
765.02	1.706
765.20	1.701
765.38	1.598
765.56	1.617
765.74	1.852
765.92	1.900
766.10	2.024
766.28	1.891
766.46	2.227
766.65	2.257
766.83	2.108
767.01	1.948
767.19	1.994
767.37	2.006
767.55	1.934
767.73	1.720
767.91	1.716
768.09	1.656
768.27	1.609
768.45	1.549
768.63	1.556
768.81	1.567
768.99	1.453
769.17	1.561
769.35	1.617
769.53	1.593
769.71	1.529
769.89	1.557
770.07	1.547
770.25	1.472
770.43	1.434
770.61	1.532
770.79	1.553
770.97	1.595
771.15	1.474
771.33	1.474
771.51	1.480
771.69	1.526
771.87	1.580
772.05	1.599
772.24	1.606
772.42	1.619
772.60	1.518
772.78	1.923
772.96	2.234
773.14	2.200
773.32	2.016
773.49	2.176
773.67	2.045
773.85	1.840
774.03	1.811
774.21	2.284
774.39	2.555
774.57	-0.000
774.75	1.801
774.93	1.811
775.11	1.952
775.29	2.024
775.47	2.026
775.65	2.315
775.83	-0.000
776.01	-0.000
776.19	2.279
776.37	2.285
776.55	2.177
776.73	2.139
776.91	2.137
777.09	1.945
777.27	1.931
777.45	1.873
777.63	1.728
777.81	1.685
777.99	1.554
778.17	1.546
778.35	1.463
778.53	1.405
778.71	1.409
778.89	1.343
779.07	1.326
779.24	1.335
779.42	1.318
779.60	1.376
779.78	1.365
779.96	1.387
780.14	1.402
780.32	1.473
780.50	1.412
780.68	1.409
780.86	1.379
781.04	1.440
781.22	1.470
781.40	1.498
781.58	1.433
781.75	1.399
781.93	1.361
782.11	1.356
782.29	1.298
782.47	1.301
782.65	1.284
782.83	1.366
783.01	1.313
783.19	1.290
783.37	1.262
783.55	1.270
783.72	1.323
783.90	1.348
784.08	1.331
784.26	1.385
784.44	1.452
784.62	1.454
784.80	1.346
784.98	1.379
785.16	1.379
785.33	1.433
785.51	1.414
785.69	1.361
785.87	1.355
786.05	1.400
786.23	1.378
786.41	1.356
786.59	1.366
786.77	1.370
786.94	1.330
787.12	1.331
787.30	1.329
787.48	1.310
787.66	1.292
787.84	1.295
788.02	1.265
788.19	1.262
788.37	1.242
788.55	1.248
788.73	1.237
788.91	1.226
789.09	1.196
789.27	1.172
789.44	1.201
789.62	1.214
789.80	1.248
789.98	1.321
790.16	1.281
790.34	1.266
790.51	1.236
790.69	1.299
790.87	1.320
791.05	1.323
791.23	1.298
791.41	1.297
791.58	1.301
791.76	1.235
791.94	1.156
792.12	1.168
792.30	1.168
792.48	1.168
792.65	1.159
792.83	1.169
793.01	1.173
793.19	1.170
793.37	1.135
793.54	1.132
793.72	1.149
793.90	1.149
794.08	1.136
794.26	1.137
794.43	1.148
794.61	1.109
794.79	1.084
794.97	1.087
795.15	1.096
795.32	1.106
795.50	1.090
795.68	1.078
795.86	1.082
796.04	1.082
796.21	1.078
796.39	1.075
796.57	1.097
796.75	1.126
796.92	1.130
797.10	1.137
797.28	1.138
797.46	1.141
797.64	1.151
797.81	1.164
797.99	1.171
798.17	1.175
798.35	1.165
798.52	1.178
798.70	1.155
798.88	1.180
799.06	1.193
799.23	1.198
799.41	1.204
799.59	1.185
799.77	1.169
799.94	1.183
800.12	1.199
800.30	1.248
800.48	1.254
800.65	1.260
800.83	1.217
801.01	1.193
801.19	1.199
801.36	1.195
801.54	1.199
801.72	1.229
801.90	1.208
802.07	1.199
802.25	1.153
802.43	1.120
802.60	1.119
802.78	1.133
802.96	1.147
803.14	1.132
803.31	1.131
803.49	1.134
803.67	1.115
803.84	1.121
804.02	1.108
804.20	1.112
804.38	1.112
804.55	1.104
804.73	1.080
804.91	1.075
805.08	1.105
805.26	1.103
805.44	1.335
805.61	1.349
805.79	1.346
805.97	1.343
806.15	1.329
806.32	1.317
806.50	1.341
806.68	1.344
806.85	1.321
807.03	1.273
807.21	1.319
807.38	1.089
807.56	1.075
807.74	1.094
807.91	1.109
808.09	1.113
808.27	1.167
808.44	1.246
808.62	1.264
808.80	1.272
808.97	1.267
809.15	1.251
809.33	1.302
809.50	1.321
809.68	1.288
809.86	1.305
810.03	1.432
810.21	1.351
810.39	1.289
810.56	1.312
810.74	1.388
810.91	1.948
811.09	1.849
811.27	2.136
811.44	2.216
811.62	2.296
811.80	2.056
811.97	1.711
812.15	1.710
812.33	1.678
812.50	1.623
812.68	1.551
812.85	1.252
813.03	1.260
813.21	1.169
813.38	1.158
813.56	1.162
813.74	1.194
813.91	1.216
814.09	1.313
814.26	1.286
814.44	1.282
814.62	1.258
814.79	1.277
814.97	1.287
815.14	1.304
815.32	1.294
815.50	1.346
815.67	1.334
815.85	1.306
816.02	1.279
816.20	1.296
816.38	1.351
816.55	1.375
816.73	1.379
816.90	1.407
817.08	1.535
817.26	1.608
817.43	1.527
817.61	1.728
817.78	1.837
817.96	1.668
818.13	1.625
818.31	1.615
818.49	1.672
818.66	1.631
818.84	1.597
819.01	1.478
819.19	1.486
819.36	1.510
819.54	1.375
819.71	1.609
819.89	1.649
820.07	1.732
820.24	1.726
820.42	1.749
820.59	1.882
820.77	2.228
820.94	2.138
821.12	3.154
821.29	-0.000
821.47	-0.000
821.64	1.829
821.82	2.028
822.00	2.023
822.17	2.017
822.35	1.966
822.52	2.014
822.70	1.858
822.87	1.995
823.05	1.806
823.22	1.987
823.40	2.593
823.57	-0.000
823.75	-0.000
823.92	-0.000
824.10	-0.000
824.27	-0.000
824.45	-0.000
824.62	-0.000
824.80	-0.000
824.97	-0.000
825.15	-0.000
825.32	-0.000
825.50	-0.000
825.67	-0.000
825.85	-0.000
826.02	-0.000
826.20	-0.000
826.37	-0.000
826.55	-0.000
826.72	-0.000
826.90	-0.000
827.07	-0.000
827.25	-0.000
827.42	-0.000
827.60	-0.000
827.77	-0.000
827.95	-0.000
828.12	-0.000
828.30	-0.000
828.47	-0.000
828.65	-0.000
828.82	-0.000
829.00	-0.000
829.17	-0.000
829.34	-0.000
829.52	-0.000
829.69	-0.000
829.87	-0.000
830.04	-0.000
830.22	-0.000
830.39	-0.000
830.57	-0.000
830.74	-0.000
830.92	-0.000
831.09	-0.000
831.26	-0.000
831.44	-0.000
831.61	-0.000
831.79	-0.000
831.96	-0.000
832.14	-0.000
832.31	-0.000
832.49	-0.000
832.66	-0.000
832.83	-0.000
833.01	-0.000
833.18	-0.000
833.36	-0.000
833.53	-0.000
833.70	-0.000
833.88	-0.000
834.05	-0.000
834.23	-0.000
834.40	-0.000
834.58	-0.000
834.75	-0.000
834.92	-0.000
835.10	-0.000
835.27	-0.000
835.45	-0.000
835.62	-0.000
835.79	-0.000
835.97	-0.000
836.14	-0.000
836.32	-0.000
836.49	-0.000
836.66	-0.000
836.84	-0.000
837.01	-0.000
837.18	-0.000
837.36	-0.000
837.53	-0.000
837.71	-0.000
837.88	-0.000
838.05	-0.000
838.23	-0.000
838.40	-0.000
838.58	-0.000
838.75	-0.000
838.92	-0.000
839.10	-0.000
839.27	-0.000
839.44	-0.000
839.62	-0.000
839.79	-0.000
839.96	-0.000
840.14	-0.000
840.31	-0.000
840.48	-0.000
840.66	-0.000
840.83	-0.000
841.01	-0.000
841.18	-0.000
841.35	-0.000
841.53	-0.000
841.70	-0.000
841.87	-0.000
842.05	-0.000
842.22	-0.000
842.39	-0.000
842.57	-0.000
842.74	-0.000
842.91	-0.000
843.09	-0.000
843.26	-0.000
843.43	-0.000
843.60	-0.000
843.78	-0.000
843.95	-0.000
844.12	-0.000
844.30	-0.000
844.47	-0.000
844.64	-0.000
844.82	-0.000
844.99	-0.000
845.16	-0.000
845.34	-0.000
845.51	-0.000
845.68	-0.000
845.85	-0.000
846.03	-0.000
846.20	-0.000
846.37	-0.000
846.55	-0.000
846.72	-0.000
846.89	-0.000
847.06	-0.000
847.24	-0.000
847.41	-0.000
847.58	-0.000
847.76	-0.000
847.93	-0.000
848.10	-0.000
848.27	-0.000
848.45	-0.000
848.62	-0.000
848.79	-0.000
848.97	-0.000
849.14	-0.000
849.31	-0.000
849.48	-0.000
849.66	-0.000
849.83	-0.000
850.00	-0.000
850.17	-0.000
850.35	-0.000
850.52	-0.000
850.69	-0.000
850.86	-0.000
851.04	-0.000
851.21	-0.000
851.38	-0.000
851.55	-0.000
851.72	-0.000
851.90	-0.000
852.07	-0.000
852.24	-0.000
852.41	-0.000
852.59	-0.000
852.76	-0.000
852.93	-0.000
853.10	-0.000
853.28	-0.000
853.45	-0.000
853.62	-0.000
853.79	-0.000
853.96	-0.000
854.14	-0.000
854.31	-0.000
854.48	-0.000
854.65	-0.000
854.82	-0.000
855.00	-0.000
855.17	-0.000
855.34	-0.000
855.51	-0.000
855.68	-0.000
855.86	-0.000
856.03	-0.000
856.20	-0.000
856.37	-0.000
856.54	-0.000
856.72	-0.000
856.89	-0.000
857.06	-0.000
857.23	-0.000
857.40	-0.000
857.57	-0.000
857.75	-0.000
857.92	-0.000
858.09	-0.000
858.26	-0.000
858.43	-0.000
858.60	-0.000
858.78	-0.000
858.95	-0.000
859.12	-0.000
859.29	-0.000
859.46	-0.000
859.63	-0.000
859.81	-0.000
859.98	-0.000
860.15	-0.000
860.32	-0.000
860.49	-0.000
860.66	-0.000
860.83	-0.000
861.01	-0.000
861.18	-0.000
861.35	-0.000
861.52	-0.000
861.69	-0.000
861.86	-0.000
862.03	-0.000
862.21	-0.000
862.38	-0.000
862.55	-0.000
862.72	-0.000
862.89	-0.000
863.06	-0.000
863.23	-0.000
863.40	-0.000
863.58	-0.000
863.75	-0.000
863.92	-0.000
864.09	-0.000
864.26	-0.000
864.43	-0.000
864.60	-0.000
864.77	-0.000
864.94	-0.000
865.11	-0.000
865.29	-0.000
865.46	-0.000
865.63	-0.000
865.80	-0.000
865.97	-0.000
866.14	-0.000
866.31	-0.000
866.48	-0.000
866.65	-0.000
866.82	-0.000
866.99	-0.000
867.16	-0.000
867.34	-0.000
867.51	-0.000
867.68	-0.000
867.85	-0.000
868.02	-0.000
868.19	-0.000
868.36	-0.000
868.53	-0.000
868.70	-0.000
868.87	-0.000
869.04	-0.000
869.21	-0.000
869.38	-0.000
869.55	-0.000
869.72	-0.000
869.89	-0.000
870.06	-0.000
870.24	-0.000
870.41	-0.000
870.58	-0.000
870.75	-0.000
870.92	-0.000
871.09	-0.000
871.26	-0.000
871.43	-0.000
871.60	-0.000
871.77	-0.000
871.94	-0.000
872.11	-0.000
872.28	-0.000
872.45	-0.000
872.62	-0.000
872.79	-0.000
872.96	-0.000
873.13	-0.000
873.30	-0.000
873.47	-0.000
873.64	-0.000
873.81	-0.000
873.98	-0.000
874.15	-0.000
874.32	-0.000
874.49	-0.000
874.66	-0.000
874.83	-0.000
875.00	-0.000
875.17	-0.000
875.34	-0.000
875.51	-0.000
875.68	-0.000
875.85	-0.000
876.02	-0.000
876.19	-0.000
876.36	-0.000
876.53	-0.000
876.70	-0.000
876.87	-0.000
877.04	-0.000
877.21	-0.000
877.38	-0.000
877.55	-0.000
877.72	-0.000
877.89	-0.000
878.06	-0.000
878.23	-0.000
878.39	-0.000
878.56	-0.000
878.73	-0.000
878.90	-0.000
879.07	-0.000
879.24	-0.000
879.41	-0.000
879.58	-0.000
879.75	-0.000
879.92	-0.000
880.09	-0.000
880.26	-0.000
880.43	-0.000
880.60	-0.000
880.77	-0.000
880.94	-0.000
881.11	-0.000
881.27	-0.000
881.44	-0.000
881.61	-0.000
881.78	-0.000
881.95	-0.000
882.12	-0.000
882.29	-0.000
882.46	-0.000
882.63	-0.000
882.80	-0.000
882.97	-0.000
883.14	-0.000
883.30	-0.000
883.47	-0.000
883.64	-0.000
883.81	-0.000
883.98	-0.000
884.15	-0.000
884.32	-0.000
884.49	-0.000
884.66	-0.000
884.82	-0.000
884.99	-0.000
885.16	-0.000
885.33	-0.000
885.50	-0.000
885.67	-0.000
885.84	-0.000
886.01	-0.000
886.17	-0.000
886.34	-0.000
886.51	-0.000
886.68	-0.000
886.85	-0.000
887.02	-0.000
887.19	-0.000
887.36	-0.000
887.52	-0.000
887.69	-0.000
887.86	-0.000
888.03	-0.000
888.20	-0.000
888.37	-0.000
888.54	-0.000
888.70	-0.000
888.87	-0.000
889.04	-0.000
889.21	-0.000
889.38	-0.000
889.55	-0.000
889.71	-0.000
889.88	-0.000
890.05	-0.000
890.22	-0.000
890.39	-0.000
>>>>>End Processed Spectral Data<<<<<
