SpectraSuite Data File
++++++++++++++++++++++++++++++++++++
Date: Fri Jun 19 14:31:51 CEST 2015
User: introlabs
Dark Spectrum Present: Yes
Reference Spectrum Present: Yes
Number of Sampled Component Spectra: 1
Spectrometers: USB4H08886
Integration Time (usec): 745692 (USB4H08886)
Spectra Averaged: 5 (USB4H08886)
Boxcar Smoothing: 5 (USB4H08886)
Correct for Electrical Dark: Yes (USB4H08886)
Strobe/Lamp Enabled: No (USB4H08886)
Correct for Detector Non-linearity: Yes (USB4H08886)
Correct for Stray Light: Yes (USB4H08886)
Number of Pixels in Processed Spectrum: 3648
>>>>>Begin Processed Spectral Data<<<<<
178.14	-0.000
178.36	-0.000
178.57	-0.000
178.79	-0.000
179.01	-0.000
179.22	-0.000
179.44	-0.000
179.65	-0.000
179.87	-0.000
180.08	-0.000
180.30	-0.000
180.52	-0.000
180.73	-0.000
180.95	-0.000
181.16	-0.000
181.38	-0.000
181.59	-0.000
181.81	-0.000
182.03	-0.000
182.24	-0.000
182.46	-0.000
182.67	-0.000
182.89	-0.000
183.10	-0.000
183.32	-0.000
183.54	-0.000
183.75	-0.000
183.97	-0.000
184.18	-0.000
184.40	-0.000
184.61	-0.000
184.83	-0.000
185.04	-0.000
185.26	-0.000
185.48	-0.000
185.69	-0.000
185.91	-0.000
186.12	-0.000
186.34	-0.000
186.55	-0.000
186.77	-0.000
186.98	-0.000
187.20	-0.000
187.42	-0.000
187.63	-0.000
187.85	-0.000
188.06	-0.000
188.28	-0.000
188.49	-0.000
188.71	-0.000
188.92	-0.000
189.14	-0.000
189.36	-0.000
189.57	-0.000
189.79	-0.000
190.00	-0.000
190.22	-0.000
190.43	-0.000
190.65	-0.000
190.86	-0.000
191.08	-0.000
191.29	-0.000
191.51	-0.000
191.72	-0.000
191.94	-0.000
192.16	-0.000
192.37	-0.000
192.59	-0.000
192.80	-0.000
193.02	-0.000
193.23	-0.000
193.45	-0.000
193.66	-0.000
193.88	-0.000
194.09	-0.000
194.31	-0.000
194.52	-0.000
194.74	-0.000
194.95	-0.000
195.17	-0.000
195.38	-0.000
195.60	-0.000
195.81	-0.000
196.03	-0.000
196.25	-0.000
196.46	-0.000
196.68	-0.000
196.89	-0.000
197.11	-0.000
197.32	-0.000
197.54	-0.000
197.75	-0.000
197.97	-0.000
198.18	-0.000
198.40	-0.000
198.61	-0.000
198.83	-0.000
199.04	-0.000
199.26	-0.000
199.47	-0.000
199.69	-0.000
199.90	-0.000
200.12	-0.000
200.33	-0.000
200.55	-0.000
200.76	-0.000
200.98	-0.000
201.19	-0.000
201.41	-0.000
201.62	-0.000
201.84	-0.000
202.05	-0.000
202.27	-0.000
202.48	-0.000
202.70	-0.000
202.91	-0.000
203.13	-0.000
203.34	-0.000
203.56	-0.000
203.77	-0.000
203.99	-0.000
204.20	-0.000
204.42	-0.000
204.63	-0.000
204.85	-0.000
205.06	-0.000
205.28	-0.000
205.49	-0.000
205.71	-0.000
205.92	-0.000
206.14	-0.000
206.35	-0.000
206.56	-0.000
206.78	-0.000
206.99	-0.000
207.21	-0.000
207.42	-0.000
207.64	-0.000
207.85	-0.000
208.07	-0.000
208.28	-0.000
208.50	-0.000
208.71	-0.000
208.93	-0.000
209.14	-0.000
209.36	-0.000
209.57	-0.000
209.79	-0.000
210.00	-0.000
210.22	-0.000
210.43	-0.000
210.64	-0.000
210.86	-0.000
211.07	-0.000
211.29	-0.000
211.50	-0.000
211.72	-0.000
211.93	-0.000
212.15	-0.000
212.36	-0.000
212.58	-0.000
212.79	-0.000
213.01	-0.000
213.22	-0.000
213.43	-0.000
213.65	-0.000
213.86	-0.000
214.08	-0.000
214.29	-0.000
214.51	-0.000
214.72	-0.000
214.94	-0.000
215.15	-0.000
215.36	-0.000
215.58	-0.000
215.79	-0.000
216.01	-0.000
216.22	-0.000
216.44	-0.000
216.65	-0.000
216.87	-0.000
217.08	-0.000
217.29	-0.000
217.51	-0.000
217.72	-0.000
217.94	-0.000
218.15	-0.000
218.37	-0.000
218.58	-0.000
218.80	-0.000
219.01	-0.000
219.22	-0.000
219.44	-0.000
219.65	-0.000
219.87	-0.000
220.08	-0.000
220.30	-0.000
220.51	-0.000
220.72	-0.000
220.94	-0.000
221.15	-0.000
221.37	-0.000
221.58	-0.000
221.79	-0.000
222.01	-0.000
222.22	-0.000
222.44	-0.000
222.65	-0.000
222.87	-0.000
223.08	-0.000
223.29	-0.000
223.51	-0.000
223.72	-0.000
223.94	-0.000
224.15	-0.000
224.36	-0.000
224.58	-0.000
224.79	-0.000
225.01	-0.000
225.22	-0.000
225.44	-0.000
225.65	-0.000
225.86	-0.000
226.08	-0.000
226.29	-0.000
226.51	-0.000
226.72	-0.000
226.93	-0.000
227.15	-0.000
227.36	-0.000
227.58	-0.000
227.79	-0.000
228.00	-0.000
228.22	-0.000
228.43	-0.000
228.65	-0.000
228.86	-0.000
229.07	-0.000
229.29	-0.000
229.50	-0.000
229.72	-0.000
229.93	-0.000
230.14	-0.000
230.36	-0.000
230.57	-0.000
230.78	-0.000
231.00	-0.000
231.21	-0.000
231.43	-0.000
231.64	-0.000
231.85	-0.000
232.07	-0.000
232.28	-0.000
232.50	-0.000
232.71	-0.000
232.92	-0.000
233.14	-0.000
233.35	-0.000
233.56	-0.000
233.78	-0.000
233.99	-0.000
234.21	-0.000
234.42	-0.000
234.63	-0.000
234.85	-0.000
235.06	-0.000
235.27	-0.000
235.49	-0.000
235.70	-0.000
235.91	-0.000
236.13	-0.000
236.34	-0.000
236.56	-0.000
236.77	-0.000
236.98	-0.000
237.20	-0.000
237.41	-0.000
237.62	-0.000
237.84	-0.000
238.05	-0.000
238.26	-0.000
238.48	-0.000
238.69	-0.000
238.91	-0.000
239.12	-0.000
239.33	-0.000
239.55	-0.000
239.76	-0.000
239.97	-0.000
240.19	-0.000
240.40	-0.000
240.61	-0.000
240.83	-0.000
241.04	-0.000
241.25	-0.000
241.47	-0.000
241.68	-0.000
241.89	-0.000
242.11	-0.000
242.32	-0.000
242.53	-0.000
242.75	-0.000
242.96	-0.000
243.17	-0.000
243.39	-0.000
243.60	-0.000
243.81	-0.000
244.03	-0.000
244.24	-0.000
244.45	-0.000
244.67	-0.000
244.88	-0.000
245.09	-0.000
245.31	-0.000
245.52	-0.000
245.73	-0.000
245.95	-0.000
246.16	-0.000
246.37	-0.000
246.59	-0.000
246.80	-0.000
247.01	-0.000
247.23	-0.000
247.44	-0.000
247.65	-0.000
247.87	-0.000
248.08	-0.000
248.29	-0.000
248.51	-0.000
248.72	-0.000
248.93	-0.000
249.15	-0.000
249.36	-0.000
249.57	-0.000
249.78	-0.000
250.00	-0.000
250.21	-0.000
250.42	-0.000
250.64	-0.000
250.85	-0.000
251.06	-0.000
251.28	-0.000
251.49	-0.000
251.70	-0.000
251.92	-0.000
252.13	-0.000
252.34	-0.000
252.55	-0.000
252.77	-0.000
252.98	-0.000
253.19	-0.000
253.41	-0.000
253.62	-0.000
253.83	-0.000
254.05	-0.000
254.26	-0.000
254.47	-0.000
254.68	-0.000
254.90	-0.000
255.11	-0.000
255.32	-0.000
255.54	-0.000
255.75	-0.000
255.96	-0.000
256.17	-0.000
256.39	-0.000
256.60	-0.000
256.81	-0.000
257.03	-0.000
257.24	-0.000
257.45	-0.000
257.66	-0.000
257.88	-0.000
258.09	-0.000
258.30	-0.000
258.51	-0.000
258.73	-0.000
258.94	-0.000
259.15	-0.000
259.37	-0.000
259.58	-0.000
259.79	-0.000
260.00	-0.000
260.22	-0.000
260.43	-0.000
260.64	-0.000
260.85	-0.000
261.07	-0.000
261.28	-0.000
261.49	-0.000
261.71	-0.000
261.92	-0.000
262.13	-0.000
262.34	-0.000
262.56	-0.000
262.77	-0.000
262.98	-0.000
263.19	-0.000
263.41	-0.000
263.62	-0.000
263.83	-0.000
264.04	-0.000
264.26	-0.000
264.47	-0.000
264.68	-0.000
264.89	-0.000
265.11	-0.000
265.32	-0.000
265.53	-0.000
265.74	-0.000
265.96	-0.000
266.17	-0.000
266.38	-0.000
266.59	-0.000
266.81	-0.000
267.02	-0.000
267.23	-0.000
267.44	-0.000
267.65	-0.000
267.87	-0.000
268.08	-0.000
268.29	-0.000
268.50	-0.000
268.72	-0.000
268.93	-0.000
269.14	-0.000
269.35	-0.000
269.57	-0.000
269.78	-0.000
269.99	-0.000
270.20	-0.000
270.41	-0.000
270.63	-0.000
270.84	-0.000
271.05	-0.000
271.26	-0.000
271.48	-0.000
271.69	-0.000
271.90	-0.000
272.11	-0.000
272.32	-0.000
272.54	-0.000
272.75	-0.000
272.96	-0.000
273.17	-0.000
273.39	-0.000
273.60	-0.000
273.81	-0.000
274.02	-0.000
274.23	-0.000
274.45	-0.000
274.66	-0.000
274.87	-0.000
275.08	-0.000
275.29	-0.000
275.51	-0.000
275.72	-0.000
275.93	-0.000
276.14	-0.000
276.35	-0.000
276.57	-0.000
276.78	-0.000
276.99	-0.000
277.20	-0.000
277.41	-0.000
277.63	-0.000
277.84	-0.000
278.05	-0.000
278.26	-0.000
278.47	-0.000
278.69	-0.000
278.90	-0.000
279.11	-0.000
279.32	-0.000
279.53	-0.000
279.74	-0.000
279.96	-0.000
280.17	-0.000
280.38	-0.000
280.59	-0.000
280.80	-0.000
281.02	-0.000
281.23	-0.000
281.44	-0.000
281.65	-0.000
281.86	-0.000
282.07	-0.000
282.29	-0.000
282.50	-0.000
282.71	-0.000
282.92	-0.000
283.13	-0.000
283.35	-0.000
283.56	-0.000
283.77	-0.000
283.98	-0.000
284.19	-0.000
284.40	-0.000
284.62	-0.000
284.83	-0.000
285.04	-0.000
285.25	-0.000
285.46	-0.000
285.67	-0.000
285.88	-0.000
286.10	-0.000
286.31	-0.000
286.52	-0.000
286.73	-0.000
286.94	-0.000
287.15	-0.000
287.37	-0.000
287.58	-0.000
287.79	-0.000
288.00	-0.000
288.21	-0.000
288.42	-0.000
288.63	-0.000
288.85	-0.000
289.06	-0.000
289.27	-0.000
289.48	-0.000
289.69	-0.000
289.90	-0.000
290.11	-0.000
290.33	-0.000
290.54	-0.000
290.75	-0.000
290.96	-0.000
291.17	-0.000
291.38	-0.000
291.59	-0.000
291.81	-0.000
292.02	-0.000
292.23	-0.000
292.44	-0.000
292.65	-0.000
292.86	-0.000
293.07	-0.000
293.28	-0.000
293.50	-0.000
293.71	-0.000
293.92	-0.000
294.13	-0.000
294.34	-0.000
294.55	-0.000
294.76	-0.000
294.97	-0.000
295.19	-0.000
295.40	-0.000
295.61	-0.000
295.82	-0.000
296.03	-0.000
296.24	-0.000
296.45	2.378
296.66	1.844
296.87	1.867
297.09	1.943
297.30	2.231
297.51	1.764
297.72	1.731
297.93	1.839
298.14	1.804
298.35	1.765
298.56	1.725
298.77	1.868
298.99	1.832
299.20	1.799
299.41	1.790
299.62	1.733
299.83	1.724
300.04	1.647
300.25	1.640
300.46	1.688
300.67	1.649
300.88	1.593
301.10	1.602
301.31	1.689
301.52	1.609
301.73	1.542
301.94	1.544
302.15	1.560
302.36	1.504
302.57	1.438
302.78	1.450
302.99	1.494
303.20	1.515
303.41	1.414
303.63	1.392
303.84	1.403
304.05	1.401
304.26	1.338
304.47	1.348
304.68	1.355
304.89	1.345
305.10	1.303
305.31	1.292
305.52	1.335
305.73	1.331
305.94	1.289
306.15	1.278
306.37	1.302
306.58	1.312
306.79	1.277
307.00	1.300
307.21	1.340
307.42	1.330
307.63	1.289
307.84	1.257
308.05	1.294
308.26	1.298
308.47	1.276
308.68	1.271
308.89	1.271
309.10	1.268
309.31	1.226
309.52	1.216
309.73	1.234
309.95	1.231
310.16	1.201
310.37	1.190
310.58	1.209
310.79	1.208
311.00	1.205
311.21	1.207
311.42	1.210
311.63	1.205
311.84	1.187
312.05	1.183
312.26	1.208
312.47	1.219
312.68	1.193
312.89	1.173
313.10	1.180
313.31	1.151
313.52	1.152
313.73	1.153
313.94	1.157
314.15	1.136
314.36	1.115
314.57	1.107
314.78	1.097
314.99	1.094
315.21	1.080
315.42	1.086
315.63	1.099
315.84	1.075
316.05	1.061
316.26	1.069
316.47	1.088
316.68	1.085
316.89	1.066
317.10	1.085
317.31	1.090
317.52	1.092
317.73	1.069
317.94	1.070
318.15	1.114
318.36	1.115
318.57	1.094
318.78	1.083
318.99	1.116
319.20	1.112
319.41	1.076
319.62	1.078
319.83	1.092
320.04	1.085
320.25	1.071
320.46	1.036
320.67	1.038
320.88	1.035
321.09	1.022
321.30	1.009
321.51	1.025
321.72	1.025
321.93	1.008
322.14	1.001
322.35	1.027
322.56	1.029
322.77	1.017
322.98	1.029
323.19	1.037
323.40	1.042
323.61	1.021
323.82	1.015
324.03	1.020
324.24	1.018
324.45	1.004
324.66	0.986
324.87	0.984
325.08	0.984
325.29	0.963
325.50	0.956
325.71	0.960
325.92	0.968
326.13	0.953
326.34	0.954
326.55	0.963
326.76	0.962
326.97	0.952
327.18	0.945
327.39	0.969
327.60	0.970
327.80	0.971
328.01	0.972
328.22	0.971
328.43	0.976
328.64	0.964
328.85	0.969
329.06	0.971
329.27	0.969
329.48	0.964
329.69	0.945
329.90	0.955
330.11	0.948
330.32	0.941
330.53	0.934
330.74	0.934
330.95	0.932
331.16	0.916
331.37	0.923
331.58	0.924
331.79	0.923
332.00	0.915
332.21	0.909
332.42	0.913
332.63	0.903
332.83	0.900
333.04	0.901
333.25	0.913
333.46	0.912
333.67	0.900
333.88	0.902
334.09	0.913
334.30	0.910
334.51	0.902
334.72	0.898
334.93	0.901
335.14	0.899
335.35	0.892
335.56	0.888
335.77	0.897
335.98	0.894
336.18	0.889
336.39	0.881
336.60	0.885
336.81	0.885
337.02	0.884
337.23	0.889
337.44	0.891
337.65	0.893
337.86	0.882
338.07	0.876
338.28	0.882
338.49	0.879
338.70	0.870
338.91	0.877
339.11	0.884
339.32	0.880
339.53	0.867
339.74	0.865
339.95	0.862
340.16	0.861
340.37	0.853
340.58	0.851
340.79	0.855
341.00	0.855
341.21	0.845
341.41	0.845
341.62	0.847
341.83	0.848
342.04	0.843
342.25	0.854
342.46	0.858
342.67	0.857
342.88	0.850
343.09	0.849
343.30	0.856
343.50	0.859
343.71	0.849
343.92	0.847
344.13	0.852
344.34	0.852
344.55	0.836
344.76	0.834
344.97	0.840
345.18	0.839
345.38	0.836
345.59	0.831
345.80	0.830
346.01	0.828
346.22	0.823
346.43	0.818
346.64	0.825
346.85	0.824
347.06	0.817
347.26	0.816
347.47	0.819
347.68	0.814
347.89	0.809
348.10	0.804
348.31	0.810
348.52	0.809
348.73	0.806
348.93	0.803
349.14	0.806
349.35	0.805
349.56	0.800
349.77	0.796
349.98	0.802
350.19	0.799
350.39	0.796
350.60	0.792
350.81	0.809
351.02	0.807
351.23	0.802
351.44	0.804
351.65	0.808
351.86	0.804
352.06	0.803
352.27	0.803
352.48	0.805
352.69	0.803
352.90	0.797
353.11	0.784
353.31	0.792
353.52	0.788
353.73	0.780
353.94	0.781
354.15	0.787
354.36	0.786
354.57	0.778
354.77	0.780
354.98	0.781
355.19	0.779
355.40	0.779
355.61	0.784
355.82	0.789
356.02	0.789
356.23	0.781
356.44	0.783
356.65	0.787
356.86	0.787
357.07	0.781
357.27	0.784
357.48	0.787
357.69	0.783
357.90	0.767
358.11	0.763
358.32	0.766
358.52	0.769
358.73	0.759
358.94	0.762
359.15	0.767
359.36	0.767
359.56	0.762
359.77	0.759
359.98	0.765
360.19	0.765
360.40	0.763
360.61	0.763
360.81	0.763
361.02	0.763
361.23	0.754
361.44	0.752
361.65	0.752
361.85	0.752
362.06	0.749
362.27	0.752
362.48	0.753
362.69	0.755
362.89	0.750
363.10	0.751
363.31	0.756
363.52	0.760
363.73	0.755
363.93	0.755
364.14	0.758
364.35	0.759
364.56	0.748
364.77	0.750
364.97	0.752
365.18	0.753
365.39	0.747
365.60	0.743
365.81	0.744
366.01	0.743
366.22	0.740
366.43	0.739
366.64	0.742
366.84	0.747
367.05	0.743
367.26	0.743
367.47	0.745
367.68	0.745
367.88	0.742
368.09	0.740
368.30	0.742
368.51	0.743
368.71	0.742
368.92	0.745
369.13	0.743
369.34	0.743
369.55	0.742
369.75	0.741
369.96	0.749
370.17	0.749
370.38	0.745
370.58	0.745
370.79	0.750
371.00	0.748
371.21	0.739
371.41	0.745
371.62	0.749
371.83	0.745
372.04	0.744
372.24	0.736
372.45	0.737
372.66	0.737
372.87	0.734
373.07	0.731
373.28	0.733
373.49	0.736
373.70	0.726
373.90	0.725
374.11	0.734
374.32	0.733
374.53	0.732
374.73	0.732
374.94	0.735
375.15	0.735
375.36	0.733
375.56	0.741
375.77	0.742
375.98	0.741
376.19	0.739
376.39	0.732
376.60	0.736
376.81	0.737
377.02	0.734
377.22	0.733
377.43	0.733
377.64	0.733
377.84	0.724
378.05	0.728
378.26	0.735
378.47	0.734
378.67	0.731
378.88	0.728
379.09	0.728
379.30	0.729
379.50	0.726
379.71	0.728
379.92	0.731
380.12	0.731
380.33	0.723
380.54	0.719
380.75	0.725
380.95	0.726
381.16	0.724
381.37	0.724
381.57	0.726
381.78	0.726
381.99	0.725
382.20	0.724
382.40	0.727
382.61	0.727
382.82	0.724
383.02	0.717
383.23	0.720
383.44	0.719
383.64	0.717
383.85	0.719
384.06	0.723
384.27	0.721
384.47	0.720
384.68	0.720
384.89	0.725
385.09	0.725
385.30	0.725
385.51	0.724
385.71	0.728
385.92	0.729
386.13	0.727
386.33	0.728
386.54	0.730
386.75	0.729
386.95	0.725
387.16	0.720
387.37	0.723
387.58	0.723
387.78	0.721
387.99	0.719
388.20	0.721
388.40	0.718
388.61	0.714
388.82	0.717
389.02	0.719
389.23	0.719
389.44	0.718
389.64	0.718
389.85	0.730
390.06	0.730
390.26	0.730
390.47	0.728
390.68	0.731
390.88	0.729
391.09	0.725
391.30	0.725
391.50	0.725
391.71	0.725
391.92	0.722
392.12	0.714
392.33	0.715
392.53	0.714
392.74	0.714
392.95	0.714
393.15	0.716
393.36	0.718
393.57	0.715
393.77	0.718
393.98	0.719
394.19	0.719
394.39	0.719
394.60	0.721
394.81	0.723
395.01	0.721
395.22	0.719
395.43	0.720
395.63	0.725
395.84	0.727
396.04	0.723
396.25	0.725
396.46	0.727
396.66	0.725
396.87	0.721
397.08	0.719
397.28	0.721
397.49	0.723
397.69	0.719
397.90	0.713
398.11	0.714
398.31	0.715
398.52	0.711
398.73	0.713
398.93	0.711
399.14	0.711
399.34	0.709
399.55	0.711
399.76	0.711
399.96	0.712
400.17	0.711
400.37	0.710
400.58	0.717
400.79	0.719
400.99	0.716
401.20	0.721
401.41	0.724
401.61	0.725
401.82	0.730
402.02	0.729
402.23	0.730
402.44	0.730
402.64	0.730
402.85	0.724
403.05	0.723
403.26	0.721
403.47	0.715
403.67	0.714
403.88	0.716
404.08	0.710
404.29	0.708
404.50	0.708
404.70	0.709
404.91	0.707
405.11	0.705
405.32	0.706
405.52	0.706
405.73	0.706
405.94	0.704
406.14	0.706
406.35	0.708
406.55	0.708
406.76	0.706
406.97	0.706
407.17	0.709
407.38	0.708
407.58	0.706
407.79	0.709
407.99	0.712
408.20	0.713
408.41	0.709
408.61	0.707
408.82	0.708
409.02	0.708
409.23	0.706
409.43	0.705
409.64	0.706
409.84	0.706
410.05	0.702
410.26	0.700
410.46	0.700
410.67	0.699
410.87	0.700
411.08	0.702
411.28	0.703
411.49	0.704
411.69	0.702
411.90	0.704
412.11	0.706
412.31	0.706
412.52	0.705
412.72	0.705
412.93	0.707
413.13	0.706
413.34	0.702
413.54	0.704
413.75	0.705
413.95	0.705
414.16	0.702
414.37	0.704
414.57	0.705
414.78	0.708
414.98	0.706
415.19	0.707
415.39	0.705
415.60	0.707
415.80	0.706
416.01	0.704
416.21	0.705
416.42	0.705
416.62	0.700
416.83	0.700
417.03	0.699
417.24	0.699
417.44	0.697
417.65	0.696
417.86	0.696
418.06	0.694
418.27	0.693
418.47	0.695
418.68	0.696
418.88	0.696
419.09	0.694
419.29	0.695
419.50	0.695
419.70	0.695
419.91	0.693
420.11	0.691
420.32	0.693
420.52	0.693
420.73	0.692
420.93	0.692
421.14	0.694
421.34	0.692
421.55	0.689
421.75	0.689
421.96	0.690
422.16	0.690
422.37	0.690
422.57	0.687
422.78	0.689
422.98	0.685
423.19	0.683
423.39	0.681
423.60	0.686
423.80	0.687
424.01	0.686
424.21	0.688
424.42	0.689
424.62	0.689
424.83	0.688
425.03	0.689
425.23	0.691
425.44	0.691
425.64	0.692
425.85	0.690
426.05	0.691
426.26	0.691
426.46	0.687
426.67	0.686
426.87	0.691
427.08	0.691
427.28	0.689
427.49	0.690
427.69	0.690
427.90	0.688
428.10	0.686
428.31	0.686
428.51	0.687
428.71	0.687
428.92	0.688
429.12	0.685
429.33	0.686
429.53	0.690
429.74	0.694
429.94	0.694
430.15	0.694
430.35	0.694
430.56	0.691
430.76	0.690
430.96	0.690
431.17	0.688
431.37	0.685
431.58	0.683
431.78	0.679
431.99	0.673
432.19	0.675
432.40	0.677
432.60	0.678
432.80	0.680
433.01	0.679
433.21	0.679
433.42	0.681
433.62	0.681
433.83	0.682
434.03	0.684
434.23	0.687
434.44	0.685
434.64	0.682
434.85	0.687
435.05	0.688
435.26	0.688
435.46	0.686
435.66	0.685
435.87	0.685
436.07	0.684
436.28	0.680
436.48	0.677
436.69	0.677
436.89	0.677
437.09	0.671
437.30	0.670
437.50	0.670
437.71	0.682
437.91	0.681
438.11	0.682
438.32	0.687
438.52	0.687
438.73	0.686
438.93	0.684
439.13	0.684
439.34	0.687
439.54	0.685
439.75	0.685
439.95	0.675
440.15	0.680
440.36	0.679
440.56	0.676
440.77	0.677
440.97	0.678
441.17	0.678
441.38	0.679
441.58	0.676
441.79	0.675
441.99	0.673
442.19	0.672
442.40	0.669
442.60	0.669
442.81	0.666
443.01	0.666
443.21	0.667
443.42	0.666
443.62	0.665
443.82	0.665
444.03	0.666
444.23	0.666
444.44	0.667
444.64	0.666
444.84	0.668
445.05	0.667
445.25	0.665
445.45	0.665
445.66	0.668
445.86	0.667
446.06	0.668
446.27	0.668
446.47	0.671
446.68	0.669
446.88	0.667
447.08	0.667
447.29	0.669
447.49	0.669
447.69	0.668
447.90	0.667
448.10	0.670
448.30	0.668
448.51	0.669
448.71	0.666
448.91	0.669
449.12	0.667
449.32	0.668
449.52	0.667
449.73	0.671
449.93	0.671
450.14	0.671
450.34	0.670
450.54	0.672
450.75	0.669
450.95	0.669
451.15	0.669
451.36	0.672
451.56	0.669
451.76	0.668
451.97	0.665
452.17	0.665
452.37	0.663
452.58	0.659
452.78	0.659
452.98	0.661
453.19	0.661
453.39	0.661
453.59	0.660
453.79	0.660
454.00	0.661
454.20	0.659
454.40	0.660
454.61	0.663
454.81	0.664
455.01	0.662
455.22	0.663
455.42	0.665
455.62	0.663
455.83	0.663
456.03	0.666
456.23	0.667
456.44	0.668
456.64	0.667
456.84	0.667
457.04	0.668
457.25	0.667
457.45	0.663
457.65	0.662
457.86	0.663
458.06	0.662
458.26	0.657
458.47	0.656
458.67	0.657
458.87	0.657
459.07	0.655
459.28	0.657
459.48	0.659
459.68	0.659
459.89	0.658
460.09	0.656
460.29	0.658
460.49	0.659
460.70	0.658
460.90	0.657
461.10	0.658
461.31	0.658
461.51	0.655
461.71	0.656
461.91	0.657
462.12	0.658
462.32	0.657
462.52	0.657
462.72	0.659
462.93	0.659
463.13	0.658
463.33	0.659
463.53	0.660
463.74	0.659
463.94	0.655
464.14	0.656
464.35	0.657
464.55	0.658
464.75	0.657
464.95	0.655
465.16	0.657
465.36	0.655
465.56	0.654
465.76	0.654
465.97	0.655
466.17	0.656
466.37	0.654
466.57	0.654
466.78	0.656
466.98	0.656
467.18	0.653
467.38	0.652
467.59	0.653
467.79	0.655
467.99	0.653
468.19	0.654
468.39	0.657
468.60	0.657
468.80	0.655
469.00	0.656
469.20	0.656
469.41	0.656
469.61	0.657
469.81	0.657
470.01	0.656
470.22	0.656
470.42	0.654
470.62	0.652
470.82	0.654
471.02	0.653
471.23	0.651
471.43	0.652
471.63	0.654
471.83	0.653
472.04	0.651
472.24	0.650
472.44	0.656
472.64	0.656
472.84	0.654
473.05	0.654
473.25	0.657
473.45	0.656
473.65	0.654
473.85	0.655
474.06	0.656
474.26	0.656
474.46	0.658
474.66	0.655
474.86	0.656
475.07	0.656
475.27	0.654
475.47	0.651
475.67	0.651
475.87	0.653
476.08	0.650
476.28	0.651
476.48	0.653
476.68	0.651
476.88	0.649
477.09	0.650
477.29	0.652
477.49	0.652
477.69	0.651
477.89	0.652
478.09	0.651
478.30	0.654
478.50	0.651
478.70	0.650
478.90	0.650
479.10	0.653
479.31	0.653
479.51	0.651
479.71	0.651
479.91	0.651
480.11	0.650
480.31	0.650
480.52	0.649
480.72	0.649
480.92	0.648
481.12	0.647
481.32	0.644
481.52	0.642
481.72	0.643
481.93	0.647
482.13	0.647
482.33	0.648
482.53	0.645
482.73	0.646
482.93	0.647
483.14	0.646
483.34	0.646
483.54	0.646
483.74	0.645
483.94	0.645
484.14	0.640
484.34	0.641
484.55	0.641
484.75	0.641
484.95	0.639
485.15	0.639
485.35	0.639
485.55	0.639
485.75	0.637
485.96	0.638
486.16	0.639
486.36	0.639
486.56	0.637
486.76	0.637
486.96	0.637
487.16	0.636
487.36	0.634
487.57	0.634
487.77	0.635
487.97	0.636
488.17	0.634
488.37	0.633
488.57	0.633
488.77	0.633
488.97	0.632
489.18	0.632
489.38	0.634
489.58	0.635
489.78	0.634
489.98	0.633
490.18	0.633
490.38	0.634
490.58	0.633
490.78	0.633
490.98	0.634
491.19	0.635
491.39	0.634
491.59	0.633
491.79	0.636
491.99	0.636
492.19	0.636
492.39	0.640
492.59	0.640
492.79	0.641
492.99	0.642
493.20	0.642
493.40	0.641
493.60	0.643
493.80	0.642
494.00	0.640
494.20	0.640
494.40	0.640
494.60	0.637
494.80	0.641
495.00	0.641
495.20	0.639
495.40	0.638
495.61	0.639
495.81	0.639
496.01	0.642
496.21	0.643
496.41	0.642
496.61	0.643
496.81	0.642
497.01	0.637
497.21	0.636
497.41	0.637
497.61	0.636
497.81	0.634
498.01	0.634
498.21	0.632
498.41	0.631
498.61	0.630
498.82	0.632
499.02	0.634
499.22	0.634
499.42	0.634
499.62	0.635
499.82	0.636
500.02	0.638
500.22	0.636
500.42	0.638
500.62	0.639
500.82	0.639
501.02	0.637
501.22	0.638
501.42	0.637
501.62	0.639
501.82	0.638
502.02	0.639
502.22	0.638
502.42	0.640
502.62	0.637
502.82	0.637
503.02	0.638
503.22	0.637
503.42	0.635
503.63	0.635
503.83	0.633
504.03	0.632
504.23	0.630
504.43	0.631
504.63	0.633
504.83	0.632
505.03	0.632
505.23	0.633
505.43	0.635
505.63	0.635
505.83	0.635
506.03	0.637
506.23	0.639
506.43	0.639
506.63	0.638
506.83	0.636
507.03	0.638
507.23	0.638
507.43	0.636
507.63	0.636
507.83	0.637
508.03	0.637
508.23	0.636
508.43	0.635
508.63	0.636
508.83	0.637
509.03	0.638
509.23	0.637
509.43	0.638
509.63	0.638
509.83	0.637
510.03	0.640
510.23	0.642
510.43	0.642
510.63	0.643
510.83	0.642
511.03	0.644
511.23	0.641
511.43	0.641
511.63	0.642
511.83	0.645
512.03	0.644
512.22	0.641
512.42	0.640
512.62	0.641
512.82	0.640
513.02	0.640
513.22	0.640
513.42	0.642
513.62	0.644
513.82	0.643
514.02	0.642
514.22	0.644
514.42	0.645
514.62	0.645
514.82	0.645
515.02	0.647
515.22	0.650
515.42	0.649
515.62	0.652
515.82	0.650
516.02	0.651
516.22	0.651
516.42	0.652
516.62	0.654
516.82	0.655
517.01	0.653
517.21	0.652
517.41	0.655
517.61	0.656
517.81	0.653
518.01	0.652
518.21	0.652
518.41	0.650
518.61	0.649
518.81	0.649
519.01	0.650
519.21	0.651
519.41	0.650
519.61	0.644
519.81	0.646
520.00	0.646
520.20	0.646
520.40	0.649
520.60	0.650
520.80	0.649
521.00	0.650
521.20	0.650
521.40	0.654
521.60	0.655
521.80	0.654
522.00	0.655
522.20	0.657
522.39	0.656
522.59	0.653
522.79	0.654
522.99	0.657
523.19	0.655
523.39	0.654
523.59	0.652
523.79	0.655
523.99	0.656
524.19	0.655
524.38	0.655
524.58	0.656
524.78	0.657
524.98	0.655
525.18	0.657
525.38	0.658
525.58	0.657
525.78	0.655
525.98	0.654
526.18	0.654
526.37	0.654
526.57	0.655
526.77	0.655
526.97	0.656
527.17	0.657
527.37	0.653
527.57	0.656
527.77	0.658
527.96	0.658
528.16	0.656
528.36	0.657
528.56	0.659
528.76	0.657
528.96	0.656
529.16	0.657
529.36	0.660
529.55	0.660
529.75	0.657
529.95	0.657
530.15	0.658
530.35	0.661
530.55	0.658
530.75	0.659
530.94	0.660
531.14	0.660
531.34	0.659
531.54	0.656
531.74	0.660
531.94	0.663
532.13	0.661
532.33	0.662
532.53	0.662
532.73	0.662
532.93	0.660
533.13	0.661
533.33	0.661
533.52	0.661
533.72	0.664
533.92	0.663
534.12	0.660
534.32	0.660
534.52	0.658
534.71	0.660
534.91	0.663
535.11	0.664
535.31	0.662
535.51	0.664
535.71	0.666
535.90	0.664
536.10	0.665
536.30	0.667
536.50	0.668
536.70	0.668
536.89	0.666
537.09	0.666
537.29	0.667
537.49	0.669
537.69	0.666
537.89	0.667
538.08	0.667
538.28	0.665
538.48	0.665
538.68	0.667
538.88	0.668
539.07	0.668
539.27	0.666
539.47	0.666
539.67	0.665
539.87	0.666
540.06	0.664
540.26	0.664
540.46	0.666
540.66	0.663
540.86	0.660
541.05	0.661
541.25	0.662
541.45	0.663
541.65	0.661
541.84	0.663
542.04	0.663
542.24	0.664
542.44	0.663
542.64	0.665
542.83	0.669
543.03	0.669
543.23	0.667
543.43	0.667
543.62	0.669
543.82	0.669
544.02	0.668
544.22	0.668
544.42	0.673
544.61	0.673
544.81	0.669
545.01	0.667
545.21	0.669
545.40	0.669
545.60	0.667
545.80	0.670
546.00	0.671
546.19	0.670
546.39	0.669
546.59	0.666
546.79	0.668
546.98	0.669
547.18	0.668
547.38	0.669
547.58	0.671
547.77	0.672
547.97	0.668
548.17	0.670
548.37	0.670
548.56	0.670
548.76	0.669
548.96	0.671
549.16	0.673
549.35	0.673
549.55	0.671
549.75	0.671
549.95	0.674
550.14	0.675
550.34	0.673
550.54	0.678
550.73	0.682
550.93	0.683
551.13	0.680
551.33	0.678
551.52	0.679
551.72	0.679
551.92	0.677
552.12	0.678
552.31	0.678
552.51	0.678
552.71	0.674
552.90	0.673
553.10	0.674
553.30	0.674
553.50	0.674
553.69	0.675
553.89	0.676
554.09	0.676
554.28	0.673
554.48	0.675
554.68	0.676
554.87	0.676
555.07	0.672
555.27	0.673
555.47	0.675
555.66	0.675
555.86	0.673
556.06	0.676
556.25	0.676
556.45	0.684
556.65	0.682
556.84	0.686
557.04	0.689
557.24	0.690
557.43	0.689
557.63	0.692
557.83	0.695
558.02	0.695
558.22	0.699
558.42	0.700
558.61	0.693
558.81	0.694
559.01	0.690
559.21	0.689
559.40	0.691
559.60	0.690
559.80	0.686
559.99	0.687
560.19	0.689
560.39	0.683
560.58	0.680
560.78	0.680
560.97	0.684
561.17	0.683
561.37	0.681
561.56	0.682
561.76	0.684
561.96	0.683
562.15	0.681
562.35	0.683
562.55	0.685
562.74	0.685
562.94	0.683
563.14	0.682
563.33	0.683
563.53	0.682
563.73	0.680
563.92	0.681
564.12	0.684
564.31	0.686
564.51	0.684
564.71	0.685
564.90	0.689
565.10	0.689
565.30	0.692
565.49	0.692
565.69	0.695
565.89	0.694
566.08	0.691
566.28	0.693
566.47	0.694
566.67	0.692
566.87	0.689
567.06	0.690
567.26	0.697
567.46	0.693
567.65	0.693
567.85	0.694
568.04	0.697
568.24	0.697
568.44	0.694
568.63	0.693
568.83	0.695
569.02	0.694
569.22	0.689
569.42	0.685
569.61	0.688
569.81	0.686
570.00	0.684
570.20	0.686
570.40	0.686
570.59	0.685
570.79	0.684
570.98	0.683
571.18	0.684
571.38	0.684
571.57	0.681
571.77	0.678
571.96	0.682
572.16	0.680
572.35	0.674
572.55	0.675
572.75	0.673
572.94	0.673
573.14	0.671
573.33	0.671
573.53	0.672
573.73	0.671
573.92	0.670
574.12	0.668
574.31	0.670
574.51	0.672
574.70	0.669
574.90	0.671
575.09	0.673
575.29	0.673
575.49	0.671
575.68	0.671
575.88	0.673
576.07	0.674
576.27	0.672
576.46	0.670
576.66	0.669
576.86	0.668
577.05	0.666
577.25	0.664
577.44	0.665
577.64	0.665
577.83	0.662
578.03	0.663
578.22	0.662
578.42	0.662
578.61	0.659
578.81	0.660
579.00	0.661
579.20	0.661
579.40	0.661
579.59	0.660
579.79	0.661
579.98	0.660
580.18	0.660
580.37	0.660
580.57	0.662
580.76	0.667
580.96	0.666
581.15	0.667
581.35	0.669
581.54	0.668
581.74	0.667
581.93	0.669
582.13	0.670
582.32	0.668
582.52	0.666
582.71	0.665
582.91	0.661
583.10	0.661
583.30	0.659
583.49	0.658
583.69	0.662
583.88	0.663
584.08	0.662
584.27	0.664
584.47	0.667
584.66	0.668
584.86	0.667
585.05	0.669
585.25	0.671
585.44	0.670
585.64	0.669
585.83	0.666
586.03	0.666
586.22	0.665
586.42	0.661
586.61	0.663
586.81	0.665
587.00	0.665
587.20	0.662
587.39	0.663
587.59	0.665
587.78	0.666
587.98	0.667
588.17	0.668
588.37	0.670
588.56	0.672
588.76	0.667
588.95	0.667
589.15	0.672
589.34	0.674
589.54	0.673
589.73	0.673
589.92	0.676
590.12	0.676
590.31	0.674
590.51	0.678
590.70	0.681
590.90	0.682
591.09	0.680
591.29	0.678
591.48	0.678
591.68	0.679
591.87	0.677
592.06	0.676
592.26	0.679
592.45	0.678
592.65	0.672
592.84	0.671
593.04	0.673
593.23	0.675
593.43	0.673
593.62	0.673
593.81	0.673
594.01	0.673
594.20	0.670
594.40	0.669
594.59	0.671
594.79	0.672
594.98	0.671
595.17	0.670
595.37	0.670
595.56	0.672
595.76	0.671
595.95	0.673
596.14	0.676
596.34	0.678
596.53	0.677
596.73	0.678
596.92	0.679
597.12	0.682
597.31	0.682
597.50	0.682
597.70	0.684
597.89	0.683
598.09	0.680
598.28	0.680
598.47	0.683
598.67	0.681
598.86	0.678
599.06	0.680
599.25	0.680
599.44	0.678
599.64	0.675
599.83	0.673
600.03	0.676
600.22	0.676
600.41	0.676
600.61	0.673
600.80	0.676
601.00	0.676
601.19	0.671
601.38	0.669
601.58	0.672
601.77	0.673
601.96	0.675
602.16	0.675
602.35	0.684
602.55	0.682
602.74	0.683
602.93	0.684
603.13	0.690
603.32	0.692
603.51	0.691
603.71	0.694
603.90	0.697
604.09	0.697
604.29	0.695
604.48	0.689
604.68	0.690
604.87	0.689
605.06	0.686
605.26	0.682
605.45	0.683
605.64	0.682
605.84	0.677
606.03	0.676
606.22	0.674
606.42	0.673
606.61	0.670
606.80	0.670
607.00	0.671
607.19	0.671
607.38	0.670
607.58	0.671
607.77	0.674
607.96	0.674
608.16	0.673
608.35	0.678
608.54	0.681
608.74	0.684
608.93	0.689
609.12	0.692
609.32	0.695
609.51	0.698
609.70	0.697
609.90	0.700
610.09	0.704
610.28	0.709
610.48	0.702
610.67	0.703
610.86	0.704
611.06	0.698
611.25	0.696
611.44	0.696
611.64	0.697
611.83	0.699
612.02	0.695
612.21	0.694
612.41	0.693
612.60	0.692
612.79	0.688
612.99	0.688
613.18	0.691
613.37	0.688
613.57	0.685
613.76	0.686
613.95	0.684
614.14	0.683
614.34	0.680
614.53	0.681
614.72	0.684
614.92	0.685
615.11	0.682
615.30	0.679
615.49	0.681
615.69	0.684
615.88	0.680
616.07	0.681
616.26	0.683
616.46	0.684
616.65	0.681
616.84	0.680
617.04	0.680
617.23	0.684
617.42	0.684
617.61	0.687
617.81	0.687
618.00	0.689
618.19	0.688
618.38	0.691
618.58	0.695
618.77	0.696
618.96	0.695
619.15	0.697
619.35	0.699
619.54	0.700
619.73	0.695
619.92	0.698
620.12	0.702
620.31	0.703
620.50	0.698
620.69	0.698
620.89	0.701
621.08	0.701
621.27	0.702
621.46	0.700
621.66	0.704
621.85	0.705
622.04	0.701
622.23	0.701
622.43	0.702
622.62	0.702
622.81	0.701
623.00	0.700
623.19	0.704
623.39	0.703
623.58	0.700
623.77	0.699
623.96	0.701
624.16	0.702
624.35	0.697
624.54	0.700
624.73	0.705
624.92	0.702
625.12	0.700
625.31	0.699
625.50	0.702
625.69	0.703
625.88	0.698
626.08	0.698
626.27	0.700
626.46	0.700
626.65	0.697
626.84	0.697
627.04	0.702
627.23	0.702
627.42	0.698
627.61	0.700
627.80	0.703
628.00	0.705
628.19	0.703
628.38	0.706
628.57	0.708
628.76	0.707
628.96	0.704
629.15	0.705
629.34	0.708
629.53	0.707
629.72	0.702
629.91	0.703
630.11	0.709
630.30	0.709
630.49	0.711
630.68	0.712
630.87	0.715
631.06	0.717
631.26	0.712
631.45	0.714
631.64	0.722
631.83	0.724
632.02	0.721
632.21	0.718
632.41	0.725
632.60	0.720
632.79	0.719
632.98	0.720
633.17	0.721
633.36	0.723
633.55	0.719
633.75	0.716
633.94	0.717
634.13	0.716
634.32	0.713
634.51	0.707
634.70	0.710
634.89	0.709
635.09	0.705
635.28	0.706
635.47	0.707
635.66	0.710
635.85	0.705
636.04	0.707
636.23	0.713
636.43	0.714
636.62	0.713
636.81	0.711
637.00	0.715
637.19	0.717
637.38	0.714
637.57	0.714
637.76	0.715
637.95	0.717
638.15	0.713
638.34	0.709
638.53	0.713
638.72	0.714
638.91	0.711
639.10	0.708
639.29	0.709
639.48	0.709
639.67	0.710
639.87	0.708
640.06	0.712
640.25	0.713
640.44	0.714
640.63	0.713
640.82	0.716
641.01	0.716
641.20	0.716
641.39	0.718
641.58	0.720
641.78	0.719
641.97	0.715
642.16	0.730
642.35	0.730
642.54	0.729
642.73	0.724
642.92	0.723
643.11	0.727
643.30	0.726
643.49	0.721
643.68	0.724
643.87	0.724
644.06	0.725
644.25	0.704
644.45	0.707
644.64	0.708
644.83	0.709
645.02	0.705
645.21	0.705
645.40	0.707
645.59	0.706
645.78	0.700
645.97	0.703
646.16	0.703
646.35	0.702
646.54	0.701
646.73	0.702
646.92	0.705
647.11	0.703
647.30	0.699
647.49	0.700
647.68	0.700
647.88	0.698
648.07	0.691
648.26	0.695
648.45	0.698
648.64	0.693
648.83	0.691
649.02	0.693
649.21	0.705
649.40	0.704
649.59	0.699
649.78	0.699
649.97	0.714
650.16	0.714
650.35	0.707
650.54	0.710
650.73	0.718
650.92	0.715
651.11	0.708
651.30	0.705
651.49	0.709
651.68	0.710
651.87	0.707
652.06	0.696
652.25	0.699
652.44	0.702
652.63	0.700
652.82	0.700
653.01	0.701
653.20	0.699
653.39	0.688
653.58	0.685
653.77	0.685
653.96	0.680
654.15	0.673
654.34	0.671
654.53	0.666
654.72	0.660
654.91	0.651
655.10	0.646
655.29	0.644
655.48	0.642
655.67	0.637
655.86	0.634
656.05	0.632
656.24	0.632
656.43	0.628
656.62	0.627
656.81	0.627
657.00	0.625
657.19	0.623
657.38	0.623
657.57	0.622
657.76	0.624
657.95	0.622
658.14	0.626
658.33	0.628
658.51	0.633
658.70	0.633
658.89	0.634
659.08	0.642
659.27	0.649
659.46	0.650
659.65	0.656
659.84	0.660
660.03	0.663
660.22	0.664
660.41	0.667
660.60	0.667
660.79	0.668
660.98	0.673
661.17	0.673
661.36	0.672
661.55	0.673
661.74	0.670
661.92	0.673
662.11	0.675
662.30	0.674
662.49	0.667
662.68	0.667
662.87	0.671
663.06	0.665
663.25	0.665
663.44	0.665
663.63	0.666
663.82	0.665
664.01	0.660
664.20	0.660
664.38	0.661
664.57	0.661
664.76	0.660
664.95	0.661
665.14	0.666
665.33	0.661
665.52	0.668
665.71	0.671
665.90	0.671
666.09	0.673
666.28	0.669
666.46	0.669
666.65	0.670
666.84	0.668
667.03	0.662
667.22	0.659
667.41	0.663
667.60	0.652
667.79	0.646
667.98	0.648
668.16	0.649
668.35	0.649
668.54	0.645
668.73	0.645
668.92	0.646
669.11	0.646
669.30	0.640
669.49	0.636
669.67	0.638
669.86	0.640
670.05	0.637
670.24	0.634
670.43	0.632
670.62	0.631
670.81	0.626
671.00	0.627
671.18	0.627
671.37	0.627
671.56	0.625
671.75	0.624
671.94	0.622
672.13	0.620
672.32	0.615
672.50	0.614
672.69	0.615
672.88	0.615
673.07	0.611
673.26	0.614
673.45	0.615
673.63	0.614
673.82	0.610
674.01	0.612
674.20	0.611
674.39	0.611
674.58	0.611
674.76	0.611
674.95	0.610
675.14	0.610
675.33	0.605
675.52	0.603
675.71	0.604
675.89	0.603
676.08	0.599
676.27	0.599
676.46	0.599
676.65	0.598
676.84	0.597
677.02	0.599
677.21	0.601
677.40	0.600
677.59	0.597
677.78	0.598
677.96	0.600
678.15	0.599
678.34	0.597
678.53	0.597
678.72	0.597
678.90	0.595
679.09	0.591
679.28	0.588
679.47	0.588
679.66	0.588
679.84	0.584
680.03	0.582
680.22	0.581
680.41	0.582
680.60	0.579
680.78	0.579
680.97	0.581
681.16	0.581
681.35	0.579
681.53	0.578
681.72	0.579
681.91	0.582
682.10	0.580
682.29	0.583
682.47	0.581
682.66	0.581
682.85	0.579
683.04	0.577
683.22	0.577
683.41	0.579
683.60	0.578
683.79	0.579
683.97	0.578
684.16	0.577
684.35	0.573
684.54	0.574
684.72	0.575
684.91	0.576
685.10	0.574
685.29	0.575
685.47	0.572
685.66	0.571
685.85	0.568
686.04	0.567
686.22	0.569
686.41	0.572
686.60	0.569
686.79	0.572
686.97	0.573
687.16	0.574
687.35	0.571
687.54	0.575
687.72	0.579
687.91	0.579
688.10	0.580
688.29	0.580
688.47	0.578
688.66	0.578
688.85	0.574
689.03	0.571
689.22	0.575
689.41	0.576
689.60	0.571
689.78	0.569
689.97	0.570
690.16	0.567
690.34	0.563
690.53	0.563
690.72	0.563
690.91	0.561
691.09	0.560
691.28	0.554
691.47	0.552
691.65	0.550
691.84	0.547
692.03	0.545
692.21	0.543
692.40	0.543
692.59	0.539
692.77	0.538
692.96	0.539
693.15	0.540
693.34	0.537
693.52	0.537
693.71	0.539
693.90	0.540
694.08	0.541
694.27	0.542
694.46	0.552
694.64	0.553
694.83	0.552
695.02	0.551
695.20	0.550
695.39	0.550
695.58	0.550
695.76	0.551
695.95	0.551
696.14	0.550
696.32	0.548
696.51	0.539
696.70	0.539
696.88	0.540
697.07	0.539
697.26	0.541
697.44	0.542
697.63	0.541
697.81	0.539
698.00	0.537
698.19	0.537
698.37	0.537
698.56	0.537
698.75	0.537
698.93	0.536
699.12	0.536
699.31	0.535
699.49	0.534
699.68	0.535
699.87	0.537
700.05	0.537
700.24	0.536
700.42	0.537
700.61	0.536
700.80	0.534
700.98	0.535
701.17	0.536
701.36	0.535
701.54	0.535
701.73	0.536
701.91	0.534
702.10	0.533
702.29	0.531
702.47	0.530
702.66	0.531
702.84	0.532
703.03	0.530
703.22	0.531
703.40	0.532
703.59	0.532
703.77	0.532
703.96	0.532
704.15	0.533
704.33	0.534
704.52	0.532
704.70	0.532
704.89	0.532
705.08	0.530
705.26	0.526
705.45	0.526
705.63	0.526
705.82	0.523
706.00	0.521
706.19	0.521
706.38	0.521
706.56	0.521
706.75	0.519
706.93	0.518
707.12	0.518
707.30	0.519
707.49	0.516
707.68	0.514
707.86	0.514
708.05	0.513
708.23	0.510
708.42	0.511
708.60	0.514
708.79	0.513
708.98	0.512
709.16	0.512
709.35	0.513
709.53	0.518
709.72	0.516
709.90	0.519
710.09	0.521
710.27	0.522
710.46	0.525
710.64	0.524
710.83	0.526
711.02	0.528
711.20	0.526
711.39	0.525
711.57	0.522
711.76	0.523
711.94	0.520
712.13	0.522
712.31	0.522
712.50	0.517
712.68	0.515
712.87	0.515
713.05	0.516
713.24	0.517
713.42	0.516
713.61	0.517
713.79	0.517
713.98	0.518
714.16	0.518
714.35	0.517
714.54	0.519
714.72	0.519
714.91	0.517
715.09	0.523
715.28	0.526
715.46	0.525
715.65	0.523
715.83	0.523
716.02	0.526
716.20	0.522
716.39	0.521
716.57	0.522
716.76	0.524
716.94	0.525
717.12	0.518
717.31	0.519
717.49	0.521
717.68	0.524
717.86	0.523
718.05	0.525
718.23	0.528
718.42	0.529
718.60	0.531
718.79	0.538
718.97	0.540
719.16	0.540
719.34	0.538
719.53	0.538
719.71	0.538
719.90	0.539
720.08	0.536
720.27	0.536
720.45	0.536
720.63	0.534
720.82	0.528
721.00	0.531
721.19	0.534
721.37	0.533
721.56	0.533
721.74	0.536
721.93	0.544
722.11	0.551
722.30	0.551
722.48	0.556
722.66	0.558
722.85	0.558
723.03	0.558
723.22	0.556
723.40	0.559
723.59	0.560
723.77	0.563
723.95	0.557
724.14	0.557
724.32	0.558
724.51	0.556
724.69	0.557
724.88	0.557
725.06	0.555
725.24	0.556
725.43	0.558
725.61	0.560
725.80	0.555
725.98	0.553
726.16	0.549
726.35	0.555
726.53	0.555
726.72	0.553
726.90	0.564
727.09	0.565
727.27	0.571
727.45	0.567
727.64	0.576
727.82	0.584
728.01	0.589
728.19	0.587
728.37	0.592
728.56	0.597
728.74	0.603
728.92	0.591
729.11	0.593
729.29	0.592
729.48	0.595
729.66	0.584
729.84	0.583
730.03	0.586
730.21	0.588
730.40	0.578
730.58	0.578
730.76	0.578
730.95	0.580
731.13	0.580
731.31	0.594
731.50	0.601
731.68	0.605
731.86	0.601
732.05	0.616
732.23	0.618
732.42	0.622
732.60	0.625
732.78	0.630
732.97	0.649
733.15	0.654
733.33	0.640
733.52	0.650
733.70	0.660
733.88	0.670
734.07	0.653
734.25	0.679
734.43	0.686
734.62	0.691
734.80	0.685
734.98	0.673
735.17	0.680
735.35	0.688
735.53	0.672
735.72	0.678
735.90	0.700
736.08	0.719
736.27	0.697
736.45	0.708
736.63	0.720
736.82	0.732
737.00	0.735
737.18	0.744
737.37	0.772
737.55	0.799
737.73	0.790
737.92	0.788
738.10	0.785
738.28	0.805
738.46	0.790
738.65	0.799
738.83	0.818
739.01	0.864
739.20	0.855
739.38	0.840
739.56	0.828
739.75	0.835
739.93	0.803
740.11	0.827
740.29	0.824
740.48	0.829
740.66	0.810
740.84	0.804
741.03	0.777
741.21	0.792
741.39	0.774
741.57	0.790
741.76	0.806
741.94	0.811
742.12	0.776
742.31	0.782
742.49	0.801
742.67	0.821
742.85	0.836
743.04	0.833
743.22	0.838
743.40	0.887
743.58	0.866
743.77	0.879
743.95	0.909
744.13	0.958
744.31	0.936
744.50	0.933
744.68	0.934
744.86	0.902
745.04	0.914
745.23	0.972
745.41	0.955
745.59	0.965
745.77	0.933
745.96	0.930
746.14	0.938
746.32	0.940
746.50	0.927
746.69	0.911
746.87	0.927
747.05	0.918
747.23	0.846
747.42	0.831
747.60	0.857
747.78	0.860
747.96	0.886
748.14	0.845
748.33	0.872
748.51	0.866
748.69	0.859
748.87	0.885
749.06	0.878
749.24	0.879
749.42	0.866
749.60	0.846
749.78	0.857
749.97	0.814
750.15	0.807
750.33	0.807
750.51	0.836
750.69	0.842
750.88	0.846
751.06	0.858
751.24	0.882
751.42	0.875
751.60	0.868
751.79	0.933
751.97	0.976
752.15	0.977
752.33	0.942
752.51	0.999
752.69	1.009
752.88	0.977
753.06	1.016
753.24	0.995
753.42	1.028
753.60	1.176
753.78	1.048
753.97	1.069
754.15	1.087
754.33	1.112
754.51	0.997
754.69	0.986
754.87	1.015
755.06	0.954
755.24	0.956
755.42	0.963
755.60	0.870
755.78	0.877
755.96	0.823
756.15	0.827
756.33	0.833
756.51	0.851
756.69	0.839
756.87	0.810
757.05	0.824
757.23	0.806
757.42	0.776
757.60	0.777
757.78	0.769
757.96	0.769
758.14	0.749
758.32	0.735
758.50	0.747
758.69	0.747
758.87	0.734
759.05	0.737
759.23	0.748
759.41	0.747
759.59	0.736
759.77	0.756
759.95	0.782
760.13	0.828
760.32	0.827
760.50	0.823
760.68	0.847
760.86	0.852
761.04	0.827
761.22	0.831
761.40	0.875
761.58	0.880
761.76	0.852
761.95	0.833
762.13	0.791
762.31	0.791
762.49	0.762
762.67	0.778
762.85	0.790
763.03	0.784
763.21	0.767
763.39	0.751
763.57	0.752
763.75	0.747
763.94	0.734
764.12	0.735
764.30	0.755
764.48	0.759
764.66	0.725
764.84	0.721
765.02	0.759
765.20	0.768
765.38	0.749
765.56	0.754
765.74	0.791
765.92	0.790
766.10	0.796
766.28	0.792
766.46	0.817
766.65	0.817
766.83	0.808
767.01	0.791
767.19	0.799
767.37	0.798
767.55	0.784
767.73	0.767
767.91	0.772
768.09	0.762
768.27	0.750
768.45	0.742
768.63	0.746
768.81	0.746
768.99	0.722
769.17	0.742
769.35	0.758
769.53	0.756
769.71	0.737
769.89	0.744
770.07	0.749
770.25	0.733
770.43	0.711
770.61	0.737
770.79	0.740
770.97	0.749
771.15	0.721
771.33	0.721
771.51	0.726
771.69	0.736
771.87	0.743
772.05	0.748
772.24	0.756
772.42	0.767
772.60	0.742
772.78	0.798
772.96	0.824
773.14	0.820
773.32	0.800
773.49	0.806
773.67	0.802
773.85	0.781
774.03	0.769
774.21	0.799
774.39	0.809
774.57	0.832
774.75	0.767
774.93	0.762
775.11	0.783
775.29	0.788
775.47	0.787
775.65	0.797
775.83	0.816
776.01	0.840
776.19	0.794
776.37	0.796
776.55	0.792
776.73	0.788
776.91	0.782
777.09	0.764
777.27	0.763
777.45	0.754
777.63	0.733
777.81	0.730
777.99	0.717
778.17	0.717
778.35	0.697
778.53	0.689
778.71	0.695
778.89	0.684
779.07	0.677
779.24	0.683
779.42	0.685
779.60	0.703
779.78	0.699
779.96	0.705
780.14	0.713
780.32	0.732
780.50	0.718
780.68	0.718
780.86	0.709
781.04	0.724
781.22	0.729
781.40	0.737
781.58	0.727
781.75	0.721
781.93	0.706
782.11	0.706
782.29	0.692
782.47	0.691
782.65	0.679
782.83	0.707
783.01	0.699
783.19	0.690
783.37	0.679
783.55	0.683
783.72	0.697
783.90	0.705
784.08	0.699
784.26	0.709
784.44	0.726
784.62	0.728
784.80	0.697
784.98	0.703
785.16	0.708
785.33	0.722
785.51	0.707
785.69	0.697
785.87	0.698
786.05	0.709
786.23	0.707
786.41	0.706
786.59	0.712
786.77	0.712
786.94	0.700
787.12	0.704
787.30	0.706
787.48	0.703
787.66	0.692
787.84	0.691
788.02	0.680
788.19	0.678
788.37	0.664
788.55	0.666
788.73	0.667
788.91	0.663
789.09	0.648
789.27	0.638
789.44	0.650
789.62	0.656
789.80	0.663
789.98	0.687
790.16	0.675
790.34	0.672
790.51	0.658
790.69	0.675
790.87	0.681
791.05	0.679
791.23	0.672
791.41	0.672
791.58	0.678
791.76	0.659
791.94	0.632
792.12	0.641
792.30	0.643
792.48	0.641
792.65	0.636
792.83	0.642
793.01	0.649
793.19	0.646
793.37	0.631
793.54	0.629
793.72	0.638
793.90	0.636
794.08	0.626
794.26	0.628
794.43	0.638
794.61	0.623
794.79	0.612
794.97	0.611
795.15	0.617
795.32	0.621
795.50	0.609
795.68	0.605
795.86	0.609
796.04	0.609
796.21	0.602
796.39	0.598
796.57	0.612
796.75	0.618
796.92	0.619
797.10	0.623
797.28	0.625
797.46	0.628
797.64	0.630
797.81	0.639
797.99	0.644
798.17	0.647
798.35	0.644
798.52	0.647
798.70	0.643
798.88	0.653
799.06	0.653
799.23	0.656
799.41	0.665
799.59	0.659
799.77	0.646
799.94	0.655
800.12	0.665
800.30	0.681
800.48	0.679
800.65	0.679
800.83	0.668
801.01	0.660
801.19	0.660
801.36	0.657
801.54	0.660
801.72	0.671
801.90	0.655
802.07	0.649
802.25	0.636
802.43	0.621
802.60	0.617
802.78	0.624
802.96	0.629
803.14	0.622
803.31	0.619
803.49	0.617
803.67	0.613
803.84	0.620
804.02	0.613
804.20	0.615
804.38	0.621
804.55	0.621
804.73	0.606
804.91	0.608
805.08	0.620
805.26	0.617
805.44	0.681
805.61	0.685
805.79	0.683
805.97	0.682
806.15	0.676
806.32	0.669
806.50	0.674
806.68	0.675
806.85	0.665
807.03	0.656
807.21	0.670
807.38	0.604
807.56	0.592
807.74	0.603
807.91	0.610
808.09	0.612
808.27	0.632
808.44	0.657
808.62	0.667
808.80	0.667
808.97	0.663
809.15	0.658
809.33	0.677
809.50	0.686
809.68	0.671
809.86	0.678
810.03	0.707
810.21	0.687
810.39	0.671
810.56	0.676
810.74	0.701
810.91	0.770
811.09	0.760
811.27	0.778
811.44	0.784
811.62	0.784
811.80	0.770
811.97	0.740
812.15	0.737
812.33	0.730
812.50	0.714
812.68	0.703
812.85	0.651
813.03	0.653
813.21	0.624
813.38	0.617
813.56	0.620
813.74	0.628
813.91	0.636
814.09	0.665
814.26	0.660
814.44	0.664
814.62	0.653
814.79	0.654
814.97	0.659
815.14	0.663
815.32	0.667
815.50	0.684
815.67	0.686
815.85	0.677
816.02	0.667
816.20	0.675
816.38	0.691
816.55	0.699
816.73	0.700
816.90	0.709
817.08	0.738
817.26	0.743
817.43	0.723
817.61	0.747
817.78	0.767
817.96	0.747
818.13	0.738
818.31	0.734
818.49	0.743
818.66	0.733
818.84	0.720
819.01	0.700
819.19	0.705
819.36	0.706
819.54	0.678
819.71	0.718
819.89	0.731
820.07	0.742
820.24	0.739
820.42	0.741
820.59	0.761
820.77	0.782
820.94	0.773
821.12	0.792
821.29	0.804
821.47	0.806
821.64	0.743
821.82	0.752
822.00	0.746
822.17	0.741
822.35	0.735
822.52	0.736
822.70	0.727
822.87	0.735
823.05	0.713
823.22	0.727
823.40	0.755
823.57	0.777
823.75	0.763
823.92	0.787
824.10	0.806
824.27	0.845
824.45	0.836
824.62	0.893
824.80	0.909
824.97	0.924
825.15	0.909
825.32	0.917
825.50	0.919
825.67	0.931
825.85	0.909
826.02	0.927
826.20	0.949
826.37	1.060
826.55	0.983
826.72	1.157
826.90	1.229
827.07	1.290
827.25	1.226
827.42	1.384
827.60	1.522
827.77	1.688
827.95	1.640
828.12	1.770
828.30	1.403
828.47	1.535
828.65	1.181
828.82	1.231
829.00	1.284
829.17	1.372
829.34	1.342
829.52	1.359
829.69	-0.000
829.87	-0.000
830.04	-0.000
830.22	-0.000
830.39	-0.000
830.57	-0.000
830.74	-0.000
830.92	-0.000
831.09	-0.000
831.26	-0.000
831.44	-0.000
831.61	-0.000
831.79	-0.000
831.96	-0.000
832.14	-0.000
832.31	-0.000
832.49	-0.000
832.66	-0.000
832.83	-0.000
833.01	-0.000
833.18	-0.000
833.36	-0.000
833.53	-0.000
833.70	-0.000
833.88	-0.000
834.05	-0.000
834.23	-0.000
834.40	-0.000
834.58	-0.000
834.75	-0.000
834.92	-0.000
835.10	-0.000
835.27	-0.000
835.45	-0.000
835.62	-0.000
835.79	-0.000
835.97	-0.000
836.14	-0.000
836.32	-0.000
836.49	-0.000
836.66	-0.000
836.84	-0.000
837.01	-0.000
837.18	-0.000
837.36	-0.000
837.53	-0.000
837.71	-0.000
837.88	-0.000
838.05	-0.000
838.23	-0.000
838.40	-0.000
838.58	-0.000
838.75	-0.000
838.92	-0.000
839.10	-0.000
839.27	-0.000
839.44	-0.000
839.62	-0.000
839.79	-0.000
839.96	-0.000
840.14	-0.000
840.31	-0.000
840.48	-0.000
840.66	-0.000
840.83	-0.000
841.01	-0.000
841.18	-0.000
841.35	-0.000
841.53	-0.000
841.70	-0.000
841.87	-0.000
842.05	-0.000
842.22	-0.000
842.39	-0.000
842.57	-0.000
842.74	-0.000
842.91	-0.000
843.09	-0.000
843.26	-0.000
843.43	-0.000
843.60	-0.000
843.78	-0.000
843.95	-0.000
844.12	-0.000
844.30	-0.000
844.47	-0.000
844.64	-0.000
844.82	-0.000
844.99	-0.000
845.16	-0.000
845.34	-0.000
845.51	-0.000
845.68	-0.000
845.85	-0.000
846.03	-0.000
846.20	-0.000
846.37	-0.000
846.55	-0.000
846.72	-0.000
846.89	-0.000
847.06	-0.000
847.24	-0.000
847.41	-0.000
847.58	-0.000
847.76	-0.000
847.93	-0.000
848.10	-0.000
848.27	-0.000
848.45	-0.000
848.62	-0.000
848.79	-0.000
848.97	-0.000
849.14	-0.000
849.31	-0.000
849.48	-0.000
849.66	-0.000
849.83	-0.000
850.00	-0.000
850.17	-0.000
850.35	-0.000
850.52	-0.000
850.69	-0.000
850.86	-0.000
851.04	-0.000
851.21	-0.000
851.38	-0.000
851.55	-0.000
851.72	-0.000
851.90	-0.000
852.07	-0.000
852.24	-0.000
852.41	-0.000
852.59	-0.000
852.76	-0.000
852.93	-0.000
853.10	-0.000
853.28	-0.000
853.45	-0.000
853.62	-0.000
853.79	-0.000
853.96	-0.000
854.14	-0.000
854.31	-0.000
854.48	-0.000
854.65	-0.000
854.82	-0.000
855.00	-0.000
855.17	-0.000
855.34	-0.000
855.51	-0.000
855.68	-0.000
855.86	-0.000
856.03	-0.000
856.20	-0.000
856.37	-0.000
856.54	-0.000
856.72	-0.000
856.89	-0.000
857.06	-0.000
857.23	-0.000
857.40	-0.000
857.57	-0.000
857.75	-0.000
857.92	-0.000
858.09	-0.000
858.26	-0.000
858.43	-0.000
858.60	-0.000
858.78	-0.000
858.95	-0.000
859.12	-0.000
859.29	-0.000
859.46	-0.000
859.63	-0.000
859.81	-0.000
859.98	-0.000
860.15	-0.000
860.32	-0.000
860.49	-0.000
860.66	-0.000
860.83	-0.000
861.01	-0.000
861.18	-0.000
861.35	-0.000
861.52	-0.000
861.69	-0.000
861.86	-0.000
862.03	-0.000
862.21	-0.000
862.38	-0.000
862.55	-0.000
862.72	-0.000
862.89	-0.000
863.06	-0.000
863.23	-0.000
863.40	-0.000
863.58	-0.000
863.75	-0.000
863.92	-0.000
864.09	-0.000
864.26	-0.000
864.43	-0.000
864.60	-0.000
864.77	-0.000
864.94	-0.000
865.11	-0.000
865.29	-0.000
865.46	-0.000
865.63	-0.000
865.80	-0.000
865.97	-0.000
866.14	-0.000
866.31	-0.000
866.48	-0.000
866.65	-0.000
866.82	-0.000
866.99	-0.000
867.16	-0.000
867.34	-0.000
867.51	-0.000
867.68	-0.000
867.85	-0.000
868.02	-0.000
868.19	-0.000
868.36	-0.000
868.53	-0.000
868.70	-0.000
868.87	-0.000
869.04	-0.000
869.21	-0.000
869.38	-0.000
869.55	-0.000
869.72	-0.000
869.89	-0.000
870.06	-0.000
870.24	-0.000
870.41	-0.000
870.58	-0.000
870.75	-0.000
870.92	-0.000
871.09	-0.000
871.26	-0.000
871.43	-0.000
871.60	-0.000
871.77	-0.000
871.94	-0.000
872.11	-0.000
872.28	-0.000
872.45	-0.000
872.62	-0.000
872.79	-0.000
872.96	-0.000
873.13	-0.000
873.30	-0.000
873.47	-0.000
873.64	-0.000
873.81	-0.000
873.98	-0.000
874.15	-0.000
874.32	-0.000
874.49	-0.000
874.66	-0.000
874.83	-0.000
875.00	-0.000
875.17	-0.000
875.34	-0.000
875.51	-0.000
875.68	-0.000
875.85	-0.000
876.02	-0.000
876.19	-0.000
876.36	-0.000
876.53	-0.000
876.70	-0.000
876.87	-0.000
877.04	-0.000
877.21	-0.000
877.38	-0.000
877.55	-0.000
877.72	-0.000
877.89	-0.000
878.06	-0.000
878.23	-0.000
878.39	-0.000
878.56	-0.000
878.73	-0.000
878.90	-0.000
879.07	-0.000
879.24	-0.000
879.41	-0.000
879.58	-0.000
879.75	-0.000
879.92	-0.000
880.09	-0.000
880.26	-0.000
880.43	-0.000
880.60	-0.000
880.77	-0.000
880.94	-0.000
881.11	-0.000
881.27	-0.000
881.44	-0.000
881.61	-0.000
881.78	-0.000
881.95	-0.000
882.12	-0.000
882.29	-0.000
882.46	-0.000
882.63	-0.000
882.80	-0.000
882.97	-0.000
883.14	-0.000
883.30	-0.000
883.47	-0.000
883.64	-0.000
883.81	-0.000
883.98	-0.000
884.15	-0.000
884.32	-0.000
884.49	-0.000
884.66	-0.000
884.82	-0.000
884.99	-0.000
885.16	-0.000
885.33	-0.000
885.50	-0.000
885.67	-0.000
885.84	-0.000
886.01	-0.000
886.17	-0.000
886.34	-0.000
886.51	-0.000
886.68	-0.000
886.85	-0.000
887.02	-0.000
887.19	-0.000
887.36	-0.000
887.52	-0.000
887.69	-0.000
887.86	-0.000
888.03	-0.000
888.20	-0.000
888.37	-0.000
888.54	-0.000
888.70	-0.000
888.87	-0.000
889.04	-0.000
889.21	-0.000
889.38	-0.000
889.55	-0.000
889.71	-0.000
889.88	-0.000
890.05	-0.000
890.22	-0.000
890.39	-0.000
>>>>>End Processed Spectral Data<<<<<
