SpectraSuite Data File
++++++++++++++++++++++++++++++++++++
Date: Fri Jun 19 14:27:55 CEST 2015
User: introlabs
Dark Spectrum Present: Yes
Reference Spectrum Present: Yes
Number of Sampled Component Spectra: 1
Spectrometers: USB4H08886
Integration Time (usec): 745692 (USB4H08886)
Spectra Averaged: 5 (USB4H08886)
Boxcar Smoothing: 5 (USB4H08886)
Correct for Electrical Dark: Yes (USB4H08886)
Strobe/Lamp Enabled: No (USB4H08886)
Correct for Detector Non-linearity: Yes (USB4H08886)
Correct for Stray Light: Yes (USB4H08886)
Number of Pixels in Processed Spectrum: 3648
>>>>>Begin Processed Spectral Data<<<<<
178.14	-0.000
178.36	-0.000
178.57	-0.000
178.79	-0.000
179.01	-0.000
179.22	-0.000
179.44	-0.000
179.65	-0.000
179.87	-0.000
180.08	-0.000
180.30	-0.000
180.52	-0.000
180.73	-0.000
180.95	-0.000
181.16	-0.000
181.38	-0.000
181.59	-0.000
181.81	-0.000
182.03	-0.000
182.24	-0.000
182.46	-0.000
182.67	-0.000
182.89	-0.000
183.10	-0.000
183.32	-0.000
183.54	-0.000
183.75	-0.000
183.97	-0.000
184.18	-0.000
184.40	-0.000
184.61	-0.000
184.83	-0.000
185.04	-0.000
185.26	-0.000
185.48	-0.000
185.69	-0.000
185.91	-0.000
186.12	-0.000
186.34	-0.000
186.55	-0.000
186.77	-0.000
186.98	-0.000
187.20	-0.000
187.42	-0.000
187.63	-0.000
187.85	-0.000
188.06	-0.000
188.28	-0.000
188.49	-0.000
188.71	-0.000
188.92	-0.000
189.14	-0.000
189.36	-0.000
189.57	-0.000
189.79	-0.000
190.00	-0.000
190.22	-0.000
190.43	-0.000
190.65	-0.000
190.86	-0.000
191.08	-0.000
191.29	-0.000
191.51	-0.000
191.72	-0.000
191.94	-0.000
192.16	-0.000
192.37	-0.000
192.59	-0.000
192.80	-0.000
193.02	-0.000
193.23	-0.000
193.45	-0.000
193.66	-0.000
193.88	-0.000
194.09	-0.000
194.31	-0.000
194.52	-0.000
194.74	-0.000
194.95	-0.000
195.17	-0.000
195.38	-0.000
195.60	-0.000
195.81	-0.000
196.03	-0.000
196.25	-0.000
196.46	-0.000
196.68	-0.000
196.89	-0.000
197.11	-0.000
197.32	-0.000
197.54	-0.000
197.75	-0.000
197.97	-0.000
198.18	-0.000
198.40	-0.000
198.61	-0.000
198.83	-0.000
199.04	-0.000
199.26	-0.000
199.47	-0.000
199.69	-0.000
199.90	-0.000
200.12	-0.000
200.33	-0.000
200.55	-0.000
200.76	-0.000
200.98	-0.000
201.19	-0.000
201.41	-0.000
201.62	-0.000
201.84	-0.000
202.05	-0.000
202.27	-0.000
202.48	-0.000
202.70	-0.000
202.91	-0.000
203.13	-0.000
203.34	-0.000
203.56	-0.000
203.77	-0.000
203.99	-0.000
204.20	-0.000
204.42	-0.000
204.63	-0.000
204.85	-0.000
205.06	-0.000
205.28	-0.000
205.49	-0.000
205.71	-0.000
205.92	-0.000
206.14	-0.000
206.35	-0.000
206.56	-0.000
206.78	-0.000
206.99	-0.000
207.21	-0.000
207.42	-0.000
207.64	-0.000
207.85	-0.000
208.07	-0.000
208.28	-0.000
208.50	-0.000
208.71	-0.000
208.93	-0.000
209.14	-0.000
209.36	-0.000
209.57	-0.000
209.79	-0.000
210.00	-0.000
210.22	-0.000
210.43	-0.000
210.64	-0.000
210.86	-0.000
211.07	-0.000
211.29	-0.000
211.50	-0.000
211.72	-0.000
211.93	-0.000
212.15	-0.000
212.36	-0.000
212.58	-0.000
212.79	-0.000
213.01	-0.000
213.22	-0.000
213.43	-0.000
213.65	-0.000
213.86	-0.000
214.08	-0.000
214.29	-0.000
214.51	-0.000
214.72	-0.000
214.94	-0.000
215.15	-0.000
215.36	-0.000
215.58	-0.000
215.79	-0.000
216.01	-0.000
216.22	-0.000
216.44	-0.000
216.65	-0.000
216.87	-0.000
217.08	-0.000
217.29	-0.000
217.51	-0.000
217.72	-0.000
217.94	-0.000
218.15	-0.000
218.37	-0.000
218.58	-0.000
218.80	-0.000
219.01	-0.000
219.22	-0.000
219.44	-0.000
219.65	-0.000
219.87	-0.000
220.08	-0.000
220.30	-0.000
220.51	-0.000
220.72	-0.000
220.94	-0.000
221.15	-0.000
221.37	-0.000
221.58	-0.000
221.79	-0.000
222.01	-0.000
222.22	-0.000
222.44	-0.000
222.65	-0.000
222.87	-0.000
223.08	-0.000
223.29	-0.000
223.51	-0.000
223.72	-0.000
223.94	-0.000
224.15	-0.000
224.36	-0.000
224.58	-0.000
224.79	-0.000
225.01	-0.000
225.22	-0.000
225.44	-0.000
225.65	-0.000
225.86	-0.000
226.08	-0.000
226.29	-0.000
226.51	-0.000
226.72	-0.000
226.93	-0.000
227.15	-0.000
227.36	-0.000
227.58	-0.000
227.79	-0.000
228.00	-0.000
228.22	-0.000
228.43	-0.000
228.65	-0.000
228.86	-0.000
229.07	-0.000
229.29	-0.000
229.50	-0.000
229.72	-0.000
229.93	-0.000
230.14	-0.000
230.36	-0.000
230.57	-0.000
230.78	-0.000
231.00	-0.000
231.21	-0.000
231.43	-0.000
231.64	-0.000
231.85	-0.000
232.07	-0.000
232.28	-0.000
232.50	-0.000
232.71	-0.000
232.92	-0.000
233.14	-0.000
233.35	-0.000
233.56	-0.000
233.78	-0.000
233.99	-0.000
234.21	-0.000
234.42	-0.000
234.63	-0.000
234.85	-0.000
235.06	-0.000
235.27	-0.000
235.49	-0.000
235.70	-0.000
235.91	-0.000
236.13	-0.000
236.34	-0.000
236.56	-0.000
236.77	-0.000
236.98	-0.000
237.20	-0.000
237.41	-0.000
237.62	-0.000
237.84	-0.000
238.05	-0.000
238.26	-0.000
238.48	-0.000
238.69	-0.000
238.91	-0.000
239.12	-0.000
239.33	-0.000
239.55	-0.000
239.76	-0.000
239.97	-0.000
240.19	-0.000
240.40	-0.000
240.61	-0.000
240.83	-0.000
241.04	-0.000
241.25	-0.000
241.47	-0.000
241.68	-0.000
241.89	-0.000
242.11	-0.000
242.32	-0.000
242.53	-0.000
242.75	-0.000
242.96	-0.000
243.17	-0.000
243.39	-0.000
243.60	-0.000
243.81	-0.000
244.03	-0.000
244.24	-0.000
244.45	-0.000
244.67	-0.000
244.88	-0.000
245.09	-0.000
245.31	-0.000
245.52	-0.000
245.73	-0.000
245.95	-0.000
246.16	-0.000
246.37	-0.000
246.59	-0.000
246.80	-0.000
247.01	-0.000
247.23	-0.000
247.44	-0.000
247.65	-0.000
247.87	-0.000
248.08	-0.000
248.29	-0.000
248.51	-0.000
248.72	-0.000
248.93	-0.000
249.15	-0.000
249.36	-0.000
249.57	-0.000
249.78	-0.000
250.00	-0.000
250.21	-0.000
250.42	-0.000
250.64	-0.000
250.85	-0.000
251.06	-0.000
251.28	-0.000
251.49	-0.000
251.70	-0.000
251.92	-0.000
252.13	-0.000
252.34	-0.000
252.55	-0.000
252.77	-0.000
252.98	-0.000
253.19	-0.000
253.41	-0.000
253.62	-0.000
253.83	-0.000
254.05	-0.000
254.26	-0.000
254.47	-0.000
254.68	-0.000
254.90	-0.000
255.11	-0.000
255.32	-0.000
255.54	-0.000
255.75	-0.000
255.96	-0.000
256.17	-0.000
256.39	-0.000
256.60	-0.000
256.81	-0.000
257.03	-0.000
257.24	-0.000
257.45	-0.000
257.66	-0.000
257.88	-0.000
258.09	-0.000
258.30	-0.000
258.51	-0.000
258.73	-0.000
258.94	-0.000
259.15	-0.000
259.37	-0.000
259.58	-0.000
259.79	-0.000
260.00	-0.000
260.22	-0.000
260.43	-0.000
260.64	-0.000
260.85	-0.000
261.07	-0.000
261.28	-0.000
261.49	-0.000
261.71	-0.000
261.92	-0.000
262.13	-0.000
262.34	-0.000
262.56	-0.000
262.77	-0.000
262.98	-0.000
263.19	-0.000
263.41	-0.000
263.62	-0.000
263.83	-0.000
264.04	-0.000
264.26	-0.000
264.47	-0.000
264.68	-0.000
264.89	-0.000
265.11	-0.000
265.32	-0.000
265.53	-0.000
265.74	-0.000
265.96	-0.000
266.17	-0.000
266.38	-0.000
266.59	-0.000
266.81	-0.000
267.02	-0.000
267.23	-0.000
267.44	-0.000
267.65	-0.000
267.87	-0.000
268.08	-0.000
268.29	-0.000
268.50	-0.000
268.72	-0.000
268.93	-0.000
269.14	-0.000
269.35	-0.000
269.57	-0.000
269.78	-0.000
269.99	-0.000
270.20	-0.000
270.41	-0.000
270.63	-0.000
270.84	-0.000
271.05	-0.000
271.26	-0.000
271.48	-0.000
271.69	-0.000
271.90	-0.000
272.11	-0.000
272.32	-0.000
272.54	-0.000
272.75	-0.000
272.96	-0.000
273.17	-0.000
273.39	-0.000
273.60	-0.000
273.81	-0.000
274.02	-0.000
274.23	-0.000
274.45	-0.000
274.66	-0.000
274.87	-0.000
275.08	-0.000
275.29	-0.000
275.51	-0.000
275.72	-0.000
275.93	-0.000
276.14	-0.000
276.35	-0.000
276.57	-0.000
276.78	-0.000
276.99	-0.000
277.20	-0.000
277.41	-0.000
277.63	-0.000
277.84	-0.000
278.05	-0.000
278.26	-0.000
278.47	-0.000
278.69	-0.000
278.90	-0.000
279.11	-0.000
279.32	-0.000
279.53	-0.000
279.74	-0.000
279.96	-0.000
280.17	-0.000
280.38	-0.000
280.59	-0.000
280.80	-0.000
281.02	-0.000
281.23	-0.000
281.44	-0.000
281.65	-0.000
281.86	-0.000
282.07	-0.000
282.29	-0.000
282.50	-0.000
282.71	-0.000
282.92	-0.000
283.13	-0.000
283.35	-0.000
283.56	-0.000
283.77	-0.000
283.98	-0.000
284.19	-0.000
284.40	-0.000
284.62	-0.000
284.83	-0.000
285.04	-0.000
285.25	-0.000
285.46	-0.000
285.67	-0.000
285.88	-0.000
286.10	-0.000
286.31	-0.000
286.52	-0.000
286.73	-0.000
286.94	-0.000
287.15	-0.000
287.37	-0.000
287.58	-0.000
287.79	-0.000
288.00	-0.000
288.21	-0.000
288.42	-0.000
288.63	-0.000
288.85	-0.000
289.06	-0.000
289.27	-0.000
289.48	-0.000
289.69	-0.000
289.90	-0.000
290.11	-0.000
290.33	-0.000
290.54	-0.000
290.75	-0.000
290.96	-0.000
291.17	-0.000
291.38	-0.000
291.59	-0.000
291.81	-0.000
292.02	-0.000
292.23	-0.000
292.44	-0.000
292.65	-0.000
292.86	-0.000
293.07	-0.000
293.28	-0.000
293.50	-0.000
293.71	-0.000
293.92	-0.000
294.13	-0.000
294.34	-0.000
294.55	-0.000
294.76	-0.000
294.97	-0.000
295.19	-0.000
295.40	-0.000
295.61	-0.000
295.82	-0.000
296.03	-0.000
296.24	-0.000
296.45	2.306
296.66	1.825
296.87	1.857
297.09	1.949
297.30	2.269
297.51	1.774
297.72	1.740
297.93	1.853
298.14	1.813
298.35	1.762
298.56	1.726
298.77	1.902
298.99	1.882
299.20	1.834
299.41	1.803
299.62	1.746
299.83	1.731
300.04	1.642
300.25	1.630
300.46	1.678
300.67	1.646
300.88	1.584
301.10	1.583
301.31	1.663
301.52	1.593
301.73	1.526
301.94	1.527
302.15	1.543
302.36	1.501
302.57	1.434
302.78	1.438
302.99	1.488
303.20	1.508
303.41	1.411
303.63	1.393
303.84	1.401
304.05	1.399
304.26	1.336
304.47	1.343
304.68	1.339
304.89	1.329
305.10	1.286
305.31	1.270
305.52	1.314
305.73	1.305
305.94	1.265
306.15	1.258
306.37	1.282
306.58	1.291
306.79	1.260
307.00	1.288
307.21	1.330
307.42	1.321
307.63	1.284
307.84	1.252
308.05	1.287
308.26	1.289
308.47	1.265
308.68	1.259
308.89	1.260
309.10	1.258
309.31	1.217
309.52	1.207
309.73	1.224
309.95	1.219
310.16	1.189
310.37	1.181
310.58	1.196
310.79	1.192
311.00	1.189
311.21	1.190
311.42	1.191
311.63	1.185
311.84	1.167
312.05	1.163
312.26	1.187
312.47	1.199
312.68	1.177
312.89	1.162
313.10	1.173
313.31	1.145
313.52	1.147
313.73	1.150
313.94	1.153
314.15	1.133
314.36	1.113
314.57	1.103
314.78	1.091
314.99	1.082
315.21	1.071
315.42	1.074
315.63	1.086
315.84	1.064
316.05	1.048
316.26	1.055
316.47	1.076
316.68	1.070
316.89	1.054
317.10	1.072
317.31	1.078
317.52	1.077
317.73	1.056
317.94	1.057
318.15	1.102
318.36	1.101
318.57	1.083
318.78	1.069
318.99	1.104
319.20	1.100
319.41	1.066
319.62	1.067
319.83	1.082
320.04	1.077
320.25	1.061
320.46	1.025
320.67	1.030
320.88	1.028
321.09	1.016
321.30	1.003
321.51	1.019
321.72	1.018
321.93	1.002
322.14	0.995
322.35	1.022
322.56	1.024
322.77	1.013
322.98	1.023
323.19	1.031
323.40	1.037
323.61	1.014
323.82	1.009
324.03	1.014
324.24	1.012
324.45	0.999
324.66	0.979
324.87	0.977
325.08	0.977
325.29	0.957
325.50	0.950
325.71	0.955
325.92	0.963
326.13	0.950
326.34	0.952
326.55	0.959
326.76	0.958
326.97	0.948
327.18	0.942
327.39	0.967
327.60	0.969
327.80	0.970
328.01	0.969
328.22	0.969
328.43	0.972
328.64	0.959
328.85	0.965
329.06	0.968
329.27	0.968
329.48	0.963
329.69	0.944
329.90	0.954
330.11	0.947
330.32	0.940
330.53	0.933
330.74	0.934
330.95	0.933
331.16	0.918
331.37	0.926
331.58	0.926
331.79	0.925
332.00	0.916
332.21	0.909
332.42	0.914
332.63	0.903
332.83	0.899
333.04	0.901
333.25	0.913
333.46	0.910
333.67	0.895
333.88	0.899
334.09	0.909
334.30	0.907
334.51	0.897
334.72	0.892
334.93	0.896
335.14	0.895
335.35	0.886
335.56	0.881
335.77	0.890
335.98	0.889
336.18	0.882
336.39	0.874
336.60	0.879
336.81	0.878
337.02	0.877
337.23	0.882
337.44	0.885
337.65	0.886
337.86	0.875
338.07	0.870
338.28	0.874
338.49	0.873
338.70	0.864
338.91	0.870
339.11	0.877
339.32	0.872
339.53	0.861
339.74	0.859
339.95	0.856
340.16	0.854
340.37	0.846
340.58	0.845
340.79	0.849
341.00	0.849
341.21	0.838
341.41	0.838
341.62	0.840
341.83	0.840
342.04	0.834
342.25	0.847
342.46	0.852
342.67	0.851
342.88	0.844
343.09	0.843
343.30	0.850
343.50	0.852
343.71	0.843
343.92	0.842
344.13	0.847
344.34	0.847
344.55	0.828
344.76	0.826
344.97	0.831
345.18	0.829
345.38	0.826
345.59	0.822
345.80	0.823
346.01	0.821
346.22	0.817
346.43	0.810
346.64	0.818
346.85	0.819
347.06	0.811
347.26	0.812
347.47	0.817
347.68	0.813
347.89	0.809
348.10	0.803
348.31	0.810
348.52	0.809
348.73	0.807
348.93	0.804
349.14	0.806
349.35	0.805
349.56	0.798
349.77	0.793
349.98	0.799
350.19	0.795
350.39	0.791
350.60	0.787
350.81	0.802
351.02	0.801
351.23	0.796
351.44	0.799
351.65	0.803
351.86	0.801
352.06	0.800
352.27	0.799
352.48	0.801
352.69	0.801
352.90	0.794
353.11	0.781
353.31	0.788
353.52	0.784
353.73	0.775
353.94	0.776
354.15	0.782
354.36	0.781
354.57	0.772
354.77	0.775
354.98	0.773
355.19	0.773
355.40	0.772
355.61	0.778
355.82	0.783
356.02	0.783
356.23	0.777
356.44	0.778
356.65	0.782
356.86	0.782
357.07	0.776
357.27	0.780
357.48	0.782
357.69	0.777
357.90	0.761
358.11	0.759
358.32	0.762
358.52	0.764
358.73	0.755
358.94	0.757
359.15	0.762
359.36	0.762
359.56	0.758
359.77	0.755
359.98	0.762
360.19	0.762
360.40	0.757
360.61	0.758
360.81	0.756
361.02	0.756
361.23	0.749
361.44	0.747
361.65	0.748
361.85	0.747
362.06	0.745
362.27	0.747
362.48	0.747
362.69	0.750
362.89	0.744
363.10	0.746
363.31	0.751
363.52	0.753
363.73	0.748
363.93	0.749
364.14	0.752
364.35	0.754
364.56	0.744
364.77	0.746
364.97	0.749
365.18	0.748
365.39	0.742
365.60	0.739
365.81	0.740
366.01	0.741
366.22	0.737
366.43	0.736
366.64	0.738
366.84	0.743
367.05	0.739
367.26	0.738
367.47	0.740
367.68	0.741
367.88	0.737
368.09	0.735
368.30	0.738
368.51	0.737
368.71	0.736
368.92	0.739
369.13	0.738
369.34	0.738
369.55	0.736
369.75	0.736
369.96	0.743
370.17	0.743
370.38	0.740
370.58	0.739
370.79	0.744
371.00	0.742
371.21	0.735
371.41	0.741
371.62	0.744
371.83	0.741
372.04	0.739
372.24	0.732
372.45	0.732
372.66	0.733
372.87	0.730
373.07	0.726
373.28	0.727
373.49	0.729
373.70	0.719
373.90	0.719
374.11	0.729
374.32	0.728
374.53	0.726
374.73	0.728
374.94	0.729
375.15	0.730
375.36	0.727
375.56	0.735
375.77	0.735
375.98	0.736
376.19	0.732
376.39	0.726
376.60	0.730
376.81	0.731
377.02	0.728
377.22	0.727
377.43	0.727
377.64	0.727
377.84	0.719
378.05	0.724
378.26	0.731
378.47	0.731
378.67	0.727
378.88	0.724
379.09	0.725
379.30	0.725
379.50	0.723
379.71	0.725
379.92	0.728
380.12	0.727
380.33	0.718
380.54	0.715
380.75	0.722
380.95	0.722
381.16	0.720
381.37	0.720
381.57	0.721
381.78	0.721
381.99	0.721
382.20	0.720
382.40	0.724
382.61	0.724
382.82	0.720
383.02	0.713
383.23	0.716
383.44	0.716
383.64	0.714
383.85	0.716
384.06	0.719
384.27	0.717
384.47	0.715
384.68	0.715
384.89	0.721
385.09	0.721
385.30	0.721
385.51	0.720
385.71	0.724
385.92	0.724
386.13	0.723
386.33	0.725
386.54	0.726
386.75	0.725
386.95	0.722
387.16	0.717
387.37	0.719
387.58	0.718
387.78	0.716
387.99	0.713
388.20	0.715
388.40	0.712
388.61	0.707
388.82	0.710
389.02	0.713
389.23	0.712
389.44	0.711
389.64	0.711
389.85	0.723
390.06	0.723
390.26	0.724
390.47	0.724
390.68	0.726
390.88	0.724
391.09	0.720
391.30	0.719
391.50	0.720
391.71	0.720
391.92	0.717
392.12	0.709
392.33	0.709
392.53	0.709
392.74	0.709
392.95	0.709
393.15	0.712
393.36	0.713
393.57	0.711
393.77	0.714
393.98	0.716
394.19	0.716
394.39	0.715
394.60	0.717
394.81	0.718
395.01	0.716
395.22	0.714
395.43	0.715
395.63	0.719
395.84	0.720
396.04	0.716
396.25	0.718
396.46	0.720
396.66	0.719
396.87	0.716
397.08	0.713
397.28	0.716
397.49	0.717
397.69	0.713
397.90	0.708
398.11	0.710
398.31	0.710
398.52	0.706
398.73	0.708
398.93	0.707
399.14	0.706
399.34	0.705
399.55	0.706
399.76	0.707
399.96	0.707
400.17	0.706
400.37	0.704
400.58	0.710
400.79	0.712
400.99	0.709
401.20	0.715
401.41	0.717
401.61	0.718
401.82	0.723
402.02	0.723
402.23	0.724
402.44	0.724
402.64	0.724
402.85	0.719
403.05	0.719
403.26	0.717
403.47	0.711
403.67	0.711
403.88	0.711
404.08	0.705
404.29	0.703
404.50	0.702
404.70	0.703
404.91	0.701
405.11	0.698
405.32	0.698
405.52	0.700
405.73	0.698
405.94	0.696
406.14	0.699
406.35	0.702
406.55	0.702
406.76	0.699
406.97	0.701
407.17	0.704
407.38	0.703
407.58	0.701
407.79	0.704
407.99	0.707
408.20	0.708
408.41	0.703
408.61	0.701
408.82	0.702
409.02	0.702
409.23	0.700
409.43	0.699
409.64	0.700
409.84	0.700
410.05	0.696
410.26	0.694
410.46	0.694
410.67	0.695
410.87	0.696
411.08	0.698
411.28	0.699
411.49	0.701
411.69	0.698
411.90	0.700
412.11	0.702
412.31	0.703
412.52	0.701
412.72	0.702
412.93	0.703
413.13	0.701
413.34	0.697
413.54	0.698
413.75	0.700
413.95	0.700
414.16	0.696
414.37	0.698
414.57	0.699
414.78	0.701
414.98	0.699
415.19	0.700
415.39	0.698
415.60	0.700
415.80	0.700
416.01	0.698
416.21	0.700
416.42	0.700
416.62	0.695
416.83	0.695
417.03	0.695
417.24	0.695
417.44	0.693
417.65	0.692
417.86	0.692
418.06	0.690
418.27	0.688
418.47	0.690
418.68	0.691
418.88	0.692
419.09	0.690
419.29	0.690
419.50	0.691
419.70	0.691
419.91	0.689
420.11	0.687
420.32	0.689
420.52	0.688
420.73	0.687
420.93	0.687
421.14	0.689
421.34	0.689
421.55	0.685
421.75	0.685
421.96	0.686
422.16	0.686
422.37	0.685
422.57	0.683
422.78	0.685
422.98	0.682
423.19	0.680
423.39	0.678
423.60	0.681
423.80	0.683
424.01	0.682
424.21	0.684
424.42	0.685
424.62	0.685
424.83	0.683
425.03	0.683
425.23	0.685
425.44	0.686
425.64	0.686
425.85	0.684
426.05	0.685
426.26	0.685
426.46	0.681
426.67	0.680
426.87	0.685
427.08	0.685
427.28	0.684
427.49	0.684
427.69	0.685
427.90	0.684
428.10	0.681
428.31	0.681
428.51	0.682
428.71	0.682
428.92	0.683
429.12	0.680
429.33	0.681
429.53	0.685
429.74	0.690
429.94	0.689
430.15	0.689
430.35	0.690
430.56	0.687
430.76	0.685
430.96	0.686
431.17	0.684
431.37	0.680
431.58	0.679
431.78	0.675
431.99	0.668
432.19	0.670
432.40	0.672
432.60	0.673
432.80	0.676
433.01	0.674
433.21	0.674
433.42	0.676
433.62	0.677
433.83	0.676
434.03	0.678
434.23	0.681
434.44	0.680
434.64	0.677
434.85	0.682
435.05	0.683
435.26	0.683
435.46	0.682
435.66	0.682
435.87	0.682
436.07	0.682
436.28	0.677
436.48	0.675
436.69	0.674
436.89	0.675
437.09	0.668
437.30	0.667
437.50	0.667
437.71	0.679
437.91	0.678
438.11	0.679
438.32	0.684
438.52	0.684
438.73	0.683
438.93	0.681
439.13	0.681
439.34	0.684
439.54	0.682
439.75	0.682
439.95	0.672
440.15	0.676
440.36	0.675
440.56	0.672
440.77	0.673
440.97	0.673
441.17	0.672
441.38	0.673
441.58	0.670
441.79	0.670
441.99	0.669
442.19	0.669
442.40	0.667
442.60	0.667
442.81	0.663
443.01	0.664
443.21	0.665
443.42	0.664
443.62	0.663
443.82	0.662
444.03	0.664
444.23	0.664
444.44	0.663
444.64	0.661
444.84	0.662
445.05	0.663
445.25	0.660
445.45	0.660
445.66	0.663
445.86	0.663
446.06	0.664
446.27	0.664
446.47	0.667
446.68	0.665
446.88	0.664
447.08	0.664
447.29	0.666
447.49	0.666
447.69	0.666
447.90	0.664
448.10	0.668
448.30	0.665
448.51	0.666
448.71	0.664
448.91	0.667
449.12	0.666
449.32	0.667
449.52	0.665
449.73	0.669
449.93	0.668
450.14	0.668
450.34	0.667
450.54	0.669
450.75	0.666
450.95	0.665
451.15	0.664
451.36	0.667
451.56	0.664
451.76	0.663
451.97	0.660
452.17	0.661
452.37	0.659
452.58	0.656
452.78	0.655
452.98	0.658
453.19	0.658
453.39	0.658
453.59	0.657
453.79	0.658
454.00	0.659
454.20	0.657
454.40	0.658
454.61	0.660
454.81	0.660
455.01	0.659
455.22	0.659
455.42	0.661
455.62	0.658
455.83	0.658
456.03	0.660
456.23	0.661
456.44	0.663
456.64	0.661
456.84	0.661
457.04	0.662
457.25	0.661
457.45	0.658
457.65	0.657
457.86	0.658
458.06	0.658
458.26	0.653
458.47	0.652
458.67	0.653
458.87	0.653
459.07	0.651
459.28	0.653
459.48	0.655
459.68	0.655
459.89	0.655
460.09	0.653
460.29	0.654
460.49	0.656
460.70	0.655
460.90	0.654
461.10	0.655
461.31	0.655
461.51	0.652
461.71	0.653
461.91	0.655
462.12	0.655
462.32	0.654
462.52	0.655
462.72	0.658
462.93	0.658
463.13	0.657
463.33	0.658
463.53	0.659
463.74	0.658
463.94	0.654
464.14	0.654
464.35	0.655
464.55	0.656
464.75	0.653
464.95	0.651
465.16	0.653
465.36	0.652
465.56	0.651
465.76	0.650
465.97	0.651
466.17	0.652
466.37	0.649
466.57	0.650
466.78	0.651
466.98	0.651
467.18	0.649
467.38	0.648
467.59	0.650
467.79	0.651
467.99	0.649
468.19	0.651
468.39	0.654
468.60	0.654
468.80	0.652
469.00	0.654
469.20	0.655
469.41	0.655
469.61	0.654
469.81	0.654
470.01	0.654
470.22	0.654
470.42	0.653
470.62	0.650
470.82	0.652
471.02	0.652
471.23	0.649
471.43	0.649
471.63	0.651
471.83	0.650
472.04	0.649
472.24	0.648
472.44	0.653
472.64	0.653
472.84	0.651
473.05	0.651
473.25	0.654
473.45	0.653
473.65	0.651
473.85	0.652
474.06	0.654
474.26	0.653
474.46	0.655
474.66	0.651
474.86	0.652
475.07	0.652
475.27	0.650
475.47	0.647
475.67	0.648
475.87	0.650
476.08	0.646
476.28	0.647
476.48	0.649
476.68	0.647
476.88	0.645
477.09	0.646
477.29	0.648
477.49	0.648
477.69	0.647
477.89	0.647
478.09	0.647
478.30	0.649
478.50	0.646
478.70	0.646
478.90	0.646
479.10	0.650
479.31	0.650
479.51	0.649
479.71	0.650
479.91	0.650
480.11	0.649
480.31	0.649
480.52	0.648
480.72	0.648
480.92	0.647
481.12	0.645
481.32	0.642
481.52	0.640
481.72	0.640
481.93	0.643
482.13	0.644
482.33	0.643
482.53	0.641
482.73	0.643
482.93	0.644
483.14	0.643
483.34	0.643
483.54	0.644
483.74	0.643
483.94	0.643
484.14	0.639
484.34	0.639
484.55	0.639
484.75	0.639
484.95	0.637
485.15	0.637
485.35	0.637
485.55	0.637
485.75	0.634
485.96	0.635
486.16	0.637
486.36	0.636
486.56	0.634
486.76	0.634
486.96	0.635
487.16	0.634
487.36	0.632
487.57	0.632
487.77	0.632
487.97	0.633
488.17	0.631
488.37	0.630
488.57	0.630
488.77	0.630
488.97	0.628
489.18	0.628
489.38	0.631
489.58	0.631
489.78	0.631
489.98	0.630
490.18	0.630
490.38	0.631
490.58	0.629
490.78	0.630
490.98	0.632
491.19	0.633
491.39	0.632
491.59	0.631
491.79	0.633
491.99	0.634
492.19	0.634
492.39	0.638
492.59	0.638
492.79	0.640
492.99	0.639
493.20	0.640
493.40	0.639
493.60	0.640
493.80	0.639
494.00	0.637
494.20	0.638
494.40	0.637
494.60	0.634
494.80	0.639
495.00	0.637
495.20	0.636
495.40	0.635
495.61	0.637
495.81	0.637
496.01	0.640
496.21	0.641
496.41	0.640
496.61	0.640
496.81	0.639
497.01	0.634
497.21	0.634
497.41	0.635
497.61	0.634
497.81	0.632
498.01	0.632
498.21	0.630
498.41	0.628
498.61	0.628
498.82	0.630
499.02	0.632
499.22	0.632
499.42	0.631
499.62	0.632
499.82	0.633
500.02	0.634
500.22	0.633
500.42	0.635
500.62	0.635
500.82	0.636
501.02	0.633
501.22	0.633
501.42	0.633
501.62	0.635
501.82	0.635
502.02	0.635
502.22	0.634
502.42	0.636
502.62	0.634
502.82	0.634
503.02	0.634
503.22	0.634
503.42	0.632
503.63	0.633
503.83	0.631
504.03	0.629
504.23	0.628
504.43	0.629
504.63	0.630
504.83	0.629
505.03	0.628
505.23	0.629
505.43	0.631
505.63	0.632
505.83	0.632
506.03	0.633
506.23	0.635
506.43	0.635
506.63	0.634
506.83	0.633
507.03	0.635
507.23	0.636
507.43	0.633
507.63	0.634
507.83	0.635
508.03	0.635
508.23	0.634
508.43	0.632
508.63	0.635
508.83	0.635
509.03	0.637
509.23	0.635
509.43	0.636
509.63	0.636
509.83	0.634
510.03	0.637
510.23	0.639
510.43	0.639
510.63	0.640
510.83	0.639
511.03	0.640
511.23	0.637
511.43	0.637
511.63	0.639
511.83	0.642
512.03	0.642
512.22	0.638
512.42	0.638
512.62	0.639
512.82	0.638
513.02	0.638
513.22	0.638
513.42	0.640
513.62	0.642
513.82	0.640
514.02	0.639
514.22	0.641
514.42	0.641
514.62	0.641
514.82	0.641
515.02	0.643
515.22	0.647
515.42	0.646
515.62	0.648
515.82	0.647
516.02	0.649
516.22	0.648
516.42	0.649
516.62	0.651
516.82	0.652
517.01	0.650
517.21	0.650
517.41	0.653
517.61	0.653
517.81	0.649
518.01	0.649
518.21	0.649
518.41	0.648
518.61	0.647
518.81	0.648
519.01	0.648
519.21	0.648
519.41	0.647
519.61	0.641
519.81	0.644
520.00	0.644
520.20	0.644
520.40	0.647
520.60	0.647
520.80	0.646
521.00	0.647
521.20	0.648
521.40	0.652
521.60	0.653
521.80	0.652
522.00	0.652
522.20	0.654
522.39	0.653
522.59	0.651
522.79	0.653
522.99	0.656
523.19	0.653
523.39	0.651
523.59	0.650
523.79	0.653
523.99	0.655
524.19	0.655
524.38	0.654
524.58	0.656
524.78	0.656
524.98	0.654
525.18	0.655
525.38	0.657
525.58	0.657
525.78	0.655
525.98	0.653
526.18	0.654
526.37	0.653
526.57	0.655
526.77	0.654
526.97	0.655
527.17	0.655
527.37	0.651
527.57	0.653
527.77	0.655
527.96	0.656
528.16	0.654
528.36	0.654
528.56	0.656
528.76	0.653
528.96	0.652
529.16	0.654
529.36	0.657
529.55	0.657
529.75	0.654
529.95	0.654
530.15	0.654
530.35	0.657
530.55	0.655
530.75	0.656
530.94	0.658
531.14	0.658
531.34	0.656
531.54	0.654
531.74	0.658
531.94	0.661
532.13	0.659
532.33	0.661
532.53	0.659
532.73	0.658
532.93	0.656
533.13	0.657
533.33	0.657
533.52	0.657
533.72	0.661
533.92	0.658
534.12	0.657
534.32	0.658
534.52	0.656
534.71	0.659
534.91	0.662
535.11	0.664
535.31	0.661
535.51	0.664
535.71	0.665
535.90	0.662
536.10	0.663
536.30	0.665
536.50	0.665
536.70	0.665
536.89	0.663
537.09	0.662
537.29	0.664
537.49	0.665
537.69	0.663
537.89	0.664
538.08	0.664
538.28	0.661
538.48	0.661
538.68	0.663
538.88	0.665
539.07	0.665
539.27	0.662
539.47	0.662
539.67	0.662
539.87	0.663
540.06	0.661
540.26	0.662
540.46	0.665
540.66	0.662
540.86	0.660
541.05	0.660
541.25	0.662
541.45	0.662
541.65	0.661
541.84	0.663
542.04	0.663
542.24	0.664
542.44	0.662
542.64	0.663
542.83	0.666
543.03	0.666
543.23	0.665
543.43	0.665
543.62	0.666
543.82	0.666
544.02	0.665
544.22	0.665
544.42	0.668
544.61	0.668
544.81	0.665
545.01	0.664
545.21	0.666
545.40	0.666
545.60	0.665
545.80	0.668
546.00	0.668
546.19	0.667
546.39	0.666
546.59	0.664
546.79	0.665
546.98	0.666
547.18	0.664
547.38	0.665
547.58	0.668
547.77	0.668
547.97	0.664
548.17	0.666
548.37	0.666
548.56	0.667
548.76	0.666
548.96	0.668
549.16	0.671
549.35	0.671
549.55	0.669
549.75	0.668
549.95	0.672
550.14	0.672
550.34	0.670
550.54	0.676
550.73	0.679
550.93	0.680
551.13	0.677
551.33	0.675
551.52	0.676
551.72	0.677
551.92	0.675
552.12	0.676
552.31	0.677
552.51	0.677
552.71	0.672
552.90	0.672
553.10	0.673
553.30	0.673
553.50	0.672
553.69	0.673
553.89	0.674
554.09	0.674
554.28	0.670
554.48	0.672
554.68	0.674
554.87	0.674
555.07	0.671
555.27	0.671
555.47	0.673
555.66	0.674
555.86	0.672
556.06	0.674
556.25	0.675
556.45	0.683
556.65	0.681
556.84	0.684
557.04	0.687
557.24	0.688
557.43	0.688
557.63	0.691
557.83	0.692
558.02	0.693
558.22	0.697
558.42	0.698
558.61	0.690
558.81	0.691
559.01	0.687
559.21	0.687
559.40	0.688
559.60	0.687
559.80	0.684
559.99	0.685
560.19	0.687
560.39	0.681
560.58	0.678
560.78	0.678
560.97	0.682
561.17	0.680
561.37	0.678
561.56	0.678
561.76	0.680
561.96	0.679
562.15	0.677
562.35	0.680
562.55	0.681
562.74	0.681
562.94	0.680
563.14	0.679
563.33	0.680
563.53	0.680
563.73	0.678
563.92	0.680
564.12	0.683
564.31	0.684
564.51	0.682
564.71	0.684
564.90	0.687
565.10	0.688
565.30	0.691
565.49	0.691
565.69	0.693
565.89	0.694
566.08	0.690
566.28	0.691
566.47	0.693
566.67	0.691
566.87	0.688
567.06	0.689
567.26	0.696
567.46	0.691
567.65	0.691
567.85	0.693
568.04	0.696
568.24	0.695
568.44	0.693
568.63	0.691
568.83	0.693
569.02	0.692
569.22	0.687
569.42	0.684
569.61	0.686
569.81	0.685
570.00	0.682
570.20	0.683
570.40	0.684
570.59	0.684
570.79	0.682
570.98	0.680
571.18	0.682
571.38	0.682
571.57	0.678
571.77	0.677
571.96	0.680
572.16	0.678
572.35	0.672
572.55	0.673
572.75	0.671
572.94	0.671
573.14	0.669
573.33	0.670
573.53	0.671
573.73	0.670
573.92	0.668
574.12	0.665
574.31	0.669
574.51	0.670
574.70	0.667
574.90	0.669
575.09	0.671
575.29	0.671
575.49	0.668
575.68	0.668
575.88	0.670
576.07	0.671
576.27	0.669
576.46	0.667
576.66	0.667
576.86	0.666
577.05	0.663
577.25	0.662
577.44	0.664
577.64	0.664
577.83	0.661
578.03	0.663
578.22	0.662
578.42	0.662
578.61	0.659
578.81	0.660
579.00	0.661
579.20	0.661
579.40	0.660
579.59	0.658
579.79	0.659
579.98	0.658
580.18	0.658
580.37	0.658
580.57	0.660
580.76	0.664
580.96	0.662
581.15	0.663
581.35	0.665
581.54	0.665
581.74	0.664
581.93	0.666
582.13	0.667
582.32	0.665
582.52	0.663
582.71	0.663
582.91	0.659
583.10	0.659
583.30	0.658
583.49	0.657
583.69	0.660
583.88	0.662
584.08	0.661
584.27	0.662
584.47	0.665
584.66	0.666
584.86	0.664
585.05	0.667
585.25	0.669
585.44	0.669
585.64	0.667
585.83	0.664
586.03	0.664
586.22	0.663
586.42	0.659
586.61	0.661
586.81	0.663
587.00	0.663
587.20	0.661
587.39	0.661
587.59	0.663
587.78	0.664
587.98	0.664
588.17	0.665
588.37	0.668
588.56	0.670
588.76	0.665
588.95	0.665
589.15	0.669
589.34	0.672
589.54	0.670
589.73	0.671
589.92	0.675
590.12	0.675
590.31	0.673
590.51	0.678
590.70	0.679
590.90	0.679
591.09	0.677
591.29	0.675
591.48	0.676
591.68	0.676
591.87	0.675
592.06	0.674
592.26	0.677
592.45	0.676
592.65	0.670
592.84	0.670
593.04	0.673
593.23	0.675
593.43	0.673
593.62	0.672
593.81	0.672
594.01	0.671
594.20	0.668
594.40	0.668
594.59	0.669
594.79	0.670
594.98	0.668
595.17	0.668
595.37	0.669
595.56	0.671
595.76	0.670
595.95	0.672
596.14	0.676
596.34	0.676
596.53	0.674
596.73	0.676
596.92	0.677
597.12	0.680
597.31	0.680
597.50	0.679
597.70	0.681
597.89	0.681
598.09	0.677
598.28	0.679
598.47	0.681
598.67	0.680
598.86	0.676
599.06	0.678
599.25	0.678
599.44	0.676
599.64	0.673
599.83	0.670
600.03	0.674
600.22	0.675
600.41	0.674
600.61	0.672
600.80	0.675
601.00	0.675
601.19	0.671
601.38	0.669
601.58	0.672
601.77	0.673
601.96	0.675
602.16	0.675
602.35	0.684
602.55	0.681
602.74	0.681
602.93	0.684
603.13	0.689
603.32	0.690
603.51	0.690
603.71	0.693
603.90	0.695
604.09	0.696
604.29	0.693
604.48	0.687
604.68	0.688
604.87	0.686
605.06	0.682
605.26	0.679
605.45	0.680
605.64	0.679
605.84	0.674
606.03	0.673
606.22	0.672
606.42	0.672
606.61	0.668
606.80	0.669
607.00	0.671
607.19	0.671
607.38	0.670
607.58	0.671
607.77	0.674
607.96	0.674
608.16	0.673
608.35	0.677
608.54	0.680
608.74	0.683
608.93	0.688
609.12	0.690
609.32	0.693
609.51	0.696
609.70	0.695
609.90	0.697
610.09	0.701
610.28	0.707
610.48	0.700
610.67	0.701
610.86	0.702
611.06	0.696
611.25	0.694
611.44	0.695
611.64	0.694
611.83	0.698
612.02	0.694
612.21	0.693
612.41	0.691
612.60	0.690
612.79	0.687
612.99	0.686
613.18	0.688
613.37	0.686
613.57	0.684
613.76	0.685
613.95	0.682
614.14	0.682
614.34	0.679
614.53	0.679
614.72	0.683
614.92	0.683
615.11	0.680
615.30	0.677
615.49	0.678
615.69	0.681
615.88	0.677
616.07	0.678
616.26	0.680
616.46	0.682
616.65	0.679
616.84	0.677
617.04	0.679
617.23	0.682
617.42	0.683
617.61	0.687
617.81	0.688
618.00	0.690
618.19	0.688
618.38	0.692
618.58	0.695
618.77	0.697
618.96	0.696
619.15	0.698
619.35	0.700
619.54	0.701
619.73	0.695
619.92	0.697
620.12	0.702
620.31	0.703
620.50	0.697
620.69	0.697
620.89	0.700
621.08	0.700
621.27	0.700
621.46	0.698
621.66	0.701
621.85	0.703
622.04	0.698
622.23	0.698
622.43	0.699
622.62	0.699
622.81	0.698
623.00	0.697
623.19	0.701
623.39	0.700
623.58	0.697
623.77	0.696
623.96	0.698
624.16	0.699
624.35	0.694
624.54	0.697
624.73	0.702
624.92	0.699
625.12	0.697
625.31	0.697
625.50	0.700
625.69	0.701
625.88	0.697
626.08	0.696
626.27	0.697
626.46	0.697
626.65	0.694
626.84	0.694
627.04	0.699
627.23	0.698
627.42	0.694
627.61	0.696
627.80	0.699
628.00	0.700
628.19	0.699
628.38	0.703
628.57	0.706
628.76	0.706
628.96	0.703
629.15	0.704
629.34	0.708
629.53	0.709
629.72	0.704
629.91	0.705
630.11	0.710
630.30	0.710
630.49	0.712
630.68	0.712
630.87	0.715
631.06	0.717
631.26	0.712
631.45	0.713
631.64	0.721
631.83	0.722
632.02	0.719
632.21	0.717
632.41	0.725
632.60	0.720
632.79	0.718
632.98	0.719
633.17	0.719
633.36	0.721
633.55	0.717
633.75	0.713
633.94	0.715
634.13	0.715
634.32	0.712
634.51	0.706
634.70	0.708
634.89	0.708
635.09	0.704
635.28	0.705
635.47	0.707
635.66	0.709
635.85	0.705
636.04	0.707
636.23	0.711
636.43	0.712
636.62	0.711
636.81	0.710
637.00	0.712
637.19	0.715
637.38	0.712
637.57	0.711
637.76	0.712
637.95	0.713
638.15	0.709
638.34	0.706
638.53	0.709
638.72	0.710
638.91	0.708
639.10	0.707
639.29	0.707
639.48	0.708
639.67	0.708
639.87	0.707
640.06	0.711
640.25	0.711
640.44	0.712
640.63	0.713
640.82	0.715
641.01	0.714
641.20	0.713
641.39	0.715
641.58	0.717
641.78	0.716
641.97	0.712
642.16	0.726
642.35	0.727
642.54	0.726
642.73	0.720
642.92	0.719
643.11	0.723
643.30	0.723
643.49	0.718
643.68	0.720
643.87	0.722
644.06	0.722
644.25	0.702
644.45	0.704
644.64	0.705
644.83	0.707
645.02	0.703
645.21	0.702
645.40	0.704
645.59	0.705
645.78	0.699
645.97	0.701
646.16	0.704
646.35	0.703
646.54	0.701
646.73	0.703
646.92	0.704
647.11	0.704
647.30	0.701
647.49	0.702
647.68	0.702
647.88	0.701
648.07	0.693
648.26	0.695
648.45	0.697
648.64	0.694
648.83	0.690
649.02	0.694
649.21	0.703
649.40	0.701
649.59	0.695
649.78	0.697
649.97	0.711
650.16	0.712
650.35	0.705
650.54	0.708
650.73	0.716
650.92	0.714
651.11	0.706
651.30	0.705
651.49	0.710
651.68	0.711
651.87	0.708
652.06	0.696
652.25	0.699
652.44	0.703
652.63	0.699
652.82	0.698
653.01	0.699
653.20	0.698
653.39	0.687
653.58	0.684
653.77	0.684
653.96	0.680
654.15	0.672
654.34	0.670
654.53	0.665
654.72	0.659
654.91	0.650
655.10	0.645
655.29	0.643
655.48	0.641
655.67	0.636
655.86	0.633
656.05	0.631
656.24	0.631
656.43	0.626
656.62	0.625
656.81	0.626
657.00	0.623
657.19	0.621
657.38	0.620
657.57	0.620
657.76	0.621
657.95	0.619
658.14	0.622
658.33	0.625
658.51	0.630
658.70	0.631
658.89	0.632
659.08	0.641
659.27	0.649
659.46	0.649
659.65	0.656
659.84	0.660
660.03	0.663
660.22	0.663
660.41	0.667
660.60	0.667
660.79	0.668
660.98	0.674
661.17	0.673
661.36	0.672
661.55	0.673
661.74	0.671
661.92	0.674
662.11	0.677
662.30	0.676
662.49	0.669
662.68	0.668
662.87	0.672
663.06	0.665
663.25	0.665
663.44	0.666
663.63	0.666
663.82	0.665
664.01	0.659
664.20	0.658
664.38	0.659
664.57	0.659
664.76	0.659
664.95	0.659
665.14	0.664
665.33	0.660
665.52	0.666
665.71	0.671
665.90	0.670
666.09	0.672
666.28	0.669
666.46	0.669
666.65	0.671
666.84	0.668
667.03	0.662
667.22	0.660
667.41	0.663
667.60	0.652
667.79	0.645
667.98	0.646
668.16	0.648
668.35	0.647
668.54	0.643
668.73	0.643
668.92	0.644
669.11	0.644
669.30	0.638
669.49	0.635
669.67	0.638
669.86	0.639
670.05	0.637
670.24	0.635
670.43	0.633
670.62	0.632
670.81	0.628
671.00	0.629
671.18	0.628
671.37	0.627
671.56	0.625
671.75	0.624
671.94	0.622
672.13	0.619
672.32	0.615
672.50	0.614
672.69	0.614
672.88	0.615
673.07	0.610
673.26	0.613
673.45	0.614
673.63	0.613
673.82	0.609
674.01	0.611
674.20	0.611
674.39	0.611
674.58	0.610
674.76	0.609
674.95	0.608
675.14	0.607
675.33	0.603
675.52	0.602
675.71	0.602
675.89	0.601
676.08	0.597
676.27	0.597
676.46	0.597
676.65	0.596
676.84	0.596
677.02	0.597
677.21	0.599
677.40	0.599
677.59	0.596
677.78	0.597
677.96	0.600
678.15	0.600
678.34	0.597
678.53	0.598
678.72	0.598
678.90	0.595
679.09	0.590
679.28	0.587
679.47	0.587
679.66	0.587
679.84	0.583
680.03	0.580
680.22	0.579
680.41	0.581
680.60	0.577
680.78	0.576
680.97	0.578
681.16	0.579
681.35	0.578
681.53	0.577
681.72	0.578
681.91	0.580
682.10	0.579
682.29	0.582
682.47	0.579
682.66	0.579
682.85	0.578
683.04	0.576
683.22	0.575
683.41	0.577
683.60	0.576
683.79	0.577
683.97	0.576
684.16	0.574
684.35	0.570
684.54	0.572
684.72	0.572
684.91	0.573
685.10	0.571
685.29	0.572
685.47	0.569
685.66	0.568
685.85	0.565
686.04	0.564
686.22	0.567
686.41	0.570
686.60	0.567
686.79	0.570
686.97	0.571
687.16	0.572
687.35	0.569
687.54	0.573
687.72	0.576
687.91	0.576
688.10	0.577
688.29	0.577
688.47	0.575
688.66	0.575
688.85	0.572
689.03	0.569
689.22	0.574
689.41	0.575
689.60	0.570
689.78	0.567
689.97	0.569
690.16	0.566
690.34	0.562
690.53	0.561
690.72	0.562
690.91	0.559
691.09	0.557
691.28	0.551
691.47	0.549
691.65	0.548
691.84	0.545
692.03	0.544
692.21	0.542
692.40	0.542
692.59	0.540
692.77	0.538
692.96	0.540
693.15	0.541
693.34	0.539
693.52	0.539
693.71	0.540
693.90	0.541
694.08	0.542
694.27	0.543
694.46	0.552
694.64	0.552
694.83	0.552
695.02	0.550
695.20	0.550
695.39	0.549
695.58	0.549
695.76	0.550
695.95	0.549
696.14	0.548
696.32	0.546
696.51	0.537
696.70	0.537
696.88	0.538
697.07	0.537
697.26	0.539
697.44	0.540
697.63	0.539
697.81	0.536
698.00	0.536
698.19	0.536
698.37	0.536
698.56	0.535
698.75	0.535
698.93	0.535
699.12	0.534
699.31	0.532
699.49	0.531
699.68	0.532
699.87	0.535
700.05	0.535
700.24	0.534
700.42	0.536
700.61	0.535
700.80	0.534
700.98	0.534
701.17	0.535
701.36	0.535
701.54	0.535
701.73	0.536
701.91	0.534
702.10	0.533
702.29	0.531
702.47	0.530
702.66	0.531
702.84	0.532
703.03	0.529
703.22	0.531
703.40	0.530
703.59	0.531
703.77	0.529
703.96	0.529
704.15	0.530
704.33	0.530
704.52	0.528
704.70	0.527
704.89	0.528
705.08	0.527
705.26	0.522
705.45	0.522
705.63	0.522
705.82	0.520
706.00	0.518
706.19	0.518
706.38	0.518
706.56	0.518
706.75	0.517
706.93	0.516
707.12	0.518
707.30	0.518
707.49	0.516
707.68	0.514
707.86	0.514
708.05	0.514
708.23	0.511
708.42	0.511
708.60	0.514
708.79	0.514
708.98	0.512
709.16	0.511
709.35	0.513
709.53	0.517
709.72	0.516
709.90	0.518
710.09	0.520
710.27	0.522
710.46	0.525
710.64	0.524
710.83	0.525
711.02	0.527
711.20	0.526
711.39	0.524
711.57	0.522
711.76	0.523
711.94	0.521
712.13	0.522
712.31	0.522
712.50	0.518
712.68	0.515
712.87	0.516
713.05	0.516
713.24	0.516
713.42	0.515
713.61	0.516
713.79	0.517
713.98	0.518
714.16	0.518
714.35	0.517
714.54	0.518
714.72	0.519
714.91	0.516
715.09	0.523
715.28	0.527
715.46	0.526
715.65	0.524
715.83	0.523
716.02	0.525
716.20	0.522
716.39	0.521
716.57	0.522
716.76	0.525
716.94	0.525
717.12	0.517
717.31	0.518
717.49	0.521
717.68	0.522
717.86	0.521
718.05	0.523
718.23	0.525
718.42	0.527
718.60	0.528
718.79	0.536
718.97	0.539
719.16	0.539
719.34	0.536
719.53	0.536
719.71	0.537
719.90	0.538
720.08	0.535
720.27	0.535
720.45	0.535
720.63	0.534
720.82	0.528
721.00	0.530
721.19	0.533
721.37	0.532
721.56	0.532
721.74	0.535
721.93	0.544
722.11	0.550
722.30	0.550
722.48	0.554
722.66	0.556
722.85	0.555
723.03	0.556
723.22	0.554
723.40	0.558
723.59	0.557
723.77	0.560
723.95	0.554
724.14	0.555
724.32	0.557
724.51	0.556
724.69	0.557
724.88	0.557
725.06	0.555
725.24	0.556
725.43	0.558
725.61	0.561
725.80	0.555
725.98	0.552
726.16	0.549
726.35	0.554
726.53	0.554
726.72	0.553
726.90	0.563
727.09	0.564
727.27	0.570
727.45	0.565
727.64	0.575
727.82	0.585
728.01	0.589
728.19	0.587
728.37	0.593
728.56	0.596
728.74	0.603
728.92	0.591
729.11	0.594
729.29	0.591
729.48	0.595
729.66	0.583
729.84	0.583
730.03	0.586
730.21	0.588
730.40	0.578
730.58	0.579
730.76	0.577
730.95	0.579
731.13	0.578
731.31	0.592
731.50	0.602
731.68	0.604
731.86	0.600
732.05	0.614
732.23	0.618
732.42	0.621
732.60	0.626
732.78	0.632
732.97	0.651
733.15	0.658
733.33	0.645
733.52	0.652
733.70	0.664
733.88	0.672
734.07	0.658
734.25	0.683
734.43	0.689
734.62	0.692
734.80	0.687
734.98	0.676
735.17	0.683
735.35	0.691
735.53	0.677
735.72	0.681
735.90	0.704
736.08	0.723
736.27	0.699
736.45	0.711
736.63	0.720
736.82	0.729
737.00	0.729
737.18	0.737
737.37	0.763
737.55	0.787
737.73	0.779
737.92	0.780
738.10	0.775
738.28	0.797
738.46	0.784
738.65	0.799
738.83	0.821
739.01	0.874
739.20	0.867
739.38	0.849
739.56	0.840
739.75	0.845
739.93	0.809
740.11	0.835
740.29	0.830
740.48	0.834
740.66	0.809
740.84	0.803
741.03	0.770
741.21	0.780
741.39	0.765
741.57	0.779
741.76	0.796
741.94	0.805
742.12	0.770
742.31	0.779
742.49	0.800
742.67	0.827
742.85	0.839
743.04	0.842
743.22	0.853
743.40	0.903
743.58	0.881
743.77	0.895
743.95	0.927
744.13	0.973
744.31	0.953
744.50	0.948
744.68	0.945
744.86	0.924
745.04	0.931
745.23	0.991
745.41	0.974
745.59	0.979
745.77	0.941
745.96	0.933
746.14	0.944
746.32	0.941
746.50	0.929
746.69	0.915
746.87	0.922
747.05	0.908
747.23	0.836
747.42	0.823
747.60	0.850
747.78	0.857
747.96	0.882
748.14	0.842
748.33	0.867
748.51	0.860
748.69	0.851
748.87	0.875
749.06	0.876
749.24	0.874
749.42	0.860
749.60	0.838
749.78	0.848
749.97	0.807
750.15	0.794
750.33	0.801
750.51	0.824
750.69	0.830
750.88	0.835
751.06	0.847
751.24	0.872
751.42	0.868
751.60	0.868
751.79	0.940
751.97	0.984
752.15	0.988
752.33	0.951
752.51	1.012
752.69	1.030
752.88	1.002
753.06	1.041
753.24	1.021
753.42	1.049
753.60	1.204
753.78	1.056
753.97	1.080
754.15	1.101
754.33	1.135
754.51	1.018
754.69	0.997
754.87	1.020
755.06	0.953
755.24	0.953
755.42	0.961
755.60	0.866
755.78	0.875
755.96	0.822
756.15	0.821
756.33	0.823
756.51	0.837
756.69	0.828
756.87	0.799
757.05	0.818
757.23	0.803
757.42	0.771
757.60	0.771
757.78	0.764
757.96	0.763
758.14	0.748
758.32	0.735
758.50	0.751
758.69	0.749
758.87	0.739
759.05	0.742
759.23	0.754
759.41	0.759
759.59	0.752
759.77	0.769
759.95	0.796
760.13	0.843
760.32	0.842
760.50	0.834
760.68	0.858
760.86	0.861
761.04	0.834
761.22	0.834
761.40	0.877
761.58	0.876
761.76	0.852
761.95	0.835
762.13	0.793
762.31	0.790
762.49	0.761
762.67	0.779
762.85	0.790
763.03	0.786
763.21	0.767
763.39	0.750
763.57	0.754
763.75	0.750
763.94	0.736
764.12	0.736
764.30	0.759
764.48	0.765
764.66	0.728
764.84	0.726
765.02	0.761
765.20	0.768
765.38	0.749
765.56	0.752
765.74	0.792
765.92	0.790
766.10	0.796
766.28	0.791
766.46	0.817
766.65	0.818
766.83	0.806
767.01	0.789
767.19	0.797
767.37	0.796
767.55	0.782
767.73	0.759
767.91	0.762
768.09	0.752
768.27	0.741
768.45	0.732
768.63	0.738
768.81	0.740
768.99	0.717
769.17	0.737
769.35	0.753
769.53	0.753
769.71	0.738
769.89	0.746
770.07	0.755
770.25	0.737
770.43	0.713
770.61	0.738
770.79	0.744
770.97	0.754
771.15	0.726
771.33	0.729
771.51	0.733
771.69	0.741
771.87	0.751
772.05	0.756
772.24	0.765
772.42	0.777
772.60	0.752
772.78	0.809
772.96	0.835
773.14	0.829
773.32	0.804
773.49	0.811
773.67	0.810
773.85	0.786
774.03	0.769
774.21	0.798
774.39	0.806
774.57	0.828
774.75	0.761
774.93	0.760
775.11	0.781
775.29	0.790
775.47	0.789
775.65	0.798
775.83	0.817
776.01	0.844
776.19	0.797
776.37	0.799
776.55	0.798
776.73	0.795
776.91	0.786
777.09	0.773
777.27	0.771
777.45	0.760
777.63	0.738
777.81	0.732
777.99	0.718
778.17	0.720
778.35	0.702
778.53	0.689
778.71	0.694
778.89	0.683
779.07	0.673
779.24	0.678
779.42	0.681
779.60	0.699
779.78	0.696
779.96	0.701
780.14	0.709
780.32	0.727
780.50	0.713
780.68	0.714
780.86	0.708
781.04	0.723
781.22	0.727
781.40	0.736
781.58	0.729
781.75	0.722
781.93	0.705
782.11	0.705
782.29	0.691
782.47	0.690
782.65	0.677
782.83	0.702
783.01	0.695
783.19	0.687
783.37	0.676
783.55	0.678
783.72	0.695
783.90	0.704
784.08	0.697
784.26	0.710
784.44	0.729
784.62	0.733
784.80	0.704
784.98	0.710
785.16	0.717
785.33	0.728
785.51	0.713
785.69	0.700
785.87	0.701
786.05	0.711
786.23	0.705
786.41	0.700
786.59	0.707
786.77	0.705
786.94	0.695
787.12	0.700
787.30	0.702
787.48	0.703
787.66	0.692
787.84	0.693
788.02	0.685
788.19	0.683
788.37	0.671
788.55	0.672
788.73	0.673
788.91	0.667
789.09	0.649
789.27	0.640
789.44	0.649
789.62	0.654
789.80	0.660
789.98	0.683
790.16	0.672
790.34	0.668
790.51	0.656
790.69	0.676
790.87	0.682
791.05	0.680
791.23	0.673
791.41	0.673
791.58	0.682
791.76	0.664
791.94	0.636
792.12	0.644
792.30	0.649
792.48	0.646
792.65	0.637
792.83	0.644
793.01	0.652
793.19	0.650
793.37	0.634
793.54	0.631
793.72	0.641
793.90	0.640
794.08	0.628
794.26	0.629
794.43	0.638
794.61	0.623
794.79	0.610
794.97	0.608
795.15	0.614
795.32	0.618
795.50	0.605
795.68	0.600
795.86	0.603
796.04	0.605
796.21	0.599
796.39	0.598
796.57	0.612
796.75	0.621
796.92	0.623
797.10	0.629
797.28	0.632
797.46	0.636
797.64	0.638
797.81	0.646
797.99	0.650
798.17	0.654
798.35	0.647
798.52	0.651
798.70	0.645
798.88	0.654
799.06	0.651
799.23	0.654
799.41	0.662
799.59	0.655
799.77	0.643
799.94	0.653
800.12	0.662
800.30	0.680
800.48	0.677
800.65	0.676
800.83	0.666
801.01	0.659
801.19	0.658
801.36	0.653
801.54	0.656
801.72	0.666
801.90	0.650
802.07	0.645
802.25	0.631
802.43	0.616
802.60	0.612
802.78	0.619
802.96	0.624
803.14	0.619
803.31	0.617
803.49	0.617
803.67	0.614
803.84	0.620
804.02	0.614
804.20	0.617
804.38	0.623
804.55	0.623
804.73	0.609
804.91	0.609
805.08	0.620
805.26	0.617
805.44	0.680
805.61	0.684
805.79	0.683
805.97	0.679
806.15	0.673
806.32	0.666
806.50	0.673
806.68	0.674
806.85	0.664
807.03	0.655
807.21	0.673
807.38	0.609
807.56	0.598
807.74	0.607
807.91	0.614
808.09	0.614
808.27	0.632
808.44	0.658
808.62	0.668
808.80	0.670
808.97	0.665
809.15	0.659
809.33	0.674
809.50	0.680
809.68	0.666
809.86	0.676
810.03	0.709
810.21	0.690
810.39	0.671
810.56	0.675
810.74	0.698
810.91	0.769
811.09	0.757
811.27	0.777
811.44	0.783
811.62	0.784
811.80	0.763
811.97	0.734
812.15	0.734
812.33	0.731
812.50	0.720
812.68	0.708
812.85	0.655
813.03	0.655
813.21	0.626
813.38	0.620
813.56	0.622
813.74	0.633
813.91	0.637
814.09	0.666
814.26	0.661
814.44	0.663
814.62	0.654
814.79	0.656
814.97	0.662
815.14	0.665
815.32	0.668
815.50	0.686
815.67	0.688
815.85	0.683
816.02	0.672
816.20	0.677
816.38	0.689
816.55	0.694
816.73	0.694
816.90	0.703
817.08	0.733
817.26	0.741
817.43	0.722
817.61	0.745
817.78	0.760
817.96	0.739
818.13	0.727
818.31	0.730
818.49	0.743
818.66	0.733
818.84	0.719
819.01	0.699
819.19	0.703
819.36	0.703
819.54	0.675
819.71	0.713
819.89	0.726
820.07	0.739
820.24	0.732
820.42	0.732
820.59	0.751
820.77	0.774
820.94	0.762
821.12	0.780
821.29	0.796
821.47	0.797
821.64	0.739
821.82	0.754
822.00	0.752
822.17	0.752
822.35	0.744
822.52	0.745
822.70	0.737
822.87	0.746
823.05	0.725
823.22	0.736
823.40	0.764
823.57	0.784
823.75	0.766
823.92	0.792
824.10	0.808
824.27	0.845
824.45	0.833
824.62	0.889
824.80	0.909
824.97	0.922
825.15	0.910
825.32	0.922
825.50	0.923
825.67	0.927
825.85	0.904
826.02	0.916
826.20	0.940
826.37	1.063
826.55	0.981
826.72	1.155
826.90	1.230
827.07	1.275
827.25	1.206
827.42	1.360
827.60	1.522
827.77	1.673
827.95	1.648
828.12	1.773
828.30	1.390
828.47	1.500
828.65	1.163
828.82	1.197
829.00	1.257
829.17	1.335
829.34	1.301
829.52	1.320
829.69	-0.000
829.87	-0.000
830.04	-0.000
830.22	-0.000
830.39	-0.000
830.57	-0.000
830.74	-0.000
830.92	-0.000
831.09	-0.000
831.26	-0.000
831.44	-0.000
831.61	-0.000
831.79	-0.000
831.96	-0.000
832.14	-0.000
832.31	-0.000
832.49	-0.000
832.66	-0.000
832.83	-0.000
833.01	-0.000
833.18	-0.000
833.36	-0.000
833.53	-0.000
833.70	-0.000
833.88	-0.000
834.05	-0.000
834.23	-0.000
834.40	-0.000
834.58	-0.000
834.75	-0.000
834.92	-0.000
835.10	-0.000
835.27	-0.000
835.45	-0.000
835.62	-0.000
835.79	-0.000
835.97	-0.000
836.14	-0.000
836.32	-0.000
836.49	-0.000
836.66	-0.000
836.84	-0.000
837.01	-0.000
837.18	-0.000
837.36	-0.000
837.53	-0.000
837.71	-0.000
837.88	-0.000
838.05	-0.000
838.23	-0.000
838.40	-0.000
838.58	-0.000
838.75	-0.000
838.92	-0.000
839.10	-0.000
839.27	-0.000
839.44	-0.000
839.62	-0.000
839.79	-0.000
839.96	-0.000
840.14	-0.000
840.31	-0.000
840.48	-0.000
840.66	-0.000
840.83	-0.000
841.01	-0.000
841.18	-0.000
841.35	-0.000
841.53	-0.000
841.70	-0.000
841.87	-0.000
842.05	-0.000
842.22	-0.000
842.39	-0.000
842.57	-0.000
842.74	-0.000
842.91	-0.000
843.09	-0.000
843.26	-0.000
843.43	-0.000
843.60	-0.000
843.78	-0.000
843.95	-0.000
844.12	-0.000
844.30	-0.000
844.47	-0.000
844.64	-0.000
844.82	-0.000
844.99	-0.000
845.16	-0.000
845.34	-0.000
845.51	-0.000
845.68	-0.000
845.85	-0.000
846.03	-0.000
846.20	-0.000
846.37	-0.000
846.55	-0.000
846.72	-0.000
846.89	-0.000
847.06	-0.000
847.24	-0.000
847.41	-0.000
847.58	-0.000
847.76	-0.000
847.93	-0.000
848.10	-0.000
848.27	-0.000
848.45	-0.000
848.62	-0.000
848.79	-0.000
848.97	-0.000
849.14	-0.000
849.31	-0.000
849.48	-0.000
849.66	-0.000
849.83	-0.000
850.00	-0.000
850.17	-0.000
850.35	-0.000
850.52	-0.000
850.69	-0.000
850.86	-0.000
851.04	-0.000
851.21	-0.000
851.38	-0.000
851.55	-0.000
851.72	-0.000
851.90	-0.000
852.07	-0.000
852.24	-0.000
852.41	-0.000
852.59	-0.000
852.76	-0.000
852.93	-0.000
853.10	-0.000
853.28	-0.000
853.45	-0.000
853.62	-0.000
853.79	-0.000
853.96	-0.000
854.14	-0.000
854.31	-0.000
854.48	-0.000
854.65	-0.000
854.82	-0.000
855.00	-0.000
855.17	-0.000
855.34	-0.000
855.51	-0.000
855.68	-0.000
855.86	-0.000
856.03	-0.000
856.20	-0.000
856.37	-0.000
856.54	-0.000
856.72	-0.000
856.89	-0.000
857.06	-0.000
857.23	-0.000
857.40	-0.000
857.57	-0.000
857.75	-0.000
857.92	-0.000
858.09	-0.000
858.26	-0.000
858.43	-0.000
858.60	-0.000
858.78	-0.000
858.95	-0.000
859.12	-0.000
859.29	-0.000
859.46	-0.000
859.63	-0.000
859.81	-0.000
859.98	-0.000
860.15	-0.000
860.32	-0.000
860.49	-0.000
860.66	-0.000
860.83	-0.000
861.01	-0.000
861.18	-0.000
861.35	-0.000
861.52	-0.000
861.69	-0.000
861.86	-0.000
862.03	-0.000
862.21	-0.000
862.38	-0.000
862.55	-0.000
862.72	-0.000
862.89	-0.000
863.06	-0.000
863.23	-0.000
863.40	-0.000
863.58	-0.000
863.75	-0.000
863.92	-0.000
864.09	-0.000
864.26	-0.000
864.43	-0.000
864.60	-0.000
864.77	-0.000
864.94	-0.000
865.11	-0.000
865.29	-0.000
865.46	-0.000
865.63	-0.000
865.80	-0.000
865.97	-0.000
866.14	-0.000
866.31	-0.000
866.48	-0.000
866.65	-0.000
866.82	-0.000
866.99	-0.000
867.16	-0.000
867.34	-0.000
867.51	-0.000
867.68	-0.000
867.85	-0.000
868.02	-0.000
868.19	-0.000
868.36	-0.000
868.53	-0.000
868.70	-0.000
868.87	-0.000
869.04	-0.000
869.21	-0.000
869.38	-0.000
869.55	-0.000
869.72	-0.000
869.89	-0.000
870.06	-0.000
870.24	-0.000
870.41	-0.000
870.58	-0.000
870.75	-0.000
870.92	-0.000
871.09	-0.000
871.26	-0.000
871.43	-0.000
871.60	-0.000
871.77	-0.000
871.94	-0.000
872.11	-0.000
872.28	-0.000
872.45	-0.000
872.62	-0.000
872.79	-0.000
872.96	-0.000
873.13	-0.000
873.30	-0.000
873.47	-0.000
873.64	-0.000
873.81	-0.000
873.98	-0.000
874.15	-0.000
874.32	-0.000
874.49	-0.000
874.66	-0.000
874.83	-0.000
875.00	-0.000
875.17	-0.000
875.34	-0.000
875.51	-0.000
875.68	-0.000
875.85	-0.000
876.02	-0.000
876.19	-0.000
876.36	-0.000
876.53	-0.000
876.70	-0.000
876.87	-0.000
877.04	-0.000
877.21	-0.000
877.38	-0.000
877.55	-0.000
877.72	-0.000
877.89	-0.000
878.06	-0.000
878.23	-0.000
878.39	-0.000
878.56	-0.000
878.73	-0.000
878.90	-0.000
879.07	-0.000
879.24	-0.000
879.41	-0.000
879.58	-0.000
879.75	-0.000
879.92	-0.000
880.09	-0.000
880.26	-0.000
880.43	-0.000
880.60	-0.000
880.77	-0.000
880.94	-0.000
881.11	-0.000
881.27	-0.000
881.44	-0.000
881.61	-0.000
881.78	-0.000
881.95	-0.000
882.12	-0.000
882.29	-0.000
882.46	-0.000
882.63	-0.000
882.80	-0.000
882.97	-0.000
883.14	-0.000
883.30	-0.000
883.47	-0.000
883.64	-0.000
883.81	-0.000
883.98	-0.000
884.15	-0.000
884.32	-0.000
884.49	-0.000
884.66	-0.000
884.82	-0.000
884.99	-0.000
885.16	-0.000
885.33	-0.000
885.50	-0.000
885.67	-0.000
885.84	-0.000
886.01	-0.000
886.17	-0.000
886.34	-0.000
886.51	-0.000
886.68	-0.000
886.85	-0.000
887.02	-0.000
887.19	-0.000
887.36	-0.000
887.52	-0.000
887.69	-0.000
887.86	-0.000
888.03	-0.000
888.20	-0.000
888.37	-0.000
888.54	-0.000
888.70	-0.000
888.87	-0.000
889.04	-0.000
889.21	-0.000
889.38	-0.000
889.55	-0.000
889.71	-0.000
889.88	-0.000
890.05	-0.000
890.22	-0.000
890.39	-0.000
>>>>>End Processed Spectral Data<<<<<
