SpectraSuite Data File
++++++++++++++++++++++++++++++++++++
Date: Fri Jun 19 14:22:03 CEST 2015
User: introlabs
Dark Spectrum Present: Yes
Reference Spectrum Present: Yes
Number of Sampled Component Spectra: 1
Spectrometers: USB4H08886
Integration Time (usec): 745692 (USB4H08886)
Spectra Averaged: 5 (USB4H08886)
Boxcar Smoothing: 5 (USB4H08886)
Correct for Electrical Dark: Yes (USB4H08886)
Strobe/Lamp Enabled: No (USB4H08886)
Correct for Detector Non-linearity: Yes (USB4H08886)
Correct for Stray Light: Yes (USB4H08886)
Number of Pixels in Processed Spectrum: 3648
>>>>>Begin Processed Spectral Data<<<<<
178.14	-0.000
178.36	-0.000
178.57	-0.000
178.79	-0.000
179.01	-0.000
179.22	-0.000
179.44	-0.000
179.65	-0.000
179.87	-0.000
180.08	-0.000
180.30	-0.000
180.52	-0.000
180.73	-0.000
180.95	-0.000
181.16	-0.000
181.38	-0.000
181.59	-0.000
181.81	-0.000
182.03	-0.000
182.24	-0.000
182.46	-0.000
182.67	-0.000
182.89	-0.000
183.10	-0.000
183.32	-0.000
183.54	-0.000
183.75	-0.000
183.97	-0.000
184.18	-0.000
184.40	-0.000
184.61	-0.000
184.83	-0.000
185.04	-0.000
185.26	-0.000
185.48	-0.000
185.69	-0.000
185.91	-0.000
186.12	-0.000
186.34	-0.000
186.55	-0.000
186.77	-0.000
186.98	-0.000
187.20	-0.000
187.42	-0.000
187.63	-0.000
187.85	-0.000
188.06	-0.000
188.28	-0.000
188.49	-0.000
188.71	-0.000
188.92	-0.000
189.14	-0.000
189.36	-0.000
189.57	-0.000
189.79	-0.000
190.00	-0.000
190.22	-0.000
190.43	-0.000
190.65	-0.000
190.86	-0.000
191.08	-0.000
191.29	-0.000
191.51	-0.000
191.72	-0.000
191.94	-0.000
192.16	-0.000
192.37	-0.000
192.59	-0.000
192.80	-0.000
193.02	-0.000
193.23	-0.000
193.45	-0.000
193.66	-0.000
193.88	-0.000
194.09	-0.000
194.31	-0.000
194.52	-0.000
194.74	-0.000
194.95	-0.000
195.17	-0.000
195.38	-0.000
195.60	-0.000
195.81	-0.000
196.03	-0.000
196.25	-0.000
196.46	-0.000
196.68	-0.000
196.89	-0.000
197.11	-0.000
197.32	-0.000
197.54	-0.000
197.75	-0.000
197.97	-0.000
198.18	-0.000
198.40	-0.000
198.61	-0.000
198.83	-0.000
199.04	-0.000
199.26	-0.000
199.47	-0.000
199.69	-0.000
199.90	-0.000
200.12	-0.000
200.33	-0.000
200.55	-0.000
200.76	-0.000
200.98	-0.000
201.19	-0.000
201.41	-0.000
201.62	-0.000
201.84	-0.000
202.05	-0.000
202.27	-0.000
202.48	-0.000
202.70	-0.000
202.91	-0.000
203.13	-0.000
203.34	-0.000
203.56	-0.000
203.77	-0.000
203.99	-0.000
204.20	-0.000
204.42	-0.000
204.63	-0.000
204.85	-0.000
205.06	-0.000
205.28	-0.000
205.49	-0.000
205.71	-0.000
205.92	-0.000
206.14	-0.000
206.35	-0.000
206.56	-0.000
206.78	-0.000
206.99	-0.000
207.21	-0.000
207.42	-0.000
207.64	-0.000
207.85	-0.000
208.07	-0.000
208.28	-0.000
208.50	-0.000
208.71	-0.000
208.93	-0.000
209.14	-0.000
209.36	-0.000
209.57	-0.000
209.79	-0.000
210.00	-0.000
210.22	-0.000
210.43	-0.000
210.64	-0.000
210.86	-0.000
211.07	-0.000
211.29	-0.000
211.50	-0.000
211.72	-0.000
211.93	-0.000
212.15	-0.000
212.36	-0.000
212.58	-0.000
212.79	-0.000
213.01	-0.000
213.22	-0.000
213.43	-0.000
213.65	-0.000
213.86	-0.000
214.08	-0.000
214.29	-0.000
214.51	-0.000
214.72	-0.000
214.94	-0.000
215.15	-0.000
215.36	-0.000
215.58	-0.000
215.79	-0.000
216.01	-0.000
216.22	-0.000
216.44	-0.000
216.65	-0.000
216.87	-0.000
217.08	-0.000
217.29	-0.000
217.51	-0.000
217.72	-0.000
217.94	-0.000
218.15	-0.000
218.37	-0.000
218.58	-0.000
218.80	-0.000
219.01	-0.000
219.22	-0.000
219.44	-0.000
219.65	-0.000
219.87	-0.000
220.08	-0.000
220.30	-0.000
220.51	-0.000
220.72	-0.000
220.94	-0.000
221.15	-0.000
221.37	-0.000
221.58	-0.000
221.79	-0.000
222.01	-0.000
222.22	-0.000
222.44	-0.000
222.65	-0.000
222.87	-0.000
223.08	-0.000
223.29	-0.000
223.51	-0.000
223.72	-0.000
223.94	-0.000
224.15	-0.000
224.36	-0.000
224.58	-0.000
224.79	-0.000
225.01	-0.000
225.22	-0.000
225.44	-0.000
225.65	-0.000
225.86	-0.000
226.08	-0.000
226.29	-0.000
226.51	-0.000
226.72	-0.000
226.93	-0.000
227.15	-0.000
227.36	-0.000
227.58	-0.000
227.79	-0.000
228.00	-0.000
228.22	-0.000
228.43	-0.000
228.65	-0.000
228.86	-0.000
229.07	-0.000
229.29	-0.000
229.50	-0.000
229.72	-0.000
229.93	-0.000
230.14	-0.000
230.36	-0.000
230.57	-0.000
230.78	-0.000
231.00	-0.000
231.21	-0.000
231.43	-0.000
231.64	-0.000
231.85	-0.000
232.07	-0.000
232.28	-0.000
232.50	-0.000
232.71	-0.000
232.92	-0.000
233.14	-0.000
233.35	-0.000
233.56	-0.000
233.78	-0.000
233.99	-0.000
234.21	-0.000
234.42	-0.000
234.63	-0.000
234.85	-0.000
235.06	-0.000
235.27	-0.000
235.49	-0.000
235.70	-0.000
235.91	-0.000
236.13	-0.000
236.34	-0.000
236.56	-0.000
236.77	-0.000
236.98	-0.000
237.20	-0.000
237.41	-0.000
237.62	-0.000
237.84	-0.000
238.05	-0.000
238.26	-0.000
238.48	-0.000
238.69	-0.000
238.91	-0.000
239.12	-0.000
239.33	-0.000
239.55	-0.000
239.76	-0.000
239.97	-0.000
240.19	-0.000
240.40	-0.000
240.61	-0.000
240.83	-0.000
241.04	-0.000
241.25	-0.000
241.47	-0.000
241.68	-0.000
241.89	-0.000
242.11	-0.000
242.32	-0.000
242.53	-0.000
242.75	-0.000
242.96	-0.000
243.17	-0.000
243.39	-0.000
243.60	-0.000
243.81	-0.000
244.03	-0.000
244.24	-0.000
244.45	-0.000
244.67	-0.000
244.88	-0.000
245.09	-0.000
245.31	-0.000
245.52	-0.000
245.73	-0.000
245.95	-0.000
246.16	-0.000
246.37	-0.000
246.59	-0.000
246.80	-0.000
247.01	-0.000
247.23	-0.000
247.44	-0.000
247.65	-0.000
247.87	-0.000
248.08	-0.000
248.29	-0.000
248.51	-0.000
248.72	-0.000
248.93	-0.000
249.15	-0.000
249.36	-0.000
249.57	-0.000
249.78	-0.000
250.00	-0.000
250.21	-0.000
250.42	-0.000
250.64	-0.000
250.85	-0.000
251.06	-0.000
251.28	-0.000
251.49	-0.000
251.70	-0.000
251.92	-0.000
252.13	-0.000
252.34	-0.000
252.55	-0.000
252.77	-0.000
252.98	-0.000
253.19	-0.000
253.41	-0.000
253.62	-0.000
253.83	-0.000
254.05	-0.000
254.26	-0.000
254.47	-0.000
254.68	-0.000
254.90	-0.000
255.11	-0.000
255.32	-0.000
255.54	-0.000
255.75	-0.000
255.96	-0.000
256.17	-0.000
256.39	-0.000
256.60	-0.000
256.81	-0.000
257.03	-0.000
257.24	-0.000
257.45	-0.000
257.66	-0.000
257.88	-0.000
258.09	-0.000
258.30	-0.000
258.51	-0.000
258.73	-0.000
258.94	-0.000
259.15	-0.000
259.37	-0.000
259.58	-0.000
259.79	-0.000
260.00	-0.000
260.22	-0.000
260.43	-0.000
260.64	-0.000
260.85	-0.000
261.07	-0.000
261.28	-0.000
261.49	-0.000
261.71	-0.000
261.92	-0.000
262.13	-0.000
262.34	-0.000
262.56	-0.000
262.77	-0.000
262.98	-0.000
263.19	-0.000
263.41	-0.000
263.62	-0.000
263.83	-0.000
264.04	-0.000
264.26	-0.000
264.47	-0.000
264.68	-0.000
264.89	-0.000
265.11	-0.000
265.32	-0.000
265.53	-0.000
265.74	-0.000
265.96	-0.000
266.17	-0.000
266.38	-0.000
266.59	-0.000
266.81	-0.000
267.02	-0.000
267.23	-0.000
267.44	-0.000
267.65	-0.000
267.87	-0.000
268.08	-0.000
268.29	-0.000
268.50	-0.000
268.72	-0.000
268.93	-0.000
269.14	-0.000
269.35	-0.000
269.57	-0.000
269.78	-0.000
269.99	-0.000
270.20	-0.000
270.41	-0.000
270.63	-0.000
270.84	-0.000
271.05	-0.000
271.26	-0.000
271.48	-0.000
271.69	-0.000
271.90	-0.000
272.11	-0.000
272.32	-0.000
272.54	-0.000
272.75	-0.000
272.96	-0.000
273.17	-0.000
273.39	-0.000
273.60	-0.000
273.81	-0.000
274.02	-0.000
274.23	-0.000
274.45	-0.000
274.66	-0.000
274.87	-0.000
275.08	-0.000
275.29	-0.000
275.51	-0.000
275.72	-0.000
275.93	-0.000
276.14	-0.000
276.35	-0.000
276.57	-0.000
276.78	-0.000
276.99	-0.000
277.20	-0.000
277.41	-0.000
277.63	-0.000
277.84	-0.000
278.05	-0.000
278.26	-0.000
278.47	-0.000
278.69	-0.000
278.90	-0.000
279.11	-0.000
279.32	-0.000
279.53	-0.000
279.74	-0.000
279.96	-0.000
280.17	-0.000
280.38	-0.000
280.59	-0.000
280.80	-0.000
281.02	-0.000
281.23	-0.000
281.44	-0.000
281.65	-0.000
281.86	-0.000
282.07	-0.000
282.29	-0.000
282.50	-0.000
282.71	-0.000
282.92	-0.000
283.13	-0.000
283.35	-0.000
283.56	-0.000
283.77	-0.000
283.98	-0.000
284.19	-0.000
284.40	-0.000
284.62	-0.000
284.83	-0.000
285.04	-0.000
285.25	-0.000
285.46	-0.000
285.67	-0.000
285.88	-0.000
286.10	-0.000
286.31	-0.000
286.52	-0.000
286.73	-0.000
286.94	-0.000
287.15	-0.000
287.37	-0.000
287.58	-0.000
287.79	-0.000
288.00	-0.000
288.21	-0.000
288.42	-0.000
288.63	-0.000
288.85	-0.000
289.06	-0.000
289.27	-0.000
289.48	-0.000
289.69	-0.000
289.90	-0.000
290.11	-0.000
290.33	-0.000
290.54	-0.000
290.75	-0.000
290.96	-0.000
291.17	-0.000
291.38	-0.000
291.59	-0.000
291.81	-0.000
292.02	-0.000
292.23	-0.000
292.44	-0.000
292.65	-0.000
292.86	-0.000
293.07	-0.000
293.28	2.885
293.50	-0.000
293.71	-0.000
293.92	-0.000
294.13	-0.000
294.34	-0.000
294.55	-0.000
294.76	-0.000
294.97	-0.000
295.19	-0.000
295.40	-0.000
295.61	-0.000
295.82	-0.000
296.03	2.745
296.24	5.370
296.45	1.960
296.66	1.673
296.87	1.692
297.09	1.759
297.30	1.926
297.51	1.620
297.72	1.596
297.93	1.673
298.14	1.652
298.35	1.620
298.56	1.586
298.77	1.700
298.99	1.686
299.20	1.653
299.41	1.633
299.62	1.593
299.83	1.586
300.04	1.523
300.25	1.515
300.46	1.556
300.67	1.526
300.88	1.477
301.10	1.482
301.31	1.546
301.52	1.498
301.73	1.441
301.94	1.444
302.15	1.461
302.36	1.421
302.57	1.360
302.78	1.363
302.99	1.403
303.20	1.428
303.41	1.343
303.63	1.326
303.84	1.331
304.05	1.331
304.26	1.277
304.47	1.281
304.68	1.287
304.89	1.282
305.10	1.244
305.31	1.234
305.52	1.273
305.73	1.266
305.94	1.228
306.15	1.222
306.37	1.243
306.58	1.250
306.79	1.218
307.00	1.236
307.21	1.270
307.42	1.265
307.63	1.230
307.84	1.200
308.05	1.236
308.26	1.240
308.47	1.216
308.68	1.212
308.89	1.213
309.10	1.212
309.31	1.176
309.52	1.171
309.73	1.187
309.95	1.182
310.16	1.155
310.37	1.143
310.58	1.160
310.79	1.159
311.00	1.156
311.21	1.158
311.42	1.161
311.63	1.157
311.84	1.136
312.05	1.131
312.26	1.154
312.47	1.166
312.68	1.141
312.89	1.125
313.10	1.131
313.31	1.103
313.52	1.104
313.73	1.103
313.94	1.104
314.15	1.088
314.36	1.069
314.57	1.061
314.78	1.049
314.99	1.044
315.21	1.032
315.42	1.038
315.63	1.051
315.84	1.030
316.05	1.018
316.26	1.027
316.47	1.047
316.68	1.044
316.89	1.026
317.10	1.044
317.31	1.051
317.52	1.051
317.73	1.030
317.94	1.029
318.15	1.070
318.36	1.071
318.57	1.052
318.78	1.040
318.99	1.072
319.20	1.070
319.41	1.038
319.62	1.041
319.83	1.055
320.04	1.050
320.25	1.037
320.46	1.005
320.67	1.008
320.88	1.006
321.09	0.991
321.30	0.979
321.51	0.994
321.72	0.993
321.93	0.975
322.14	0.969
322.35	0.994
322.56	0.995
322.77	0.983
322.98	0.994
323.19	1.001
323.40	1.009
323.61	0.988
323.82	0.983
324.03	0.988
324.24	0.987
324.45	0.973
324.66	0.956
324.87	0.954
325.08	0.955
325.29	0.936
325.50	0.930
325.71	0.934
325.92	0.942
326.13	0.928
326.34	0.929
326.55	0.937
326.76	0.937
326.97	0.926
327.18	0.920
327.39	0.943
327.60	0.944
327.80	0.944
328.01	0.941
328.22	0.942
328.43	0.946
328.64	0.934
328.85	0.937
329.06	0.939
329.27	0.939
329.48	0.934
329.69	0.915
329.90	0.925
330.11	0.919
330.32	0.913
330.53	0.905
330.74	0.906
330.95	0.904
331.16	0.890
331.37	0.898
331.58	0.899
331.79	0.899
332.00	0.891
332.21	0.884
332.42	0.888
332.63	0.879
332.83	0.875
333.04	0.878
333.25	0.890
333.46	0.888
333.67	0.874
333.88	0.876
334.09	0.884
334.30	0.881
334.51	0.873
334.72	0.869
334.93	0.871
335.14	0.870
335.35	0.862
335.56	0.857
335.77	0.866
335.98	0.865
336.18	0.859
336.39	0.853
336.60	0.857
336.81	0.856
337.02	0.855
337.23	0.861
337.44	0.865
337.65	0.866
337.86	0.856
338.07	0.852
338.28	0.856
338.49	0.854
338.70	0.847
338.91	0.854
339.11	0.861
339.32	0.857
339.53	0.845
339.74	0.841
339.95	0.839
340.16	0.837
340.37	0.829
340.58	0.826
340.79	0.830
341.00	0.831
341.21	0.820
341.41	0.821
341.62	0.823
341.83	0.824
342.04	0.820
342.25	0.829
342.46	0.834
342.67	0.833
342.88	0.827
343.09	0.826
343.30	0.833
343.50	0.836
343.71	0.826
343.92	0.825
344.13	0.829
344.34	0.828
344.55	0.814
344.76	0.812
344.97	0.816
345.18	0.815
345.38	0.812
345.59	0.807
345.80	0.806
346.01	0.803
346.22	0.798
346.43	0.792
346.64	0.800
346.85	0.799
347.06	0.792
347.26	0.793
347.47	0.797
347.68	0.792
347.89	0.789
348.10	0.784
348.31	0.791
348.52	0.791
348.73	0.789
348.93	0.786
349.14	0.789
349.35	0.789
349.56	0.783
349.77	0.778
349.98	0.784
350.19	0.782
350.39	0.777
350.60	0.774
350.81	0.789
351.02	0.788
351.23	0.783
351.44	0.785
351.65	0.789
351.86	0.786
352.06	0.785
352.27	0.785
352.48	0.786
352.69	0.786
352.90	0.780
353.11	0.767
353.31	0.775
353.52	0.770
353.73	0.763
353.94	0.763
354.15	0.769
354.36	0.769
354.57	0.761
354.77	0.763
354.98	0.763
355.19	0.761
355.40	0.761
355.61	0.766
355.82	0.771
356.02	0.770
356.23	0.764
356.44	0.766
356.65	0.769
356.86	0.770
357.07	0.763
357.27	0.767
357.48	0.770
357.69	0.765
357.90	0.750
358.11	0.747
358.32	0.750
358.52	0.752
358.73	0.743
358.94	0.745
359.15	0.750
359.36	0.750
359.56	0.745
359.77	0.743
359.98	0.749
360.19	0.748
360.40	0.745
360.61	0.746
360.81	0.747
361.02	0.746
361.23	0.739
361.44	0.737
361.65	0.739
361.85	0.738
362.06	0.736
362.27	0.738
362.48	0.739
362.69	0.742
362.89	0.735
363.10	0.736
363.31	0.741
363.52	0.744
363.73	0.739
363.93	0.739
364.14	0.742
364.35	0.743
364.56	0.733
364.77	0.735
364.97	0.737
365.18	0.738
365.39	0.732
365.60	0.729
365.81	0.729
366.01	0.729
366.22	0.726
366.43	0.725
366.64	0.727
366.84	0.732
367.05	0.728
367.26	0.727
367.47	0.730
367.68	0.730
367.88	0.727
368.09	0.725
368.30	0.727
368.51	0.727
368.71	0.726
368.92	0.730
369.13	0.728
369.34	0.727
369.55	0.727
369.75	0.726
369.96	0.732
370.17	0.733
370.38	0.729
370.58	0.728
370.79	0.734
371.00	0.733
371.21	0.724
371.41	0.730
371.62	0.734
371.83	0.730
372.04	0.728
372.24	0.722
372.45	0.723
372.66	0.724
372.87	0.720
373.07	0.717
373.28	0.718
373.49	0.722
373.70	0.712
373.90	0.711
374.11	0.720
374.32	0.719
374.53	0.718
374.73	0.718
374.94	0.720
375.15	0.721
375.36	0.718
375.56	0.727
375.77	0.727
375.98	0.728
376.19	0.725
376.39	0.719
376.60	0.723
376.81	0.724
377.02	0.721
377.22	0.721
377.43	0.720
377.64	0.720
377.84	0.710
378.05	0.714
378.26	0.721
378.47	0.721
378.67	0.717
378.88	0.715
379.09	0.716
379.30	0.717
379.50	0.714
379.71	0.717
379.92	0.719
380.12	0.719
380.33	0.711
380.54	0.707
380.75	0.713
380.95	0.713
381.16	0.710
381.37	0.710
381.57	0.713
381.78	0.713
381.99	0.713
382.20	0.713
382.40	0.717
382.61	0.717
382.82	0.714
383.02	0.708
383.23	0.711
383.44	0.711
383.64	0.709
383.85	0.711
384.06	0.714
384.27	0.712
384.47	0.710
384.68	0.709
384.89	0.714
385.09	0.714
385.30	0.713
385.51	0.712
385.71	0.716
385.92	0.716
386.13	0.715
386.33	0.717
386.54	0.717
386.75	0.716
386.95	0.712
387.16	0.707
387.37	0.709
387.58	0.709
387.78	0.707
387.99	0.705
388.20	0.706
388.40	0.703
388.61	0.699
388.82	0.703
389.02	0.706
389.23	0.707
389.44	0.705
389.64	0.706
389.85	0.717
390.06	0.717
390.26	0.718
390.47	0.718
390.68	0.720
390.88	0.718
391.09	0.713
391.30	0.712
391.50	0.712
391.71	0.712
391.92	0.709
392.12	0.701
392.33	0.702
392.53	0.701
392.74	0.701
392.95	0.700
393.15	0.703
393.36	0.705
393.57	0.703
393.77	0.705
393.98	0.708
394.19	0.707
394.39	0.707
394.60	0.709
394.81	0.711
395.01	0.709
395.22	0.707
395.43	0.708
395.63	0.713
395.84	0.714
396.04	0.710
396.25	0.712
396.46	0.715
396.66	0.713
396.87	0.711
397.08	0.708
397.28	0.710
397.49	0.711
397.69	0.708
397.90	0.703
398.11	0.705
398.31	0.705
398.52	0.701
398.73	0.702
398.93	0.701
399.14	0.699
399.34	0.699
399.55	0.700
399.76	0.700
399.96	0.702
400.17	0.700
400.37	0.699
400.58	0.705
400.79	0.707
400.99	0.704
401.20	0.710
401.41	0.713
401.61	0.714
401.82	0.719
402.02	0.719
402.23	0.720
402.44	0.719
402.64	0.719
402.85	0.714
403.05	0.712
403.26	0.711
403.47	0.704
403.67	0.703
403.88	0.704
404.08	0.699
404.29	0.696
404.50	0.696
404.70	0.696
404.91	0.695
405.11	0.692
405.32	0.693
405.52	0.694
405.73	0.694
405.94	0.692
406.14	0.694
406.35	0.696
406.55	0.696
406.76	0.694
406.97	0.695
407.17	0.699
407.38	0.698
407.58	0.696
407.79	0.699
407.99	0.701
408.20	0.701
408.41	0.697
408.61	0.694
408.82	0.696
409.02	0.696
409.23	0.693
409.43	0.692
409.64	0.693
409.84	0.693
410.05	0.690
410.26	0.689
410.46	0.688
410.67	0.688
410.87	0.690
411.08	0.692
411.28	0.693
411.49	0.694
411.69	0.691
411.90	0.692
412.11	0.693
412.31	0.694
412.52	0.693
412.72	0.694
412.93	0.695
413.13	0.694
413.34	0.690
413.54	0.692
413.75	0.694
413.95	0.694
414.16	0.691
414.37	0.694
414.57	0.695
414.78	0.697
414.98	0.694
415.19	0.696
415.39	0.693
415.60	0.696
415.80	0.694
416.01	0.693
416.21	0.695
416.42	0.694
416.62	0.689
416.83	0.689
417.03	0.689
417.24	0.689
417.44	0.686
417.65	0.686
417.86	0.686
418.06	0.685
418.27	0.683
418.47	0.685
418.68	0.686
418.88	0.687
419.09	0.685
419.29	0.685
419.50	0.686
419.70	0.685
419.91	0.684
420.11	0.681
420.32	0.684
420.52	0.683
420.73	0.682
420.93	0.683
421.14	0.685
421.34	0.684
421.55	0.680
421.75	0.680
421.96	0.681
422.16	0.681
422.37	0.680
422.57	0.677
422.78	0.678
422.98	0.675
423.19	0.673
423.39	0.672
423.60	0.676
423.80	0.677
424.01	0.675
424.21	0.678
424.42	0.679
424.62	0.679
424.83	0.678
425.03	0.678
425.23	0.680
425.44	0.680
425.64	0.680
425.85	0.679
426.05	0.680
426.26	0.680
426.46	0.677
426.67	0.676
426.87	0.681
427.08	0.681
427.28	0.679
427.49	0.680
427.69	0.680
427.90	0.680
428.10	0.677
428.31	0.677
428.51	0.678
428.71	0.677
428.92	0.678
429.12	0.676
429.33	0.677
429.53	0.682
429.74	0.685
429.94	0.686
430.15	0.685
430.35	0.685
430.56	0.682
430.76	0.682
430.96	0.682
431.17	0.680
431.37	0.677
431.58	0.674
431.78	0.671
431.99	0.664
432.19	0.666
432.40	0.668
432.60	0.669
432.80	0.671
433.01	0.669
433.21	0.669
433.42	0.670
433.62	0.671
433.83	0.671
434.03	0.673
434.23	0.676
434.44	0.675
434.64	0.673
434.85	0.678
435.05	0.679
435.26	0.679
435.46	0.678
435.66	0.678
435.87	0.678
436.07	0.678
436.28	0.673
436.48	0.670
436.69	0.670
436.89	0.670
437.09	0.664
437.30	0.663
437.50	0.664
437.71	0.675
437.91	0.674
438.11	0.675
438.32	0.679
438.52	0.679
438.73	0.679
438.93	0.677
439.13	0.677
439.34	0.681
439.54	0.678
439.75	0.678
439.95	0.668
440.15	0.672
440.36	0.671
440.56	0.669
440.77	0.670
440.97	0.669
441.17	0.668
441.38	0.669
441.58	0.666
441.79	0.666
441.99	0.665
442.19	0.664
442.40	0.662
442.60	0.661
442.81	0.659
443.01	0.660
443.21	0.661
443.42	0.660
443.62	0.658
443.82	0.658
444.03	0.660
444.23	0.659
444.44	0.660
444.64	0.659
444.84	0.660
445.05	0.659
445.25	0.656
445.45	0.656
445.66	0.659
445.86	0.658
446.06	0.659
446.27	0.659
446.47	0.662
446.68	0.660
446.88	0.659
447.08	0.659
447.29	0.661
447.49	0.661
447.69	0.660
447.90	0.658
448.10	0.662
448.30	0.660
448.51	0.662
448.71	0.659
448.91	0.661
449.12	0.660
449.32	0.662
449.52	0.661
449.73	0.665
449.93	0.664
450.14	0.665
450.34	0.664
450.54	0.666
450.75	0.663
450.95	0.662
451.15	0.661
451.36	0.664
451.56	0.660
451.76	0.659
451.97	0.656
452.17	0.656
452.37	0.655
452.58	0.651
452.78	0.651
452.98	0.654
453.19	0.653
453.39	0.654
453.59	0.653
453.79	0.654
454.00	0.654
454.20	0.653
454.40	0.653
454.61	0.655
454.81	0.656
455.01	0.654
455.22	0.654
455.42	0.656
455.62	0.654
455.83	0.654
456.03	0.657
456.23	0.658
456.44	0.660
456.64	0.659
456.84	0.659
457.04	0.659
457.25	0.659
457.45	0.656
457.65	0.655
457.86	0.657
458.06	0.655
458.26	0.650
458.47	0.650
458.67	0.651
458.87	0.652
459.07	0.649
459.28	0.651
459.48	0.653
459.68	0.653
459.89	0.652
460.09	0.650
460.29	0.651
460.49	0.652
460.70	0.651
460.90	0.651
461.10	0.651
461.31	0.651
461.51	0.648
461.71	0.650
461.91	0.651
462.12	0.652
462.32	0.651
462.52	0.651
462.72	0.654
462.93	0.655
463.13	0.653
463.33	0.654
463.53	0.656
463.74	0.656
463.94	0.651
464.14	0.651
464.35	0.652
464.55	0.653
464.75	0.651
464.95	0.649
465.16	0.650
465.36	0.649
465.56	0.648
465.76	0.647
465.97	0.648
466.17	0.649
466.37	0.647
466.57	0.648
466.78	0.648
466.98	0.648
467.18	0.646
467.38	0.644
467.59	0.646
467.79	0.647
467.99	0.646
468.19	0.647
468.39	0.650
468.60	0.650
468.80	0.648
469.00	0.650
469.20	0.651
469.41	0.651
469.61	0.650
469.81	0.651
470.01	0.650
470.22	0.650
470.42	0.648
470.62	0.646
470.82	0.648
471.02	0.646
471.23	0.645
471.43	0.646
471.63	0.649
471.83	0.648
472.04	0.646
472.24	0.645
472.44	0.650
472.64	0.650
472.84	0.648
473.05	0.648
473.25	0.651
473.45	0.650
473.65	0.648
473.85	0.648
474.06	0.650
474.26	0.650
474.46	0.651
474.66	0.647
474.86	0.648
475.07	0.649
475.27	0.647
475.47	0.645
475.67	0.645
475.87	0.647
476.08	0.644
476.28	0.645
476.48	0.647
476.68	0.645
476.88	0.643
477.09	0.644
477.29	0.646
477.49	0.646
477.69	0.645
477.89	0.645
478.09	0.645
478.30	0.647
478.50	0.644
478.70	0.644
478.90	0.644
479.10	0.647
479.31	0.647
479.51	0.645
479.71	0.646
479.91	0.646
480.11	0.645
480.31	0.645
480.52	0.644
480.72	0.644
480.92	0.642
481.12	0.641
481.32	0.639
481.52	0.637
481.72	0.637
481.93	0.640
482.13	0.642
482.33	0.641
482.53	0.639
482.73	0.640
482.93	0.641
483.14	0.641
483.34	0.640
483.54	0.641
483.74	0.640
483.94	0.639
484.14	0.634
484.34	0.634
484.55	0.635
484.75	0.635
484.95	0.633
485.15	0.633
485.35	0.633
485.55	0.632
485.75	0.630
485.96	0.630
486.16	0.632
486.36	0.632
486.56	0.630
486.76	0.630
486.96	0.630
487.16	0.630
487.36	0.628
487.57	0.628
487.77	0.629
487.97	0.629
488.17	0.627
488.37	0.627
488.57	0.628
488.77	0.628
488.97	0.627
489.18	0.626
489.38	0.628
489.58	0.629
489.78	0.628
489.98	0.627
490.18	0.628
490.38	0.629
490.58	0.627
490.78	0.628
490.98	0.629
491.19	0.629
491.39	0.629
491.59	0.628
491.79	0.631
491.99	0.631
492.19	0.630
492.39	0.633
492.59	0.633
492.79	0.635
492.99	0.635
493.20	0.635
493.40	0.636
493.60	0.637
493.80	0.635
494.00	0.633
494.20	0.634
494.40	0.634
494.60	0.631
494.80	0.636
495.00	0.635
495.20	0.633
495.40	0.632
495.61	0.634
495.81	0.634
496.01	0.637
496.21	0.638
496.41	0.637
496.61	0.638
496.81	0.637
497.01	0.632
497.21	0.632
497.41	0.633
497.61	0.632
497.81	0.629
498.01	0.630
498.21	0.628
498.41	0.626
498.61	0.626
498.82	0.627
499.02	0.629
499.22	0.630
499.42	0.629
499.62	0.631
499.82	0.631
500.02	0.633
500.22	0.631
500.42	0.633
500.62	0.634
500.82	0.634
501.02	0.632
501.22	0.633
501.42	0.633
501.62	0.635
501.82	0.634
502.02	0.634
502.22	0.633
502.42	0.635
502.62	0.632
502.82	0.632
503.02	0.633
503.22	0.633
503.42	0.630
503.63	0.630
503.83	0.628
504.03	0.627
504.23	0.626
504.43	0.627
504.63	0.628
504.83	0.628
505.03	0.627
505.23	0.628
505.43	0.630
505.63	0.630
505.83	0.630
506.03	0.632
506.23	0.634
506.43	0.634
506.63	0.633
506.83	0.631
507.03	0.633
507.23	0.633
507.43	0.631
507.63	0.631
507.83	0.632
508.03	0.632
508.23	0.630
508.43	0.629
508.63	0.631
508.83	0.632
509.03	0.633
509.23	0.632
509.43	0.633
509.63	0.633
509.83	0.632
510.03	0.634
510.23	0.636
510.43	0.637
510.63	0.637
510.83	0.637
511.03	0.639
511.23	0.637
511.43	0.636
511.63	0.638
511.83	0.641
512.03	0.640
512.22	0.637
512.42	0.637
512.62	0.638
512.82	0.638
513.02	0.636
513.22	0.636
513.42	0.638
513.62	0.641
513.82	0.639
514.02	0.638
514.22	0.639
514.42	0.639
514.62	0.639
514.82	0.640
515.02	0.642
515.22	0.645
515.42	0.644
515.62	0.646
515.82	0.645
516.02	0.646
516.22	0.646
516.42	0.647
516.62	0.649
516.82	0.650
517.01	0.648
517.21	0.647
517.41	0.650
517.61	0.651
517.81	0.647
518.01	0.646
518.21	0.646
518.41	0.645
518.61	0.644
518.81	0.645
519.01	0.645
519.21	0.645
519.41	0.644
519.61	0.640
519.81	0.643
520.00	0.643
520.20	0.643
520.40	0.647
520.60	0.647
520.80	0.646
521.00	0.646
521.20	0.647
521.40	0.652
521.60	0.653
521.80	0.651
522.00	0.651
522.20	0.653
522.39	0.653
522.59	0.649
522.79	0.651
522.99	0.654
523.19	0.652
523.39	0.650
523.59	0.648
523.79	0.651
523.99	0.653
524.19	0.652
524.38	0.650
524.58	0.652
524.78	0.652
524.98	0.650
525.18	0.652
525.38	0.653
525.58	0.654
525.78	0.651
525.98	0.649
526.18	0.650
526.37	0.649
526.57	0.651
526.77	0.650
526.97	0.650
527.17	0.650
527.37	0.647
527.57	0.649
527.77	0.651
527.96	0.651
528.16	0.650
528.36	0.651
528.56	0.653
528.76	0.651
528.96	0.650
529.16	0.652
529.36	0.655
529.55	0.655
529.75	0.651
529.95	0.651
530.15	0.653
530.35	0.656
530.55	0.653
530.75	0.654
530.94	0.656
531.14	0.656
531.34	0.654
531.54	0.652
531.74	0.655
531.94	0.658
532.13	0.656
532.33	0.658
532.53	0.657
532.73	0.656
532.93	0.654
533.13	0.655
533.33	0.656
533.52	0.657
533.72	0.660
533.92	0.658
534.12	0.657
534.32	0.657
534.52	0.655
534.71	0.656
534.91	0.659
535.11	0.661
535.31	0.659
535.51	0.661
535.71	0.662
535.90	0.660
536.10	0.661
536.30	0.663
536.50	0.664
536.70	0.663
536.89	0.661
537.09	0.661
537.29	0.662
537.49	0.663
537.69	0.661
537.89	0.662
538.08	0.662
538.28	0.660
538.48	0.660
538.68	0.662
538.88	0.664
539.07	0.664
539.27	0.662
539.47	0.661
539.67	0.662
539.87	0.662
540.06	0.659
540.26	0.660
540.46	0.663
540.66	0.660
540.86	0.657
541.05	0.657
541.25	0.659
541.45	0.659
541.65	0.658
541.84	0.659
542.04	0.660
542.24	0.661
542.44	0.660
542.64	0.661
542.83	0.664
543.03	0.665
543.23	0.663
543.43	0.663
543.62	0.665
543.82	0.664
544.02	0.663
544.22	0.664
544.42	0.667
544.61	0.668
544.81	0.664
545.01	0.663
545.21	0.665
545.40	0.665
545.60	0.662
545.80	0.666
546.00	0.667
546.19	0.666
546.39	0.665
546.59	0.662
546.79	0.664
546.98	0.665
547.18	0.664
547.38	0.665
547.58	0.668
547.77	0.668
547.97	0.664
548.17	0.665
548.37	0.665
548.56	0.665
548.76	0.665
548.96	0.666
549.16	0.668
549.35	0.668
549.55	0.666
549.75	0.666
549.95	0.670
550.14	0.670
550.34	0.669
550.54	0.675
550.73	0.678
550.93	0.679
551.13	0.675
551.33	0.674
551.52	0.675
551.72	0.676
551.92	0.674
552.12	0.674
552.31	0.674
552.51	0.673
552.71	0.669
552.90	0.669
553.10	0.669
553.30	0.669
553.50	0.668
553.69	0.670
553.89	0.671
554.09	0.672
554.28	0.668
554.48	0.671
554.68	0.673
554.87	0.674
555.07	0.670
555.27	0.670
555.47	0.672
555.66	0.673
555.86	0.670
556.06	0.672
556.25	0.673
556.45	0.681
556.65	0.679
556.84	0.682
557.04	0.685
557.24	0.687
557.43	0.687
557.63	0.689
557.83	0.692
558.02	0.692
558.22	0.696
558.42	0.696
558.61	0.688
558.81	0.689
559.01	0.685
559.21	0.684
559.40	0.686
559.60	0.686
559.80	0.682
559.99	0.683
560.19	0.685
560.39	0.679
560.58	0.676
560.78	0.677
560.97	0.680
561.17	0.679
561.37	0.676
561.56	0.677
561.76	0.679
561.96	0.678
562.15	0.676
562.35	0.678
562.55	0.680
562.74	0.681
562.94	0.679
563.14	0.678
563.33	0.678
563.53	0.678
563.73	0.676
563.92	0.677
564.12	0.680
564.31	0.682
564.51	0.680
564.71	0.682
564.90	0.685
565.10	0.685
565.30	0.688
565.49	0.689
565.69	0.692
565.89	0.692
566.08	0.690
566.28	0.692
566.47	0.693
566.67	0.691
566.87	0.688
567.06	0.689
567.26	0.696
567.46	0.691
567.65	0.690
567.85	0.691
568.04	0.694
568.24	0.692
568.44	0.689
568.63	0.688
568.83	0.689
569.02	0.689
569.22	0.684
569.42	0.680
569.61	0.684
569.81	0.683
570.00	0.681
570.20	0.682
570.40	0.684
570.59	0.683
570.79	0.681
570.98	0.679
571.18	0.681
571.38	0.680
571.57	0.677
571.77	0.675
571.96	0.679
572.16	0.676
572.35	0.670
572.55	0.671
572.75	0.670
572.94	0.670
573.14	0.668
573.33	0.668
573.53	0.669
573.73	0.668
573.92	0.666
574.12	0.664
574.31	0.667
574.51	0.668
574.70	0.665
574.90	0.666
575.09	0.668
575.29	0.668
575.49	0.666
575.68	0.666
575.88	0.668
576.07	0.669
576.27	0.667
576.46	0.665
576.66	0.665
576.86	0.664
577.05	0.662
577.25	0.660
577.44	0.662
577.64	0.662
577.83	0.660
578.03	0.661
578.22	0.660
578.42	0.660
578.61	0.658
578.81	0.659
579.00	0.659
579.20	0.659
579.40	0.658
579.59	0.657
579.79	0.658
579.98	0.657
580.18	0.657
580.37	0.657
580.57	0.660
580.76	0.664
580.96	0.662
581.15	0.663
581.35	0.665
581.54	0.664
581.74	0.664
581.93	0.665
582.13	0.667
582.32	0.663
582.52	0.661
582.71	0.660
582.91	0.657
583.10	0.656
583.30	0.655
583.49	0.654
583.69	0.658
583.88	0.659
584.08	0.658
584.27	0.660
584.47	0.663
584.66	0.664
584.86	0.663
585.05	0.665
585.25	0.668
585.44	0.667
585.64	0.666
585.83	0.663
586.03	0.663
586.22	0.662
586.42	0.659
586.61	0.660
586.81	0.662
587.00	0.662
587.20	0.660
587.39	0.660
587.59	0.663
587.78	0.664
587.98	0.665
588.17	0.666
588.37	0.668
588.56	0.670
588.76	0.666
588.95	0.666
589.15	0.670
589.34	0.672
589.54	0.671
589.73	0.671
589.92	0.674
590.12	0.673
590.31	0.671
590.51	0.676
590.70	0.677
590.90	0.678
591.09	0.676
591.29	0.674
591.48	0.674
591.68	0.675
591.87	0.673
592.06	0.673
592.26	0.675
592.45	0.675
592.65	0.669
592.84	0.669
593.04	0.671
593.23	0.673
593.43	0.671
593.62	0.670
593.81	0.670
594.01	0.669
594.20	0.667
594.40	0.666
594.59	0.668
594.79	0.670
594.98	0.668
595.17	0.667
595.37	0.668
595.56	0.670
595.76	0.669
595.95	0.671
596.14	0.674
596.34	0.676
596.53	0.674
596.73	0.675
596.92	0.676
597.12	0.678
597.31	0.678
597.50	0.677
597.70	0.680
597.89	0.679
598.09	0.675
598.28	0.676
598.47	0.679
598.67	0.678
598.86	0.674
599.06	0.677
599.25	0.677
599.44	0.675
599.64	0.673
599.83	0.670
600.03	0.673
600.22	0.673
600.41	0.673
600.61	0.671
600.80	0.674
601.00	0.674
601.19	0.669
601.38	0.667
601.58	0.670
601.77	0.671
601.96	0.673
602.16	0.673
602.35	0.682
602.55	0.680
602.74	0.680
602.93	0.682
603.13	0.687
603.32	0.689
603.51	0.688
603.71	0.691
603.90	0.693
604.09	0.694
604.29	0.691
604.48	0.685
604.68	0.686
604.87	0.684
605.06	0.681
605.26	0.677
605.45	0.678
605.64	0.678
605.84	0.673
606.03	0.672
606.22	0.671
606.42	0.671
606.61	0.667
606.80	0.668
607.00	0.670
607.19	0.670
607.38	0.669
607.58	0.670
607.77	0.673
607.96	0.672
608.16	0.671
608.35	0.676
608.54	0.679
608.74	0.682
608.93	0.687
609.12	0.690
609.32	0.693
609.51	0.697
609.70	0.696
609.90	0.697
610.09	0.703
610.28	0.707
610.48	0.700
610.67	0.702
610.86	0.702
611.06	0.696
611.25	0.692
611.44	0.693
611.64	0.692
611.83	0.695
612.02	0.691
612.21	0.689
612.41	0.688
612.60	0.687
612.79	0.683
612.99	0.684
613.18	0.686
613.37	0.683
613.57	0.681
613.76	0.683
613.95	0.680
614.14	0.680
614.34	0.678
614.53	0.679
614.72	0.682
614.92	0.682
615.11	0.679
615.30	0.676
615.49	0.678
615.69	0.680
615.88	0.676
616.07	0.678
616.26	0.680
616.46	0.681
616.65	0.678
616.84	0.677
617.04	0.678
617.23	0.682
617.42	0.682
617.61	0.686
617.81	0.687
618.00	0.689
618.19	0.687
618.38	0.690
618.58	0.694
618.77	0.695
618.96	0.694
619.15	0.696
619.35	0.698
619.54	0.698
619.73	0.693
619.92	0.695
620.12	0.699
620.31	0.699
620.50	0.694
620.69	0.694
620.89	0.698
621.08	0.698
621.27	0.698
621.46	0.697
621.66	0.701
621.85	0.702
622.04	0.698
622.23	0.699
622.43	0.699
622.62	0.699
622.81	0.697
623.00	0.697
623.19	0.701
623.39	0.701
623.58	0.698
623.77	0.697
623.96	0.700
624.16	0.700
624.35	0.695
624.54	0.698
624.73	0.703
624.92	0.701
625.12	0.698
625.31	0.698
625.50	0.701
625.69	0.702
625.88	0.698
626.08	0.697
626.27	0.699
626.46	0.699
626.65	0.696
626.84	0.695
627.04	0.700
627.23	0.701
627.42	0.696
627.61	0.698
627.80	0.700
628.00	0.700
628.19	0.698
628.38	0.702
628.57	0.704
628.76	0.704
628.96	0.700
629.15	0.701
629.34	0.704
629.53	0.705
629.72	0.699
629.91	0.700
630.11	0.704
630.30	0.704
630.49	0.707
630.68	0.708
630.87	0.711
631.06	0.714
631.26	0.708
631.45	0.710
631.64	0.717
631.83	0.719
632.02	0.716
632.21	0.715
632.41	0.723
632.60	0.716
632.79	0.714
632.98	0.715
633.17	0.716
633.36	0.719
633.55	0.715
633.75	0.712
633.94	0.714
634.13	0.714
634.32	0.712
634.51	0.705
634.70	0.709
634.89	0.709
635.09	0.705
635.28	0.706
635.47	0.706
635.66	0.709
635.85	0.704
636.04	0.705
636.23	0.710
636.43	0.712
636.62	0.710
636.81	0.708
637.00	0.711
637.19	0.714
637.38	0.710
637.57	0.710
637.76	0.712
637.95	0.714
638.15	0.710
638.34	0.707
638.53	0.710
638.72	0.712
638.91	0.710
639.10	0.708
639.29	0.708
639.48	0.709
639.67	0.709
639.87	0.708
640.06	0.714
640.25	0.714
640.44	0.715
640.63	0.715
640.82	0.717
641.01	0.717
641.20	0.715
641.39	0.718
641.58	0.721
641.78	0.719
641.97	0.714
642.16	0.726
642.35	0.727
642.54	0.726
642.73	0.720
642.92	0.719
643.11	0.724
643.30	0.724
643.49	0.717
643.68	0.719
643.87	0.721
644.06	0.721
644.25	0.702
644.45	0.704
644.64	0.704
644.83	0.705
645.02	0.701
645.21	0.700
645.40	0.703
645.59	0.703
645.78	0.698
645.97	0.700
646.16	0.702
646.35	0.701
646.54	0.699
646.73	0.701
646.92	0.703
647.11	0.702
647.30	0.698
647.49	0.699
647.68	0.699
647.88	0.697
648.07	0.690
648.26	0.694
648.45	0.696
648.64	0.692
648.83	0.690
649.02	0.692
649.21	0.703
649.40	0.702
649.59	0.697
649.78	0.699
649.97	0.713
650.16	0.712
650.35	0.706
650.54	0.708
650.73	0.716
650.92	0.713
651.11	0.707
651.30	0.704
651.49	0.709
651.68	0.709
651.87	0.705
652.06	0.695
652.25	0.699
652.44	0.702
652.63	0.699
652.82	0.698
653.01	0.697
653.20	0.696
653.39	0.684
653.58	0.682
653.77	0.681
653.96	0.676
654.15	0.668
654.34	0.666
654.53	0.662
654.72	0.656
654.91	0.647
655.10	0.644
655.29	0.642
655.48	0.640
655.67	0.634
655.86	0.632
656.05	0.631
656.24	0.631
656.43	0.626
656.62	0.625
656.81	0.625
657.00	0.623
657.19	0.620
657.38	0.621
657.57	0.621
657.76	0.622
657.95	0.620
658.14	0.623
658.33	0.627
658.51	0.631
658.70	0.632
658.89	0.634
659.08	0.643
659.27	0.650
659.46	0.650
659.65	0.655
659.84	0.659
660.03	0.662
660.22	0.663
660.41	0.667
660.60	0.666
660.79	0.668
660.98	0.672
661.17	0.671
661.36	0.670
661.55	0.670
661.74	0.668
661.92	0.671
662.11	0.673
662.30	0.670
662.49	0.663
662.68	0.663
662.87	0.666
663.06	0.661
663.25	0.663
663.44	0.664
663.63	0.666
663.82	0.665
664.01	0.659
664.20	0.658
664.38	0.660
664.57	0.661
664.76	0.661
664.95	0.661
665.14	0.666
665.33	0.659
665.52	0.666
665.71	0.669
665.90	0.668
666.09	0.670
666.28	0.667
666.46	0.666
666.65	0.667
666.84	0.664
667.03	0.658
667.22	0.656
667.41	0.660
667.60	0.649
667.79	0.643
667.98	0.645
668.16	0.646
668.35	0.646
668.54	0.641
668.73	0.643
668.92	0.644
669.11	0.642
669.30	0.637
669.49	0.633
669.67	0.636
669.86	0.637
670.05	0.634
670.24	0.633
670.43	0.630
670.62	0.630
670.81	0.625
671.00	0.625
671.18	0.626
671.37	0.625
671.56	0.623
671.75	0.622
671.94	0.619
672.13	0.617
672.32	0.613
672.50	0.612
672.69	0.613
672.88	0.613
673.07	0.609
673.26	0.611
673.45	0.612
673.63	0.612
673.82	0.608
674.01	0.611
674.20	0.610
674.39	0.609
674.58	0.609
674.76	0.608
674.95	0.607
675.14	0.607
675.33	0.603
675.52	0.602
675.71	0.601
675.89	0.600
676.08	0.596
676.27	0.596
676.46	0.597
676.65	0.596
676.84	0.596
677.02	0.598
677.21	0.600
677.40	0.599
677.59	0.596
677.78	0.597
677.96	0.599
678.15	0.599
678.34	0.596
678.53	0.597
678.72	0.597
678.90	0.593
679.09	0.589
679.28	0.585
679.47	0.586
679.66	0.586
679.84	0.582
680.03	0.579
680.22	0.578
680.41	0.579
680.60	0.577
680.78	0.576
680.97	0.579
681.16	0.579
681.35	0.578
681.53	0.577
681.72	0.578
681.91	0.580
682.10	0.578
682.29	0.582
682.47	0.579
682.66	0.578
682.85	0.577
683.04	0.575
683.22	0.574
683.41	0.575
683.60	0.574
683.79	0.575
683.97	0.575
684.16	0.573
684.35	0.569
684.54	0.571
684.72	0.571
684.91	0.572
685.10	0.570
685.29	0.571
685.47	0.569
685.66	0.568
685.85	0.564
686.04	0.563
686.22	0.566
686.41	0.568
686.60	0.565
686.79	0.568
686.97	0.570
687.16	0.571
687.35	0.568
687.54	0.572
687.72	0.576
687.91	0.576
688.10	0.578
688.29	0.578
688.47	0.576
688.66	0.576
688.85	0.571
689.03	0.569
689.22	0.574
689.41	0.574
689.60	0.569
689.78	0.566
689.97	0.567
690.16	0.564
690.34	0.560
690.53	0.560
690.72	0.560
690.91	0.558
691.09	0.556
691.28	0.551
691.47	0.549
691.65	0.548
691.84	0.545
692.03	0.544
692.21	0.542
692.40	0.542
692.59	0.539
692.77	0.538
692.96	0.540
693.15	0.541
693.34	0.538
693.52	0.538
693.71	0.538
693.90	0.539
694.08	0.540
694.27	0.541
694.46	0.550
694.64	0.551
694.83	0.551
695.02	0.549
695.20	0.549
695.39	0.549
695.58	0.548
695.76	0.549
695.95	0.548
696.14	0.548
696.32	0.546
696.51	0.537
696.70	0.537
696.88	0.538
697.07	0.536
697.26	0.538
697.44	0.539
697.63	0.538
697.81	0.536
698.00	0.536
698.19	0.536
698.37	0.536
698.56	0.536
698.75	0.535
698.93	0.535
699.12	0.535
699.31	0.534
699.49	0.533
699.68	0.534
699.87	0.536
700.05	0.535
700.24	0.534
700.42	0.535
700.61	0.534
700.80	0.533
700.98	0.533
701.17	0.535
701.36	0.534
701.54	0.533
701.73	0.534
701.91	0.531
702.10	0.531
702.29	0.529
702.47	0.528
702.66	0.530
702.84	0.532
703.03	0.530
703.22	0.531
703.40	0.531
703.59	0.532
703.77	0.532
703.96	0.532
704.15	0.532
704.33	0.532
704.52	0.532
704.70	0.530
704.89	0.529
705.08	0.527
705.26	0.522
705.45	0.522
705.63	0.523
705.82	0.520
706.00	0.519
706.19	0.519
706.38	0.519
706.56	0.519
706.75	0.517
706.93	0.516
707.12	0.518
707.30	0.518
707.49	0.516
707.68	0.513
707.86	0.513
708.05	0.513
708.23	0.510
708.42	0.510
708.60	0.513
708.79	0.513
708.98	0.511
709.16	0.510
709.35	0.512
709.53	0.516
709.72	0.515
709.90	0.517
710.09	0.519
710.27	0.521
710.46	0.524
710.64	0.523
710.83	0.525
711.02	0.526
711.20	0.524
711.39	0.523
711.57	0.521
711.76	0.521
711.94	0.519
712.13	0.520
712.31	0.521
712.50	0.515
712.68	0.513
712.87	0.514
713.05	0.515
713.24	0.516
713.42	0.515
713.61	0.515
713.79	0.516
713.98	0.516
714.16	0.516
714.35	0.516
714.54	0.518
714.72	0.518
714.91	0.515
715.09	0.522
715.28	0.524
715.46	0.524
715.65	0.521
715.83	0.521
716.02	0.524
716.20	0.521
716.39	0.520
716.57	0.521
716.76	0.523
716.94	0.523
717.12	0.515
717.31	0.517
717.49	0.520
717.68	0.522
717.86	0.521
718.05	0.522
718.23	0.525
718.42	0.526
718.60	0.527
718.79	0.534
718.97	0.537
719.16	0.537
719.34	0.535
719.53	0.535
719.71	0.536
719.90	0.538
720.08	0.534
720.27	0.535
720.45	0.535
720.63	0.534
720.82	0.528
721.00	0.531
721.19	0.534
721.37	0.534
721.56	0.533
721.74	0.535
721.93	0.544
722.11	0.551
722.30	0.550
722.48	0.554
722.66	0.556
722.85	0.555
723.03	0.555
723.22	0.554
723.40	0.558
723.59	0.558
723.77	0.561
723.95	0.555
724.14	0.557
724.32	0.559
724.51	0.558
724.69	0.559
724.88	0.560
725.06	0.558
725.24	0.559
725.43	0.560
725.61	0.563
725.80	0.557
725.98	0.554
726.16	0.550
726.35	0.556
726.53	0.555
726.72	0.554
726.90	0.565
727.09	0.564
727.27	0.569
727.45	0.564
727.64	0.572
727.82	0.582
728.01	0.586
728.19	0.584
728.37	0.590
728.56	0.593
728.74	0.599
728.92	0.587
729.11	0.591
729.29	0.590
729.48	0.593
729.66	0.582
729.84	0.581
730.03	0.584
730.21	0.586
730.40	0.574
730.58	0.576
730.76	0.576
730.95	0.579
731.13	0.577
731.31	0.590
731.50	0.600
731.68	0.603
731.86	0.600
732.05	0.613
732.23	0.616
732.42	0.619
732.60	0.623
732.78	0.629
732.97	0.645
733.15	0.654
733.33	0.641
733.52	0.648
733.70	0.658
733.88	0.668
734.07	0.655
734.25	0.681
734.43	0.690
734.62	0.691
734.80	0.684
734.98	0.675
735.17	0.681
735.35	0.685
735.53	0.674
735.72	0.678
735.90	0.698
736.08	0.715
736.27	0.693
736.45	0.702
736.63	0.713
736.82	0.723
737.00	0.722
737.18	0.735
737.37	0.768
737.55	0.792
737.73	0.785
737.92	0.788
738.10	0.786
738.28	0.803
738.46	0.792
738.65	0.805
738.83	0.823
739.01	0.878
739.20	0.866
739.38	0.850
739.56	0.842
739.75	0.844
739.93	0.807
740.11	0.833
740.29	0.838
740.48	0.841
740.66	0.821
740.84	0.818
741.03	0.783
741.21	0.791
741.39	0.769
741.57	0.778
741.76	0.796
741.94	0.806
742.12	0.770
742.31	0.774
742.49	0.795
742.67	0.815
742.85	0.825
743.04	0.827
743.22	0.836
743.40	0.888
743.58	0.872
743.77	0.885
743.95	0.912
744.13	0.952
744.31	0.931
744.50	0.927
744.68	0.931
744.86	0.910
745.04	0.925
745.23	0.988
745.41	0.975
745.59	0.983
745.77	0.950
745.96	0.944
746.14	0.960
746.32	0.961
746.50	0.950
746.69	0.931
746.87	0.942
747.05	0.922
747.23	0.849
747.42	0.832
747.60	0.856
747.78	0.862
747.96	0.886
748.14	0.846
748.33	0.873
748.51	0.869
748.69	0.861
748.87	0.887
749.06	0.890
749.24	0.889
749.42	0.870
749.60	0.853
749.78	0.859
749.97	0.817
750.15	0.809
750.33	0.812
750.51	0.834
750.69	0.843
750.88	0.847
751.06	0.855
751.24	0.884
751.42	0.879
751.60	0.872
751.79	0.943
751.97	0.989
752.15	0.987
752.33	0.953
752.51	1.017
752.69	1.031
752.88	0.996
753.06	1.034
753.24	1.004
753.42	1.042
753.60	1.202
753.78	1.064
753.97	1.083
754.15	1.101
754.33	1.129
754.51	1.008
754.69	0.996
754.87	1.023
755.06	0.958
755.24	0.960
755.42	0.963
755.60	0.870
755.78	0.881
755.96	0.830
756.15	0.832
756.33	0.836
756.51	0.854
756.69	0.837
756.87	0.811
757.05	0.829
757.23	0.815
757.42	0.783
757.60	0.779
757.78	0.770
757.96	0.769
758.14	0.749
758.32	0.735
758.50	0.748
758.69	0.746
758.87	0.732
759.05	0.737
759.23	0.744
759.41	0.747
759.59	0.742
759.77	0.761
759.95	0.787
760.13	0.834
760.32	0.834
760.50	0.829
760.68	0.852
760.86	0.857
761.04	0.827
761.22	0.833
761.40	0.881
761.58	0.881
761.76	0.850
761.95	0.835
762.13	0.795
762.31	0.794
762.49	0.763
762.67	0.781
762.85	0.792
763.03	0.789
763.21	0.771
763.39	0.752
763.57	0.755
763.75	0.750
763.94	0.733
764.12	0.731
764.30	0.755
764.48	0.763
764.66	0.728
764.84	0.728
765.02	0.764
765.20	0.771
765.38	0.752
765.56	0.754
765.74	0.795
765.92	0.798
766.10	0.806
766.28	0.798
766.46	0.822
766.65	0.824
766.83	0.811
767.01	0.794
767.19	0.799
767.37	0.801
767.55	0.789
767.73	0.769
767.91	0.771
768.09	0.760
768.27	0.748
768.45	0.741
768.63	0.747
768.81	0.750
768.99	0.726
769.17	0.748
769.35	0.761
769.53	0.761
769.71	0.743
769.89	0.751
770.07	0.756
770.25	0.740
770.43	0.716
770.61	0.740
770.79	0.744
770.97	0.752
771.15	0.723
771.33	0.726
771.51	0.728
771.69	0.738
771.87	0.748
772.05	0.754
772.24	0.764
772.42	0.772
772.60	0.746
772.78	0.803
772.96	0.829
773.14	0.827
773.32	0.805
773.49	0.812
773.67	0.812
773.85	0.788
774.03	0.778
774.21	0.809
774.39	0.822
774.57	0.849
774.75	0.777
774.93	0.770
775.11	0.791
775.29	0.794
775.47	0.793
775.65	0.803
775.83	0.821
776.01	0.839
776.19	0.792
776.37	0.794
776.55	0.791
776.73	0.791
776.91	0.788
777.09	0.771
777.27	0.773
777.45	0.763
777.63	0.740
777.81	0.735
777.99	0.724
778.17	0.725
778.35	0.704
778.53	0.693
778.71	0.698
778.89	0.686
779.07	0.676
779.24	0.679
779.42	0.681
779.60	0.699
779.78	0.696
779.96	0.700
780.14	0.708
780.32	0.726
780.50	0.711
780.68	0.712
780.86	0.704
781.04	0.722
781.22	0.727
781.40	0.737
781.58	0.729
781.75	0.724
781.93	0.705
782.11	0.704
782.29	0.692
782.47	0.690
782.65	0.677
782.83	0.707
783.01	0.700
783.19	0.692
783.37	0.679
783.55	0.682
783.72	0.698
783.90	0.709
784.08	0.703
784.26	0.714
784.44	0.734
784.62	0.737
784.80	0.702
784.98	0.708
785.16	0.713
785.33	0.726
785.51	0.711
785.69	0.697
785.87	0.698
786.05	0.707
786.23	0.702
786.41	0.702
786.59	0.708
786.77	0.709
786.94	0.696
787.12	0.702
787.30	0.706
787.48	0.704
787.66	0.693
787.84	0.693
788.02	0.685
788.19	0.682
788.37	0.668
788.55	0.669
788.73	0.671
788.91	0.665
789.09	0.648
789.27	0.637
789.44	0.647
789.62	0.653
789.80	0.660
789.98	0.683
790.16	0.671
790.34	0.667
790.51	0.654
790.69	0.672
790.87	0.678
791.05	0.676
791.23	0.670
791.41	0.672
791.58	0.681
791.76	0.660
791.94	0.632
792.12	0.640
792.30	0.644
792.48	0.643
792.65	0.637
792.83	0.645
793.01	0.652
793.19	0.651
793.37	0.637
793.54	0.632
793.72	0.645
793.90	0.644
794.08	0.633
794.26	0.633
794.43	0.641
794.61	0.625
794.79	0.614
794.97	0.612
795.15	0.617
795.32	0.620
795.50	0.610
795.68	0.605
795.86	0.609
796.04	0.611
796.21	0.605
796.39	0.603
796.57	0.617
796.75	0.626
796.92	0.627
797.10	0.631
797.28	0.633
797.46	0.636
797.64	0.636
797.81	0.643
797.99	0.647
798.17	0.652
798.35	0.647
798.52	0.649
798.70	0.646
798.88	0.652
799.06	0.651
799.23	0.654
799.41	0.664
799.59	0.659
799.77	0.649
799.94	0.658
800.12	0.668
800.30	0.684
800.48	0.681
800.65	0.679
800.83	0.670
801.01	0.663
801.19	0.662
801.36	0.656
801.54	0.658
801.72	0.667
801.90	0.652
802.07	0.646
802.25	0.633
802.43	0.620
802.60	0.617
802.78	0.623
802.96	0.629
803.14	0.622
803.31	0.620
803.49	0.622
803.67	0.618
803.84	0.623
804.02	0.615
804.20	0.619
804.38	0.625
804.55	0.623
804.73	0.607
804.91	0.607
805.08	0.621
805.26	0.617
805.44	0.678
805.61	0.682
805.79	0.681
805.97	0.680
806.15	0.671
806.32	0.665
806.50	0.673
806.68	0.676
806.85	0.667
807.03	0.657
807.21	0.674
807.38	0.608
807.56	0.597
807.74	0.608
807.91	0.613
808.09	0.614
808.27	0.632
808.44	0.655
808.62	0.664
808.80	0.665
808.97	0.660
809.15	0.657
809.33	0.677
809.50	0.684
809.68	0.668
809.86	0.677
810.03	0.710
810.21	0.689
810.39	0.670
810.56	0.676
810.74	0.700
810.91	0.770
811.09	0.755
811.27	0.772
811.44	0.778
811.62	0.779
811.80	0.764
811.97	0.736
812.15	0.735
812.33	0.733
812.50	0.718
812.68	0.707
812.85	0.654
813.03	0.658
813.21	0.627
813.38	0.622
813.56	0.626
813.74	0.634
813.91	0.640
814.09	0.671
814.26	0.663
814.44	0.666
814.62	0.657
814.79	0.659
814.97	0.664
815.14	0.668
815.32	0.675
815.50	0.691
815.67	0.694
815.85	0.687
816.02	0.677
816.20	0.685
816.38	0.702
816.55	0.708
816.73	0.708
816.90	0.720
817.08	0.753
817.26	0.752
817.43	0.733
817.61	0.756
817.78	0.774
817.96	0.752
818.13	0.739
818.31	0.739
818.49	0.749
818.66	0.737
818.84	0.720
819.01	0.699
819.19	0.705
819.36	0.706
819.54	0.676
819.71	0.715
819.89	0.728
820.07	0.740
820.24	0.735
820.42	0.736
820.59	0.758
820.77	0.780
820.94	0.772
821.12	0.790
821.29	0.807
821.47	0.810
821.64	0.747
821.82	0.761
822.00	0.760
822.17	0.757
822.35	0.750
822.52	0.751
822.70	0.740
822.87	0.749
823.05	0.726
823.22	0.738
823.40	0.762
823.57	0.782
823.75	0.764
823.92	0.787
824.10	0.805
824.27	0.844
824.45	0.832
824.62	0.892
824.80	0.904
824.97	0.920
825.15	0.904
825.32	0.921
825.50	0.925
825.67	0.932
825.85	0.904
826.02	0.916
826.20	0.938
826.37	1.052
826.55	0.969
826.72	1.148
826.90	1.214
827.07	1.264
827.25	1.210
827.42	1.355
827.60	1.497
827.77	1.693
827.95	1.660
828.12	1.744
828.30	1.399
828.47	1.532
828.65	1.171
828.82	1.201
829.00	1.244
829.17	1.302
829.34	1.290
829.52	1.305
829.69	-0.000
829.87	-0.000
830.04	-0.000
830.22	-0.000
830.39	-0.000
830.57	-0.000
830.74	-0.000
830.92	-0.000
831.09	-0.000
831.26	-0.000
831.44	-0.000
831.61	-0.000
831.79	-0.000
831.96	-0.000
832.14	-0.000
832.31	-0.000
832.49	-0.000
832.66	-0.000
832.83	-0.000
833.01	-0.000
833.18	-0.000
833.36	-0.000
833.53	-0.000
833.70	-0.000
833.88	-0.000
834.05	-0.000
834.23	-0.000
834.40	-0.000
834.58	-0.000
834.75	-0.000
834.92	-0.000
835.10	-0.000
835.27	-0.000
835.45	-0.000
835.62	-0.000
835.79	-0.000
835.97	-0.000
836.14	-0.000
836.32	-0.000
836.49	-0.000
836.66	-0.000
836.84	-0.000
837.01	-0.000
837.18	-0.000
837.36	-0.000
837.53	-0.000
837.71	-0.000
837.88	-0.000
838.05	-0.000
838.23	-0.000
838.40	-0.000
838.58	-0.000
838.75	-0.000
838.92	-0.000
839.10	-0.000
839.27	-0.000
839.44	-0.000
839.62	-0.000
839.79	-0.000
839.96	-0.000
840.14	-0.000
840.31	-0.000
840.48	-0.000
840.66	-0.000
840.83	-0.000
841.01	-0.000
841.18	-0.000
841.35	-0.000
841.53	-0.000
841.70	-0.000
841.87	-0.000
842.05	-0.000
842.22	-0.000
842.39	-0.000
842.57	-0.000
842.74	-0.000
842.91	-0.000
843.09	-0.000
843.26	-0.000
843.43	-0.000
843.60	-0.000
843.78	-0.000
843.95	-0.000
844.12	-0.000
844.30	-0.000
844.47	-0.000
844.64	-0.000
844.82	-0.000
844.99	-0.000
845.16	-0.000
845.34	-0.000
845.51	-0.000
845.68	-0.000
845.85	-0.000
846.03	-0.000
846.20	-0.000
846.37	-0.000
846.55	-0.000
846.72	-0.000
846.89	-0.000
847.06	-0.000
847.24	-0.000
847.41	-0.000
847.58	-0.000
847.76	-0.000
847.93	-0.000
848.10	-0.000
848.27	-0.000
848.45	-0.000
848.62	-0.000
848.79	-0.000
848.97	-0.000
849.14	-0.000
849.31	-0.000
849.48	-0.000
849.66	-0.000
849.83	-0.000
850.00	-0.000
850.17	-0.000
850.35	-0.000
850.52	-0.000
850.69	-0.000
850.86	-0.000
851.04	-0.000
851.21	-0.000
851.38	-0.000
851.55	-0.000
851.72	-0.000
851.90	-0.000
852.07	-0.000
852.24	-0.000
852.41	-0.000
852.59	-0.000
852.76	-0.000
852.93	-0.000
853.10	-0.000
853.28	-0.000
853.45	-0.000
853.62	-0.000
853.79	-0.000
853.96	-0.000
854.14	-0.000
854.31	-0.000
854.48	-0.000
854.65	-0.000
854.82	-0.000
855.00	-0.000
855.17	-0.000
855.34	-0.000
855.51	-0.000
855.68	-0.000
855.86	-0.000
856.03	-0.000
856.20	-0.000
856.37	-0.000
856.54	-0.000
856.72	-0.000
856.89	-0.000
857.06	-0.000
857.23	-0.000
857.40	-0.000
857.57	-0.000
857.75	-0.000
857.92	-0.000
858.09	-0.000
858.26	-0.000
858.43	-0.000
858.60	-0.000
858.78	-0.000
858.95	-0.000
859.12	-0.000
859.29	-0.000
859.46	-0.000
859.63	-0.000
859.81	-0.000
859.98	-0.000
860.15	-0.000
860.32	-0.000
860.49	-0.000
860.66	-0.000
860.83	-0.000
861.01	-0.000
861.18	-0.000
861.35	-0.000
861.52	-0.000
861.69	-0.000
861.86	-0.000
862.03	-0.000
862.21	-0.000
862.38	-0.000
862.55	-0.000
862.72	-0.000
862.89	-0.000
863.06	-0.000
863.23	-0.000
863.40	-0.000
863.58	-0.000
863.75	-0.000
863.92	-0.000
864.09	-0.000
864.26	-0.000
864.43	-0.000
864.60	-0.000
864.77	-0.000
864.94	-0.000
865.11	-0.000
865.29	-0.000
865.46	-0.000
865.63	-0.000
865.80	-0.000
865.97	-0.000
866.14	-0.000
866.31	-0.000
866.48	-0.000
866.65	-0.000
866.82	-0.000
866.99	-0.000
867.16	-0.000
867.34	-0.000
867.51	-0.000
867.68	-0.000
867.85	-0.000
868.02	-0.000
868.19	-0.000
868.36	-0.000
868.53	-0.000
868.70	-0.000
868.87	-0.000
869.04	-0.000
869.21	-0.000
869.38	-0.000
869.55	-0.000
869.72	-0.000
869.89	-0.000
870.06	-0.000
870.24	-0.000
870.41	-0.000
870.58	-0.000
870.75	-0.000
870.92	-0.000
871.09	-0.000
871.26	-0.000
871.43	-0.000
871.60	-0.000
871.77	-0.000
871.94	-0.000
872.11	-0.000
872.28	-0.000
872.45	-0.000
872.62	-0.000
872.79	-0.000
872.96	-0.000
873.13	-0.000
873.30	-0.000
873.47	-0.000
873.64	-0.000
873.81	-0.000
873.98	-0.000
874.15	-0.000
874.32	-0.000
874.49	-0.000
874.66	-0.000
874.83	-0.000
875.00	-0.000
875.17	-0.000
875.34	-0.000
875.51	-0.000
875.68	-0.000
875.85	-0.000
876.02	-0.000
876.19	-0.000
876.36	-0.000
876.53	-0.000
876.70	-0.000
876.87	-0.000
877.04	-0.000
877.21	-0.000
877.38	-0.000
877.55	-0.000
877.72	-0.000
877.89	-0.000
878.06	-0.000
878.23	-0.000
878.39	-0.000
878.56	-0.000
878.73	-0.000
878.90	-0.000
879.07	-0.000
879.24	-0.000
879.41	-0.000
879.58	-0.000
879.75	-0.000
879.92	-0.000
880.09	-0.000
880.26	-0.000
880.43	-0.000
880.60	-0.000
880.77	-0.000
880.94	-0.000
881.11	-0.000
881.27	-0.000
881.44	-0.000
881.61	-0.000
881.78	-0.000
881.95	-0.000
882.12	-0.000
882.29	-0.000
882.46	-0.000
882.63	-0.000
882.80	-0.000
882.97	-0.000
883.14	-0.000
883.30	-0.000
883.47	-0.000
883.64	-0.000
883.81	-0.000
883.98	-0.000
884.15	-0.000
884.32	-0.000
884.49	-0.000
884.66	-0.000
884.82	-0.000
884.99	-0.000
885.16	-0.000
885.33	-0.000
885.50	-0.000
885.67	-0.000
885.84	-0.000
886.01	-0.000
886.17	-0.000
886.34	-0.000
886.51	-0.000
886.68	-0.000
886.85	-0.000
887.02	-0.000
887.19	-0.000
887.36	-0.000
887.52	-0.000
887.69	-0.000
887.86	-0.000
888.03	-0.000
888.20	-0.000
888.37	-0.000
888.54	-0.000
888.70	-0.000
888.87	-0.000
889.04	-0.000
889.21	-0.000
889.38	-0.000
889.55	-0.000
889.71	-0.000
889.88	-0.000
890.05	-0.000
890.22	-0.000
890.39	-0.000
>>>>>End Processed Spectral Data<<<<<
