SpectraSuite Data File
++++++++++++++++++++++++++++++++++++
Date: Fri Jun 19 15:42:53 CEST 2015
User: introlabs
Dark Spectrum Present: Yes
Reference Spectrum Present: Yes
Number of Sampled Component Spectra: 1
Spectrometers: USB4H08886
Integration Time (usec): 745692 (USB4H08886)
Spectra Averaged: 5 (USB4H08886)
Boxcar Smoothing: 5 (USB4H08886)
Correct for Electrical Dark: Yes (USB4H08886)
Strobe/Lamp Enabled: No (USB4H08886)
Correct for Detector Non-linearity: Yes (USB4H08886)
Correct for Stray Light: Yes (USB4H08886)
Number of Pixels in Processed Spectrum: 3648
>>>>>Begin Processed Spectral Data<<<<<
178.14	-0.000
178.36	-0.000
178.57	-0.000
178.79	-0.000
179.01	-0.000
179.22	-0.000
179.44	-0.000
179.65	-0.000
179.87	-0.000
180.08	-0.000
180.30	-0.000
180.52	-0.000
180.73	-0.000
180.95	-0.000
181.16	-0.000
181.38	-0.000
181.59	-0.000
181.81	-0.000
182.03	-0.000
182.24	-0.000
182.46	-0.000
182.67	-0.000
182.89	-0.000
183.10	-0.000
183.32	-0.000
183.54	-0.000
183.75	-0.000
183.97	-0.000
184.18	-0.000
184.40	-0.000
184.61	-0.000
184.83	-0.000
185.04	-0.000
185.26	-0.000
185.48	-0.000
185.69	-0.000
185.91	-0.000
186.12	-0.000
186.34	-0.000
186.55	-0.000
186.77	-0.000
186.98	-0.000
187.20	-0.000
187.42	-0.000
187.63	-0.000
187.85	-0.000
188.06	-0.000
188.28	-0.000
188.49	-0.000
188.71	-0.000
188.92	-0.000
189.14	-0.000
189.36	-0.000
189.57	-0.000
189.79	-0.000
190.00	-0.000
190.22	-0.000
190.43	-0.000
190.65	-0.000
190.86	-0.000
191.08	-0.000
191.29	-0.000
191.51	-0.000
191.72	-0.000
191.94	-0.000
192.16	-0.000
192.37	-0.000
192.59	-0.000
192.80	-0.000
193.02	-0.000
193.23	-0.000
193.45	-0.000
193.66	-0.000
193.88	-0.000
194.09	-0.000
194.31	-0.000
194.52	-0.000
194.74	-0.000
194.95	-0.000
195.17	-0.000
195.38	-0.000
195.60	-0.000
195.81	-0.000
196.03	-0.000
196.25	-0.000
196.46	-0.000
196.68	-0.000
196.89	-0.000
197.11	-0.000
197.32	-0.000
197.54	-0.000
197.75	-0.000
197.97	-0.000
198.18	-0.000
198.40	-0.000
198.61	-0.000
198.83	-0.000
199.04	-0.000
199.26	-0.000
199.47	-0.000
199.69	-0.000
199.90	-0.000
200.12	-0.000
200.33	-0.000
200.55	-0.000
200.76	-0.000
200.98	-0.000
201.19	-0.000
201.41	-0.000
201.62	-0.000
201.84	-0.000
202.05	-0.000
202.27	-0.000
202.48	-0.000
202.70	-0.000
202.91	-0.000
203.13	-0.000
203.34	-0.000
203.56	-0.000
203.77	-0.000
203.99	-0.000
204.20	-0.000
204.42	-0.000
204.63	-0.000
204.85	-0.000
205.06	-0.000
205.28	-0.000
205.49	-0.000
205.71	-0.000
205.92	-0.000
206.14	-0.000
206.35	-0.000
206.56	-0.000
206.78	-0.000
206.99	-0.000
207.21	-0.000
207.42	-0.000
207.64	-0.000
207.85	-0.000
208.07	-0.000
208.28	-0.000
208.50	-0.000
208.71	-0.000
208.93	-0.000
209.14	-0.000
209.36	-0.000
209.57	-0.000
209.79	-0.000
210.00	-0.000
210.22	-0.000
210.43	-0.000
210.64	-0.000
210.86	-0.000
211.07	-0.000
211.29	-0.000
211.50	-0.000
211.72	-0.000
211.93	-0.000
212.15	-0.000
212.36	-0.000
212.58	-0.000
212.79	-0.000
213.01	-0.000
213.22	-0.000
213.43	-0.000
213.65	-0.000
213.86	-0.000
214.08	-0.000
214.29	-0.000
214.51	-0.000
214.72	-0.000
214.94	-0.000
215.15	-0.000
215.36	-0.000
215.58	-0.000
215.79	-0.000
216.01	-0.000
216.22	-0.000
216.44	-0.000
216.65	-0.000
216.87	-0.000
217.08	-0.000
217.29	-0.000
217.51	-0.000
217.72	-0.000
217.94	-0.000
218.15	-0.000
218.37	-0.000
218.58	-0.000
218.80	-0.000
219.01	-0.000
219.22	-0.000
219.44	-0.000
219.65	-0.000
219.87	-0.000
220.08	-0.000
220.30	-0.000
220.51	-0.000
220.72	-0.000
220.94	-0.000
221.15	-0.000
221.37	-0.000
221.58	-0.000
221.79	-0.000
222.01	-0.000
222.22	-0.000
222.44	-0.000
222.65	-0.000
222.87	-0.000
223.08	-0.000
223.29	-0.000
223.51	-0.000
223.72	-0.000
223.94	-0.000
224.15	-0.000
224.36	-0.000
224.58	-0.000
224.79	-0.000
225.01	-0.000
225.22	-0.000
225.44	-0.000
225.65	-0.000
225.86	-0.000
226.08	-0.000
226.29	-0.000
226.51	-0.000
226.72	-0.000
226.93	-0.000
227.15	-0.000
227.36	-0.000
227.58	-0.000
227.79	-0.000
228.00	-0.000
228.22	-0.000
228.43	-0.000
228.65	-0.000
228.86	-0.000
229.07	-0.000
229.29	-0.000
229.50	-0.000
229.72	-0.000
229.93	-0.000
230.14	-0.000
230.36	-0.000
230.57	-0.000
230.78	-0.000
231.00	-0.000
231.21	-0.000
231.43	-0.000
231.64	-0.000
231.85	-0.000
232.07	-0.000
232.28	-0.000
232.50	-0.000
232.71	-0.000
232.92	-0.000
233.14	-0.000
233.35	-0.000
233.56	-0.000
233.78	-0.000
233.99	-0.000
234.21	-0.000
234.42	-0.000
234.63	-0.000
234.85	-0.000
235.06	-0.000
235.27	-0.000
235.49	-0.000
235.70	-0.000
235.91	-0.000
236.13	-0.000
236.34	-0.000
236.56	-0.000
236.77	-0.000
236.98	-0.000
237.20	-0.000
237.41	-0.000
237.62	-0.000
237.84	-0.000
238.05	-0.000
238.26	-0.000
238.48	-0.000
238.69	-0.000
238.91	-0.000
239.12	-0.000
239.33	-0.000
239.55	-0.000
239.76	-0.000
239.97	-0.000
240.19	-0.000
240.40	-0.000
240.61	-0.000
240.83	-0.000
241.04	-0.000
241.25	-0.000
241.47	-0.000
241.68	-0.000
241.89	-0.000
242.11	-0.000
242.32	-0.000
242.53	-0.000
242.75	-0.000
242.96	-0.000
243.17	-0.000
243.39	-0.000
243.60	-0.000
243.81	-0.000
244.03	-0.000
244.24	-0.000
244.45	-0.000
244.67	-0.000
244.88	-0.000
245.09	-0.000
245.31	-0.000
245.52	-0.000
245.73	-0.000
245.95	-0.000
246.16	-0.000
246.37	-0.000
246.59	-0.000
246.80	-0.000
247.01	-0.000
247.23	-0.000
247.44	-0.000
247.65	-0.000
247.87	-0.000
248.08	-0.000
248.29	-0.000
248.51	-0.000
248.72	-0.000
248.93	-0.000
249.15	-0.000
249.36	-0.000
249.57	-0.000
249.78	-0.000
250.00	-0.000
250.21	-0.000
250.42	-0.000
250.64	-0.000
250.85	-0.000
251.06	-0.000
251.28	-0.000
251.49	-0.000
251.70	-0.000
251.92	-0.000
252.13	-0.000
252.34	-0.000
252.55	-0.000
252.77	-0.000
252.98	-0.000
253.19	-0.000
253.41	-0.000
253.62	-0.000
253.83	-0.000
254.05	-0.000
254.26	-0.000
254.47	-0.000
254.68	-0.000
254.90	-0.000
255.11	-0.000
255.32	-0.000
255.54	-0.000
255.75	-0.000
255.96	-0.000
256.17	-0.000
256.39	-0.000
256.60	-0.000
256.81	-0.000
257.03	-0.000
257.24	-0.000
257.45	-0.000
257.66	-0.000
257.88	-0.000
258.09	-0.000
258.30	-0.000
258.51	-0.000
258.73	-0.000
258.94	-0.000
259.15	-0.000
259.37	-0.000
259.58	-0.000
259.79	-0.000
260.00	-0.000
260.22	-0.000
260.43	-0.000
260.64	-0.000
260.85	-0.000
261.07	-0.000
261.28	-0.000
261.49	-0.000
261.71	-0.000
261.92	-0.000
262.13	-0.000
262.34	-0.000
262.56	-0.000
262.77	-0.000
262.98	-0.000
263.19	-0.000
263.41	-0.000
263.62	-0.000
263.83	-0.000
264.04	-0.000
264.26	-0.000
264.47	-0.000
264.68	-0.000
264.89	-0.000
265.11	-0.000
265.32	-0.000
265.53	-0.000
265.74	-0.000
265.96	-0.000
266.17	-0.000
266.38	-0.000
266.59	-0.000
266.81	-0.000
267.02	-0.000
267.23	-0.000
267.44	-0.000
267.65	-0.000
267.87	-0.000
268.08	-0.000
268.29	-0.000
268.50	-0.000
268.72	-0.000
268.93	-0.000
269.14	-0.000
269.35	-0.000
269.57	-0.000
269.78	-0.000
269.99	-0.000
270.20	-0.000
270.41	-0.000
270.63	-0.000
270.84	-0.000
271.05	-0.000
271.26	-0.000
271.48	-0.000
271.69	-0.000
271.90	-0.000
272.11	-0.000
272.32	-0.000
272.54	-0.000
272.75	-0.000
272.96	-0.000
273.17	-0.000
273.39	-0.000
273.60	-0.000
273.81	-0.000
274.02	-0.000
274.23	-0.000
274.45	-0.000
274.66	-0.000
274.87	-0.000
275.08	-0.000
275.29	-0.000
275.51	-0.000
275.72	-0.000
275.93	-0.000
276.14	-0.000
276.35	-0.000
276.57	-0.000
276.78	-0.000
276.99	-0.000
277.20	-0.000
277.41	-0.000
277.63	-0.000
277.84	-0.000
278.05	-0.000
278.26	-0.000
278.47	-0.000
278.69	-0.000
278.90	-0.000
279.11	-0.000
279.32	-0.000
279.53	-0.000
279.74	-0.000
279.96	-0.000
280.17	-0.000
280.38	-0.000
280.59	-0.000
280.80	-0.000
281.02	-0.000
281.23	-0.000
281.44	-0.000
281.65	-0.000
281.86	-0.000
282.07	-0.000
282.29	-0.000
282.50	-0.000
282.71	-0.000
282.92	-0.000
283.13	-0.000
283.35	-0.000
283.56	-0.000
283.77	-0.000
283.98	-0.000
284.19	-0.000
284.40	-0.000
284.62	-0.000
284.83	-0.000
285.04	-0.000
285.25	-0.000
285.46	-0.000
285.67	-0.000
285.88	-0.000
286.10	-0.000
286.31	-0.000
286.52	-0.000
286.73	-0.000
286.94	-0.000
287.15	-0.000
287.37	-0.000
287.58	-0.000
287.79	-0.000
288.00	-0.000
288.21	-0.000
288.42	-0.000
288.63	-0.000
288.85	-0.000
289.06	-0.000
289.27	-0.000
289.48	-0.000
289.69	-0.000
289.90	-0.000
290.11	-0.000
290.33	-0.000
290.54	-0.000
290.75	-0.000
290.96	-0.000
291.17	-0.000
291.38	-0.000
291.59	-0.000
291.81	-0.000
292.02	-0.000
292.23	-0.000
292.44	-0.000
292.65	-0.000
292.86	-0.000
293.07	-0.000
293.28	2.415
293.50	2.830
293.71	-0.000
293.92	3.065
294.13	-0.000
294.34	-0.000
294.55	-0.000
294.76	-0.000
294.97	-0.000
295.19	-0.000
295.40	-0.000
295.61	-0.000
295.82	3.473
296.03	2.421
296.24	2.586
296.45	1.899
296.66	1.659
296.87	1.663
297.09	1.697
297.30	1.820
297.51	1.596
297.72	1.566
297.93	1.622
298.14	1.594
298.35	1.570
298.56	1.545
298.77	1.630
298.99	1.618
299.20	1.615
299.41	1.598
299.62	1.560
299.83	1.553
300.04	1.512
300.25	1.511
300.46	1.544
300.67	1.525
300.88	1.489
301.10	1.494
301.31	1.546
301.52	1.493
301.73	1.451
301.94	1.455
302.15	1.461
302.36	1.423
302.57	1.369
302.78	1.372
302.99	1.403
303.20	1.418
303.41	1.345
303.63	1.332
303.84	1.335
304.05	1.333
304.26	1.282
304.47	1.288
304.68	1.289
304.89	1.284
305.10	1.251
305.31	1.236
305.52	1.274
305.73	1.268
305.94	1.235
306.15	1.226
306.37	1.241
306.58	1.250
306.79	1.224
307.00	1.244
307.21	1.280
307.42	1.273
307.63	1.246
307.84	1.214
308.05	1.245
308.26	1.245
308.47	1.233
308.68	1.230
308.89	1.224
309.10	1.224
309.31	1.187
309.52	1.177
309.73	1.189
309.95	1.184
310.16	1.159
310.37	1.146
310.58	1.160
310.79	1.155
311.00	1.155
311.21	1.157
311.42	1.157
311.63	1.152
311.84	1.139
312.05	1.137
312.26	1.155
312.47	1.167
312.68	1.149
312.89	1.134
313.10	1.140
313.31	1.114
313.52	1.118
313.73	1.116
313.94	1.117
314.15	1.100
314.36	1.081
314.57	1.076
314.78	1.062
314.99	1.056
315.21	1.046
315.42	1.050
315.63	1.061
315.84	1.039
316.05	1.030
316.26	1.037
316.47	1.051
316.68	1.048
316.89	1.031
317.10	1.048
317.31	1.051
317.52	1.051
317.73	1.034
317.94	1.034
318.15	1.074
318.36	1.070
318.57	1.056
318.78	1.045
318.99	1.075
319.20	1.071
319.41	1.043
319.62	1.047
319.83	1.059
320.04	1.054
320.25	1.043
320.46	1.012
320.67	1.014
320.88	1.011
321.09	1.001
321.30	0.989
321.51	1.004
321.72	1.001
321.93	0.988
322.14	0.981
322.35	1.005
322.56	1.006
322.77	0.995
322.98	1.007
323.19	1.012
323.40	1.018
323.61	0.999
323.82	0.993
324.03	1.000
324.24	0.997
324.45	0.986
324.66	0.967
324.87	0.963
325.08	0.963
325.29	0.945
325.50	0.940
325.71	0.943
325.92	0.950
326.13	0.938
326.34	0.937
326.55	0.945
326.76	0.943
326.97	0.935
327.18	0.930
327.39	0.953
327.60	0.953
327.80	0.954
328.01	0.952
328.22	0.950
328.43	0.955
328.64	0.945
328.85	0.949
329.06	0.951
329.27	0.949
329.48	0.946
329.69	0.929
329.90	0.939
330.11	0.932
330.32	0.927
330.53	0.922
330.74	0.919
330.95	0.917
331.16	0.905
331.37	0.913
331.58	0.913
331.79	0.913
332.00	0.906
332.21	0.898
332.42	0.902
332.63	0.893
332.83	0.891
333.04	0.893
333.25	0.904
333.46	0.902
333.67	0.890
333.88	0.892
334.09	0.901
334.30	0.898
334.51	0.892
334.72	0.887
334.93	0.889
335.14	0.888
335.35	0.882
335.56	0.878
335.77	0.886
335.98	0.883
336.18	0.877
336.39	0.870
336.60	0.873
336.81	0.871
337.02	0.870
337.23	0.874
337.44	0.877
337.65	0.878
337.86	0.869
338.07	0.865
338.28	0.868
338.49	0.867
338.70	0.862
338.91	0.868
339.11	0.875
339.32	0.871
339.53	0.861
339.74	0.858
339.95	0.854
340.16	0.852
340.37	0.845
340.58	0.844
340.79	0.846
341.00	0.845
341.21	0.835
341.41	0.835
341.62	0.837
341.83	0.837
342.04	0.832
342.25	0.843
342.46	0.847
342.67	0.846
342.88	0.840
343.09	0.839
343.30	0.846
343.50	0.849
343.71	0.841
343.92	0.839
344.13	0.843
344.34	0.843
344.55	0.827
344.76	0.825
344.97	0.829
345.18	0.828
345.38	0.827
345.59	0.821
345.80	0.819
346.01	0.817
346.22	0.815
346.43	0.810
346.64	0.817
346.85	0.817
347.06	0.811
347.26	0.811
347.47	0.813
347.68	0.809
347.89	0.806
348.10	0.801
348.31	0.806
348.52	0.804
348.73	0.802
348.93	0.799
349.14	0.800
349.35	0.800
349.56	0.796
349.77	0.792
349.98	0.796
350.19	0.793
350.39	0.790
350.60	0.786
350.81	0.802
351.02	0.800
351.23	0.797
351.44	0.799
351.65	0.801
351.86	0.798
352.06	0.796
352.27	0.797
352.48	0.799
352.69	0.798
352.90	0.792
353.11	0.779
353.31	0.786
353.52	0.782
353.73	0.775
353.94	0.776
354.15	0.780
354.36	0.780
354.57	0.773
354.77	0.774
354.98	0.774
355.19	0.774
355.40	0.775
355.61	0.779
355.82	0.783
356.02	0.782
356.23	0.776
356.44	0.778
356.65	0.781
356.86	0.781
357.07	0.776
357.27	0.779
357.48	0.781
357.69	0.777
357.90	0.763
358.11	0.760
358.32	0.764
358.52	0.766
358.73	0.758
358.94	0.759
359.15	0.763
359.36	0.763
359.56	0.759
359.77	0.756
359.98	0.763
360.19	0.762
360.40	0.760
360.61	0.761
360.81	0.759
361.02	0.759
361.23	0.752
361.44	0.750
361.65	0.751
361.85	0.750
362.06	0.748
362.27	0.750
362.48	0.750
362.69	0.752
362.89	0.746
363.10	0.748
363.31	0.751
363.52	0.755
363.73	0.751
363.93	0.751
364.14	0.752
364.35	0.753
364.56	0.744
364.77	0.746
364.97	0.747
365.18	0.747
365.39	0.743
365.60	0.739
365.81	0.740
366.01	0.740
366.22	0.737
366.43	0.736
366.64	0.738
366.84	0.743
367.05	0.741
367.26	0.741
367.47	0.742
367.68	0.742
367.88	0.739
368.09	0.737
368.30	0.739
368.51	0.739
368.71	0.737
368.92	0.742
369.13	0.738
369.34	0.738
369.55	0.737
369.75	0.737
369.96	0.744
370.17	0.744
370.38	0.741
370.58	0.740
370.79	0.744
371.00	0.743
371.21	0.735
371.41	0.740
371.62	0.743
371.83	0.739
372.04	0.737
372.24	0.730
372.45	0.730
372.66	0.731
372.87	0.728
373.07	0.726
373.28	0.727
373.49	0.730
373.70	0.722
373.90	0.721
374.11	0.730
374.32	0.730
374.53	0.729
374.73	0.730
374.94	0.731
375.15	0.731
375.36	0.729
375.56	0.738
375.77	0.737
375.98	0.737
376.19	0.735
376.39	0.729
376.60	0.732
376.81	0.733
377.02	0.732
377.22	0.732
377.43	0.732
377.64	0.732
377.84	0.724
378.05	0.730
378.26	0.736
378.47	0.735
378.67	0.732
378.88	0.729
379.09	0.730
379.30	0.730
379.50	0.728
379.71	0.730
379.92	0.733
380.12	0.732
380.33	0.724
380.54	0.720
380.75	0.726
380.95	0.727
381.16	0.725
381.37	0.724
381.57	0.725
381.78	0.725
381.99	0.725
382.20	0.724
382.40	0.727
382.61	0.727
382.82	0.725
383.02	0.718
383.23	0.721
383.44	0.721
383.64	0.720
383.85	0.723
384.06	0.727
384.27	0.724
384.47	0.724
384.68	0.724
384.89	0.729
385.09	0.728
385.30	0.728
385.51	0.727
385.71	0.730
385.92	0.731
386.13	0.730
386.33	0.732
386.54	0.733
386.75	0.731
386.95	0.728
387.16	0.722
387.37	0.725
387.58	0.725
387.78	0.724
387.99	0.722
388.20	0.724
388.40	0.721
388.61	0.717
388.82	0.720
389.02	0.722
389.23	0.723
389.44	0.723
389.64	0.723
389.85	0.734
390.06	0.734
390.26	0.734
390.47	0.733
390.68	0.736
390.88	0.734
391.09	0.730
391.30	0.729
391.50	0.729
391.71	0.730
391.92	0.728
392.12	0.719
392.33	0.720
392.53	0.720
392.74	0.721
392.95	0.720
393.15	0.721
393.36	0.723
393.57	0.721
393.77	0.723
393.98	0.724
394.19	0.723
394.39	0.723
394.60	0.724
394.81	0.725
395.01	0.723
395.22	0.722
395.43	0.724
395.63	0.728
395.84	0.729
396.04	0.726
396.25	0.728
396.46	0.731
396.66	0.730
396.87	0.728
397.08	0.726
397.28	0.728
397.49	0.729
397.69	0.726
397.90	0.722
398.11	0.723
398.31	0.724
398.52	0.720
398.73	0.722
398.93	0.720
399.14	0.719
399.34	0.718
399.55	0.719
399.76	0.719
399.96	0.720
400.17	0.719
400.37	0.717
400.58	0.723
400.79	0.725
400.99	0.722
401.20	0.729
401.41	0.730
401.61	0.731
401.82	0.736
402.02	0.736
402.23	0.737
402.44	0.737
402.64	0.738
402.85	0.733
403.05	0.732
403.26	0.732
403.47	0.726
403.67	0.725
403.88	0.726
404.08	0.721
404.29	0.719
404.50	0.717
404.70	0.718
404.91	0.716
405.11	0.713
405.32	0.714
405.52	0.714
405.73	0.714
405.94	0.712
406.14	0.714
406.35	0.716
406.55	0.716
406.76	0.714
406.97	0.715
407.17	0.718
407.38	0.718
407.58	0.716
407.79	0.720
407.99	0.722
408.20	0.724
408.41	0.720
408.61	0.718
408.82	0.719
409.02	0.719
409.23	0.717
409.43	0.717
409.64	0.717
409.84	0.717
410.05	0.713
410.26	0.711
410.46	0.711
410.67	0.709
410.87	0.711
411.08	0.713
411.28	0.714
411.49	0.715
411.69	0.713
411.90	0.715
412.11	0.716
412.31	0.716
412.52	0.716
412.72	0.717
412.93	0.718
413.13	0.717
413.34	0.713
413.54	0.714
413.75	0.716
413.95	0.715
414.16	0.712
414.37	0.715
414.57	0.715
414.78	0.717
414.98	0.715
415.19	0.717
415.39	0.714
415.60	0.716
415.80	0.715
416.01	0.714
416.21	0.715
416.42	0.715
416.62	0.711
416.83	0.712
417.03	0.711
417.24	0.711
417.44	0.708
417.65	0.708
417.86	0.708
418.06	0.706
418.27	0.704
418.47	0.706
418.68	0.706
418.88	0.706
419.09	0.705
419.29	0.705
419.50	0.705
419.70	0.705
419.91	0.704
420.11	0.702
420.32	0.704
420.52	0.704
420.73	0.704
420.93	0.704
421.14	0.706
421.34	0.705
421.55	0.702
421.75	0.701
421.96	0.703
422.16	0.703
422.37	0.702
422.57	0.699
422.78	0.700
422.98	0.697
423.19	0.695
423.39	0.693
423.60	0.696
423.80	0.697
424.01	0.696
424.21	0.698
424.42	0.699
424.62	0.699
424.83	0.698
425.03	0.698
425.23	0.700
425.44	0.700
425.64	0.701
425.85	0.699
426.05	0.700
426.26	0.701
426.46	0.698
426.67	0.697
426.87	0.702
427.08	0.702
427.28	0.700
427.49	0.701
427.69	0.702
427.90	0.701
428.10	0.698
428.31	0.698
428.51	0.699
428.71	0.698
428.92	0.700
429.12	0.696
429.33	0.697
429.53	0.701
429.74	0.705
429.94	0.705
430.15	0.704
430.35	0.704
430.56	0.701
430.76	0.700
430.96	0.701
431.17	0.698
431.37	0.696
431.58	0.694
431.78	0.690
431.99	0.683
432.19	0.685
432.40	0.688
432.60	0.687
432.80	0.690
433.01	0.688
433.21	0.688
433.42	0.690
433.62	0.691
433.83	0.690
434.03	0.693
434.23	0.696
434.44	0.694
434.64	0.691
434.85	0.697
435.05	0.698
435.26	0.698
435.46	0.697
435.66	0.696
435.87	0.696
436.07	0.696
436.28	0.691
436.48	0.689
436.69	0.688
436.89	0.688
437.09	0.683
437.30	0.681
437.50	0.681
437.71	0.693
437.91	0.692
438.11	0.693
438.32	0.697
438.52	0.697
438.73	0.696
438.93	0.694
439.13	0.694
439.34	0.697
439.54	0.694
439.75	0.695
439.95	0.684
440.15	0.689
440.36	0.687
440.56	0.685
440.77	0.685
440.97	0.685
441.17	0.684
441.38	0.685
441.58	0.682
441.79	0.682
441.99	0.680
442.19	0.679
442.40	0.676
442.60	0.676
442.81	0.674
443.01	0.674
443.21	0.675
443.42	0.674
443.62	0.673
443.82	0.673
444.03	0.674
444.23	0.674
444.44	0.674
444.64	0.673
444.84	0.674
445.05	0.674
445.25	0.672
445.45	0.672
445.66	0.674
445.86	0.674
446.06	0.675
446.27	0.675
446.47	0.678
446.68	0.676
446.88	0.675
447.08	0.674
447.29	0.676
447.49	0.675
447.69	0.675
447.90	0.673
448.10	0.676
448.30	0.673
448.51	0.674
448.71	0.672
448.91	0.674
449.12	0.672
449.32	0.673
449.52	0.672
449.73	0.676
449.93	0.675
450.14	0.675
450.34	0.674
450.54	0.677
450.75	0.674
450.95	0.673
451.15	0.672
451.36	0.675
451.56	0.672
451.76	0.671
451.97	0.668
452.17	0.669
452.37	0.667
452.58	0.664
452.78	0.664
452.98	0.665
453.19	0.665
453.39	0.666
453.59	0.665
453.79	0.666
454.00	0.666
454.20	0.665
454.40	0.666
454.61	0.668
454.81	0.668
455.01	0.667
455.22	0.668
455.42	0.669
455.62	0.667
455.83	0.666
456.03	0.670
456.23	0.671
456.44	0.671
456.64	0.670
456.84	0.670
457.04	0.670
457.25	0.670
457.45	0.667
457.65	0.666
457.86	0.667
458.06	0.665
458.26	0.661
458.47	0.661
458.67	0.661
458.87	0.661
459.07	0.659
459.28	0.662
459.48	0.664
459.68	0.664
459.89	0.663
460.09	0.662
460.29	0.662
460.49	0.664
460.70	0.662
460.90	0.662
461.10	0.663
461.31	0.662
461.51	0.659
461.71	0.660
461.91	0.661
462.12	0.661
462.32	0.660
462.52	0.661
462.72	0.664
462.93	0.664
463.13	0.663
463.33	0.664
463.53	0.666
463.74	0.666
463.94	0.661
464.14	0.662
464.35	0.662
464.55	0.662
464.75	0.660
464.95	0.658
465.16	0.660
465.36	0.658
465.56	0.657
465.76	0.656
465.97	0.656
466.17	0.658
466.37	0.656
466.57	0.657
466.78	0.657
466.98	0.658
467.18	0.656
467.38	0.654
467.59	0.656
467.79	0.657
467.99	0.656
468.19	0.658
468.39	0.660
468.60	0.660
468.80	0.658
469.00	0.659
469.20	0.660
469.41	0.660
469.61	0.660
469.81	0.660
470.01	0.660
470.22	0.660
470.42	0.658
470.62	0.656
470.82	0.657
471.02	0.658
471.23	0.656
471.43	0.656
471.63	0.659
471.83	0.658
472.04	0.657
472.24	0.656
472.44	0.661
472.64	0.661
472.84	0.660
473.05	0.660
473.25	0.662
473.45	0.661
473.65	0.659
473.85	0.660
474.06	0.660
474.26	0.660
474.46	0.661
474.66	0.658
474.86	0.659
475.07	0.658
475.27	0.656
475.47	0.654
475.67	0.654
475.87	0.657
476.08	0.653
476.28	0.654
476.48	0.656
476.68	0.654
476.88	0.652
477.09	0.652
477.29	0.654
477.49	0.655
477.69	0.654
477.89	0.654
478.09	0.653
478.30	0.656
478.50	0.653
478.70	0.653
478.90	0.653
479.10	0.656
479.31	0.656
479.51	0.655
479.71	0.655
479.91	0.655
480.11	0.654
480.31	0.654
480.52	0.652
480.72	0.652
480.92	0.651
481.12	0.651
481.32	0.648
481.52	0.646
481.72	0.646
481.93	0.650
482.13	0.651
482.33	0.650
482.53	0.649
482.73	0.650
482.93	0.651
483.14	0.650
483.34	0.650
483.54	0.651
483.74	0.650
483.94	0.649
484.14	0.645
484.34	0.644
484.55	0.645
484.75	0.644
484.95	0.643
485.15	0.641
485.35	0.641
485.55	0.641
485.75	0.639
485.96	0.639
486.16	0.640
486.36	0.640
486.56	0.638
486.76	0.638
486.96	0.638
487.16	0.638
487.36	0.637
487.57	0.637
487.77	0.637
487.97	0.637
488.17	0.635
488.37	0.634
488.57	0.635
488.77	0.635
488.97	0.634
489.18	0.634
489.38	0.636
489.58	0.637
489.78	0.637
489.98	0.636
490.18	0.636
490.38	0.637
490.58	0.636
490.78	0.637
490.98	0.638
491.19	0.638
491.39	0.637
491.59	0.636
491.79	0.639
491.99	0.640
492.19	0.640
492.39	0.643
492.59	0.642
492.79	0.644
492.99	0.644
493.20	0.644
493.40	0.644
493.60	0.646
493.80	0.644
494.00	0.642
494.20	0.643
494.40	0.642
494.60	0.640
494.80	0.644
495.00	0.642
495.20	0.641
495.40	0.640
495.61	0.641
495.81	0.641
496.01	0.644
496.21	0.644
496.41	0.644
496.61	0.645
496.81	0.643
497.01	0.639
497.21	0.638
497.41	0.639
497.61	0.638
497.81	0.636
498.01	0.637
498.21	0.635
498.41	0.633
498.61	0.633
498.82	0.634
499.02	0.636
499.22	0.637
499.42	0.636
499.62	0.637
499.82	0.638
500.02	0.639
500.22	0.638
500.42	0.640
500.62	0.640
500.82	0.640
501.02	0.638
501.22	0.638
501.42	0.638
501.62	0.640
501.82	0.640
502.02	0.640
502.22	0.639
502.42	0.641
502.62	0.638
502.82	0.638
503.02	0.639
503.22	0.639
503.42	0.637
503.63	0.637
503.83	0.635
504.03	0.635
504.23	0.634
504.43	0.634
504.63	0.634
504.83	0.634
505.03	0.633
505.23	0.635
505.43	0.636
505.63	0.637
505.83	0.636
506.03	0.637
506.23	0.639
506.43	0.639
506.63	0.639
506.83	0.637
507.03	0.639
507.23	0.639
507.43	0.637
507.63	0.637
507.83	0.637
508.03	0.638
508.23	0.637
508.43	0.636
508.63	0.637
508.83	0.638
509.03	0.639
509.23	0.639
509.43	0.639
509.63	0.639
509.83	0.638
510.03	0.641
510.23	0.643
510.43	0.643
510.63	0.644
510.83	0.644
511.03	0.645
511.23	0.642
511.43	0.642
511.63	0.644
511.83	0.646
512.03	0.646
512.22	0.643
512.42	0.642
512.62	0.643
512.82	0.642
513.02	0.641
513.22	0.641
513.42	0.643
513.62	0.646
513.82	0.644
514.02	0.643
514.22	0.645
514.42	0.645
514.62	0.645
514.82	0.645
515.02	0.647
515.22	0.651
515.42	0.650
515.62	0.652
515.82	0.651
516.02	0.652
516.22	0.651
516.42	0.653
516.62	0.654
516.82	0.655
517.01	0.654
517.21	0.653
517.41	0.656
517.61	0.656
517.81	0.653
518.01	0.652
518.21	0.652
518.41	0.651
518.61	0.650
518.81	0.651
519.01	0.651
519.21	0.652
519.41	0.651
519.61	0.646
519.81	0.648
520.00	0.648
520.20	0.648
520.40	0.652
520.60	0.652
520.80	0.651
521.00	0.652
521.20	0.652
521.40	0.657
521.60	0.658
521.80	0.657
522.00	0.657
522.20	0.659
522.39	0.659
522.59	0.655
522.79	0.657
522.99	0.659
523.19	0.657
523.39	0.655
523.59	0.653
523.79	0.655
523.99	0.658
524.19	0.657
524.38	0.655
524.58	0.656
524.78	0.657
524.98	0.656
525.18	0.657
525.38	0.659
525.58	0.659
525.78	0.657
525.98	0.656
526.18	0.656
526.37	0.655
526.57	0.657
526.77	0.657
526.97	0.658
527.17	0.658
527.37	0.655
527.57	0.656
527.77	0.658
527.96	0.658
528.16	0.658
528.36	0.658
528.56	0.660
528.76	0.658
528.96	0.656
529.16	0.658
529.36	0.660
529.55	0.660
529.75	0.657
529.95	0.658
530.15	0.659
530.35	0.662
530.55	0.660
530.75	0.660
530.94	0.661
531.14	0.662
531.34	0.661
531.54	0.659
531.74	0.661
531.94	0.665
532.13	0.663
532.33	0.664
532.53	0.663
532.73	0.662
532.93	0.660
533.13	0.661
533.33	0.661
533.52	0.662
533.72	0.665
533.92	0.663
534.12	0.661
534.32	0.662
534.52	0.660
534.71	0.662
534.91	0.665
535.11	0.666
535.31	0.665
535.51	0.667
535.71	0.668
535.90	0.665
536.10	0.667
536.30	0.669
536.50	0.669
536.70	0.669
536.89	0.666
537.09	0.666
537.29	0.668
537.49	0.668
537.69	0.666
537.89	0.667
538.08	0.667
538.28	0.664
538.48	0.665
538.68	0.667
538.88	0.669
539.07	0.669
539.27	0.667
539.47	0.666
539.67	0.666
539.87	0.667
540.06	0.664
540.26	0.665
540.46	0.667
540.66	0.663
540.86	0.661
541.05	0.661
541.25	0.663
541.45	0.663
541.65	0.662
541.84	0.664
542.04	0.664
542.24	0.666
542.44	0.665
542.64	0.666
542.83	0.669
543.03	0.669
543.23	0.667
543.43	0.668
543.62	0.669
543.82	0.669
544.02	0.668
544.22	0.668
544.42	0.671
544.61	0.671
544.81	0.668
545.01	0.667
545.21	0.669
545.40	0.669
545.60	0.667
545.80	0.671
546.00	0.671
546.19	0.669
546.39	0.669
546.59	0.667
546.79	0.668
546.98	0.668
547.18	0.668
547.38	0.669
547.58	0.671
547.77	0.672
547.97	0.668
548.17	0.669
548.37	0.670
548.56	0.670
548.76	0.670
548.96	0.671
549.16	0.674
549.35	0.673
549.55	0.671
549.75	0.671
549.95	0.674
550.14	0.675
550.34	0.673
550.54	0.679
550.73	0.682
550.93	0.683
551.13	0.680
551.33	0.679
551.52	0.679
551.72	0.679
551.92	0.678
552.12	0.680
552.31	0.680
552.51	0.680
552.71	0.675
552.90	0.676
553.10	0.677
553.30	0.677
553.50	0.676
553.69	0.678
553.89	0.678
554.09	0.678
554.28	0.675
554.48	0.676
554.68	0.678
554.87	0.678
555.07	0.674
555.27	0.674
555.47	0.675
555.66	0.675
555.86	0.674
556.06	0.676
556.25	0.678
556.45	0.685
556.65	0.683
556.84	0.686
557.04	0.689
557.24	0.692
557.43	0.691
557.63	0.694
557.83	0.696
558.02	0.696
558.22	0.700
558.42	0.700
558.61	0.693
558.81	0.694
559.01	0.691
559.21	0.690
559.40	0.690
559.60	0.691
559.80	0.687
559.99	0.689
560.19	0.690
560.39	0.685
560.58	0.683
560.78	0.683
560.97	0.686
561.17	0.684
561.37	0.682
561.56	0.683
561.76	0.685
561.96	0.684
562.15	0.681
562.35	0.684
562.55	0.684
562.74	0.684
562.94	0.683
563.14	0.681
563.33	0.681
563.53	0.681
563.73	0.679
563.92	0.680
564.12	0.683
564.31	0.685
564.51	0.683
564.71	0.685
564.90	0.688
565.10	0.689
565.30	0.692
565.49	0.693
565.69	0.694
565.89	0.696
566.08	0.693
566.28	0.695
566.47	0.696
566.67	0.695
566.87	0.693
567.06	0.695
567.26	0.700
567.46	0.696
567.65	0.696
567.85	0.698
568.04	0.700
568.24	0.699
568.44	0.697
568.63	0.695
568.83	0.696
569.02	0.694
569.22	0.690
569.42	0.686
569.61	0.688
569.81	0.687
570.00	0.684
570.20	0.686
570.40	0.687
570.59	0.687
570.79	0.685
570.98	0.683
571.18	0.685
571.38	0.685
571.57	0.683
571.77	0.681
571.96	0.685
572.16	0.682
572.35	0.677
572.55	0.678
572.75	0.676
572.94	0.676
573.14	0.674
573.33	0.674
573.53	0.674
573.73	0.673
573.92	0.671
574.12	0.668
574.31	0.671
574.51	0.672
574.70	0.669
574.90	0.671
575.09	0.673
575.29	0.673
575.49	0.671
575.68	0.672
575.88	0.673
576.07	0.674
576.27	0.672
576.46	0.670
576.66	0.670
576.86	0.669
577.05	0.666
577.25	0.665
577.44	0.666
577.64	0.666
577.83	0.665
578.03	0.666
578.22	0.666
578.42	0.666
578.61	0.664
578.81	0.665
579.00	0.665
579.20	0.665
579.40	0.664
579.59	0.663
579.79	0.663
579.98	0.662
580.18	0.661
580.37	0.661
580.57	0.662
580.76	0.667
580.96	0.665
581.15	0.665
581.35	0.667
581.54	0.667
581.74	0.667
581.93	0.668
582.13	0.669
582.32	0.667
582.52	0.665
582.71	0.664
582.91	0.660
583.10	0.659
583.30	0.658
583.49	0.657
583.69	0.660
583.88	0.661
584.08	0.660
584.27	0.663
584.47	0.667
584.66	0.668
584.86	0.668
585.05	0.670
585.25	0.672
585.44	0.672
585.64	0.671
585.83	0.668
586.03	0.668
586.22	0.666
586.42	0.662
586.61	0.663
586.81	0.664
587.00	0.664
587.20	0.661
587.39	0.662
587.59	0.663
587.78	0.664
587.98	0.665
588.17	0.666
588.37	0.668
588.56	0.670
588.76	0.666
588.95	0.666
589.15	0.670
589.34	0.672
589.54	0.670
589.73	0.672
589.92	0.675
590.12	0.675
590.31	0.674
590.51	0.679
590.70	0.681
590.90	0.682
591.09	0.680
591.29	0.679
591.48	0.679
591.68	0.680
591.87	0.678
592.06	0.678
592.26	0.681
592.45	0.680
592.65	0.673
592.84	0.673
593.04	0.675
593.23	0.678
593.43	0.675
593.62	0.674
593.81	0.674
594.01	0.674
594.20	0.671
594.40	0.669
594.59	0.670
594.79	0.671
594.98	0.669
595.17	0.668
595.37	0.669
595.56	0.672
595.76	0.671
595.95	0.673
596.14	0.676
596.34	0.678
596.53	0.678
596.73	0.680
596.92	0.681
597.12	0.684
597.31	0.684
597.50	0.683
597.70	0.685
597.89	0.685
598.09	0.682
598.28	0.683
598.47	0.685
598.67	0.683
598.86	0.679
599.06	0.681
599.25	0.681
599.44	0.679
599.64	0.677
599.83	0.673
600.03	0.676
600.22	0.676
600.41	0.676
600.61	0.673
600.80	0.675
601.00	0.676
601.19	0.672
601.38	0.670
601.58	0.672
601.77	0.673
601.96	0.676
602.16	0.676
602.35	0.684
602.55	0.682
602.74	0.683
602.93	0.685
603.13	0.690
603.32	0.692
603.51	0.692
603.71	0.696
603.90	0.697
604.09	0.698
604.29	0.696
604.48	0.690
604.68	0.690
604.87	0.690
605.06	0.686
605.26	0.683
605.45	0.683
605.64	0.682
605.84	0.677
606.03	0.676
606.22	0.674
606.42	0.673
606.61	0.670
606.80	0.670
607.00	0.671
607.19	0.671
607.38	0.670
607.58	0.671
607.77	0.673
607.96	0.673
608.16	0.672
608.35	0.676
608.54	0.678
608.74	0.681
608.93	0.686
609.12	0.689
609.32	0.691
609.51	0.694
609.70	0.693
609.90	0.695
610.09	0.700
610.28	0.705
610.48	0.699
610.67	0.700
610.86	0.702
611.06	0.696
611.25	0.693
611.44	0.694
611.64	0.694
611.83	0.697
612.02	0.695
612.21	0.694
612.41	0.693
612.60	0.692
612.79	0.689
612.99	0.688
613.18	0.691
613.37	0.689
613.57	0.686
613.76	0.687
613.95	0.684
614.14	0.684
614.34	0.681
614.53	0.681
614.72	0.684
614.92	0.684
615.11	0.681
615.30	0.678
615.49	0.679
615.69	0.682
615.88	0.678
616.07	0.679
616.26	0.681
616.46	0.682
616.65	0.679
616.84	0.678
617.04	0.678
617.23	0.681
617.42	0.682
617.61	0.686
617.81	0.685
618.00	0.688
618.19	0.687
618.38	0.691
618.58	0.694
618.77	0.695
618.96	0.695
619.15	0.697
619.35	0.699
619.54	0.699
619.73	0.695
619.92	0.698
620.12	0.702
620.31	0.702
620.50	0.697
620.69	0.698
620.89	0.701
621.08	0.701
621.27	0.701
621.46	0.701
621.66	0.705
621.85	0.705
622.04	0.702
622.23	0.702
622.43	0.703
622.62	0.702
622.81	0.702
623.00	0.700
623.19	0.704
623.39	0.703
623.58	0.700
623.77	0.698
623.96	0.701
624.16	0.700
624.35	0.696
624.54	0.698
624.73	0.702
624.92	0.700
625.12	0.698
625.31	0.698
625.50	0.701
625.69	0.701
625.88	0.698
626.08	0.698
626.27	0.699
626.46	0.699
626.65	0.696
626.84	0.696
627.04	0.701
627.23	0.701
627.42	0.698
627.61	0.699
627.80	0.702
628.00	0.702
628.19	0.700
628.38	0.703
628.57	0.705
628.76	0.705
628.96	0.702
629.15	0.702
629.34	0.704
629.53	0.705
629.72	0.699
629.91	0.700
630.11	0.704
630.30	0.704
630.49	0.707
630.68	0.708
630.87	0.711
631.06	0.713
631.26	0.709
631.45	0.711
631.64	0.718
631.83	0.720
632.02	0.717
632.21	0.716
632.41	0.722
632.60	0.716
632.79	0.715
632.98	0.715
633.17	0.715
633.36	0.717
633.55	0.714
633.75	0.710
633.94	0.712
634.13	0.712
634.32	0.710
634.51	0.706
634.70	0.708
634.89	0.707
635.09	0.704
635.28	0.705
635.47	0.706
635.66	0.708
635.85	0.704
636.04	0.705
636.23	0.709
636.43	0.710
636.62	0.709
636.81	0.709
637.00	0.710
637.19	0.713
637.38	0.709
637.57	0.709
637.76	0.711
637.95	0.712
638.15	0.710
638.34	0.707
638.53	0.710
638.72	0.711
638.91	0.709
639.10	0.707
639.29	0.707
639.48	0.707
639.67	0.707
639.87	0.707
640.06	0.712
640.25	0.710
640.44	0.711
640.63	0.711
640.82	0.713
641.01	0.713
641.20	0.713
641.39	0.715
641.58	0.716
641.78	0.715
641.97	0.711
642.16	0.725
642.35	0.726
642.54	0.726
642.73	0.721
642.92	0.721
643.11	0.723
643.30	0.722
643.49	0.718
643.68	0.721
643.87	0.722
644.06	0.722
644.25	0.702
644.45	0.705
644.64	0.706
644.83	0.706
645.02	0.703
645.21	0.702
645.40	0.704
645.59	0.704
645.78	0.698
645.97	0.701
646.16	0.702
646.35	0.701
646.54	0.699
646.73	0.700
646.92	0.701
647.11	0.701
647.30	0.698
647.49	0.700
647.68	0.699
647.88	0.698
648.07	0.691
648.26	0.695
648.45	0.696
648.64	0.692
648.83	0.689
649.02	0.692
649.21	0.701
649.40	0.700
649.59	0.695
649.78	0.695
649.97	0.709
650.16	0.708
650.35	0.701
650.54	0.704
650.73	0.712
650.92	0.709
651.11	0.703
651.30	0.701
651.49	0.704
651.68	0.705
651.87	0.703
652.06	0.693
652.25	0.696
652.44	0.700
652.63	0.700
652.82	0.702
653.01	0.704
653.20	0.702
653.39	0.692
653.58	0.690
653.77	0.689
653.96	0.684
654.15	0.677
654.34	0.675
654.53	0.669
654.72	0.662
654.91	0.652
655.10	0.648
655.29	0.645
655.48	0.643
655.67	0.638
655.86	0.635
656.05	0.633
656.24	0.632
656.43	0.628
656.62	0.626
656.81	0.626
657.00	0.622
657.19	0.617
657.38	0.616
657.57	0.614
657.76	0.615
657.95	0.613
658.14	0.616
658.33	0.617
658.51	0.621
658.70	0.621
658.89	0.623
659.08	0.633
659.27	0.642
659.46	0.644
659.65	0.650
659.84	0.654
660.03	0.658
660.22	0.659
660.41	0.664
660.60	0.664
660.79	0.665
660.98	0.671
661.17	0.670
661.36	0.669
661.55	0.670
661.74	0.669
661.92	0.673
662.11	0.675
662.30	0.674
662.49	0.668
662.68	0.667
662.87	0.670
663.06	0.664
663.25	0.666
663.44	0.667
663.63	0.667
663.82	0.665
664.01	0.660
664.20	0.658
664.38	0.659
664.57	0.660
664.76	0.660
664.95	0.660
665.14	0.664
665.33	0.659
665.52	0.666
665.71	0.670
665.90	0.670
666.09	0.671
666.28	0.669
666.46	0.668
666.65	0.668
666.84	0.666
667.03	0.660
667.22	0.659
667.41	0.661
667.60	0.651
667.79	0.645
667.98	0.646
668.16	0.647
668.35	0.646
668.54	0.643
668.73	0.644
668.92	0.644
669.11	0.644
669.30	0.638
669.49	0.635
669.67	0.637
669.86	0.639
670.05	0.637
670.24	0.635
670.43	0.633
670.62	0.633
670.81	0.628
671.00	0.629
671.18	0.629
671.37	0.628
671.56	0.626
671.75	0.624
671.94	0.621
672.13	0.619
672.32	0.615
672.50	0.615
672.69	0.614
672.88	0.615
673.07	0.610
673.26	0.612
673.45	0.613
673.63	0.613
673.82	0.610
674.01	0.611
674.20	0.611
674.39	0.610
674.58	0.610
674.76	0.610
674.95	0.608
675.14	0.608
675.33	0.604
675.52	0.603
675.71	0.603
675.89	0.603
676.08	0.599
676.27	0.598
676.46	0.598
676.65	0.597
676.84	0.597
677.02	0.600
677.21	0.601
677.40	0.600
677.59	0.598
677.78	0.599
677.96	0.601
678.15	0.601
678.34	0.599
678.53	0.600
678.72	0.599
678.90	0.596
679.09	0.591
679.28	0.588
679.47	0.588
679.66	0.587
679.84	0.584
680.03	0.581
680.22	0.579
680.41	0.581
680.60	0.577
680.78	0.577
680.97	0.578
681.16	0.579
681.35	0.577
681.53	0.576
681.72	0.577
681.91	0.579
682.10	0.578
682.29	0.580
682.47	0.578
682.66	0.577
682.85	0.576
683.04	0.574
683.22	0.574
683.41	0.576
683.60	0.574
683.79	0.576
683.97	0.575
684.16	0.574
684.35	0.571
684.54	0.572
684.72	0.572
684.91	0.573
685.10	0.571
685.29	0.572
685.47	0.569
685.66	0.569
685.85	0.565
686.04	0.564
686.22	0.566
686.41	0.569
686.60	0.566
686.79	0.570
686.97	0.570
687.16	0.571
687.35	0.569
687.54	0.572
687.72	0.576
687.91	0.576
688.10	0.578
688.29	0.577
688.47	0.575
688.66	0.575
688.85	0.571
689.03	0.569
689.22	0.574
689.41	0.574
689.60	0.570
689.78	0.567
689.97	0.568
690.16	0.565
690.34	0.561
690.53	0.561
690.72	0.561
690.91	0.559
691.09	0.557
691.28	0.551
691.47	0.549
691.65	0.548
691.84	0.545
692.03	0.545
692.21	0.543
692.40	0.542
692.59	0.539
692.77	0.538
692.96	0.539
693.15	0.540
693.34	0.538
693.52	0.538
693.71	0.538
693.90	0.539
694.08	0.539
694.27	0.541
694.46	0.550
694.64	0.551
694.83	0.551
695.02	0.549
695.20	0.549
695.39	0.549
695.58	0.549
695.76	0.550
695.95	0.549
696.14	0.548
696.32	0.545
696.51	0.536
696.70	0.536
696.88	0.538
697.07	0.537
697.26	0.538
697.44	0.539
697.63	0.538
697.81	0.537
698.00	0.536
698.19	0.536
698.37	0.536
698.56	0.536
698.75	0.535
698.93	0.534
699.12	0.533
699.31	0.533
699.49	0.532
699.68	0.532
699.87	0.535
700.05	0.534
700.24	0.534
700.42	0.536
700.61	0.536
700.80	0.534
700.98	0.535
701.17	0.537
701.36	0.536
701.54	0.536
701.73	0.537
701.91	0.534
702.10	0.533
702.29	0.531
702.47	0.530
702.66	0.531
702.84	0.532
703.03	0.530
703.22	0.531
703.40	0.530
703.59	0.532
703.77	0.531
703.96	0.531
704.15	0.531
704.33	0.531
704.52	0.531
704.70	0.529
704.89	0.529
705.08	0.527
705.26	0.523
705.45	0.524
705.63	0.524
705.82	0.521
706.00	0.520
706.19	0.520
706.38	0.520
706.56	0.519
706.75	0.518
706.93	0.516
707.12	0.517
707.30	0.518
707.49	0.515
707.68	0.513
707.86	0.512
708.05	0.512
708.23	0.509
708.42	0.509
708.60	0.512
708.79	0.511
708.98	0.510
709.16	0.509
709.35	0.511
709.53	0.515
709.72	0.514
709.90	0.516
710.09	0.517
710.27	0.520
710.46	0.524
710.64	0.523
710.83	0.525
711.02	0.527
711.20	0.525
711.39	0.524
711.57	0.521
711.76	0.522
711.94	0.520
712.13	0.521
712.31	0.521
712.50	0.517
712.68	0.514
712.87	0.514
713.05	0.514
713.24	0.516
713.42	0.515
713.61	0.516
713.79	0.516
713.98	0.516
714.16	0.517
714.35	0.517
714.54	0.517
714.72	0.518
714.91	0.515
715.09	0.521
715.28	0.524
715.46	0.523
715.65	0.522
715.83	0.521
716.02	0.523
716.20	0.520
716.39	0.520
716.57	0.520
716.76	0.523
716.94	0.524
717.12	0.517
717.31	0.517
717.49	0.521
717.68	0.523
717.86	0.523
718.05	0.524
718.23	0.526
718.42	0.528
718.60	0.530
718.79	0.537
718.97	0.539
719.16	0.539
719.34	0.537
719.53	0.536
719.71	0.536
719.90	0.538
720.08	0.535
720.27	0.535
720.45	0.535
720.63	0.533
720.82	0.528
721.00	0.530
721.19	0.533
721.37	0.533
721.56	0.534
721.74	0.536
721.93	0.545
722.11	0.550
722.30	0.550
722.48	0.554
722.66	0.555
722.85	0.554
723.03	0.555
723.22	0.552
723.40	0.555
723.59	0.554
723.77	0.559
723.95	0.551
724.14	0.554
724.32	0.555
724.51	0.555
724.69	0.556
724.88	0.556
725.06	0.555
725.24	0.556
725.43	0.558
725.61	0.560
725.80	0.554
725.98	0.553
726.16	0.550
726.35	0.556
726.53	0.555
726.72	0.554
726.90	0.565
727.09	0.566
727.27	0.571
727.45	0.568
727.64	0.577
727.82	0.584
728.01	0.588
728.19	0.586
728.37	0.590
728.56	0.594
728.74	0.600
728.92	0.588
729.11	0.590
729.29	0.588
729.48	0.591
729.66	0.582
729.84	0.582
730.03	0.586
730.21	0.588
730.40	0.580
730.58	0.580
730.76	0.580
730.95	0.583
731.13	0.583
731.31	0.595
731.50	0.603
731.68	0.606
731.86	0.602
732.05	0.616
732.23	0.617
732.42	0.621
732.60	0.625
732.78	0.630
732.97	0.646
733.15	0.652
733.33	0.642
733.52	0.650
733.70	0.659
733.88	0.670
734.07	0.658
734.25	0.684
734.43	0.690
734.62	0.692
734.80	0.688
734.98	0.681
735.17	0.689
735.35	0.695
735.53	0.684
735.72	0.687
735.90	0.707
736.08	0.725
736.27	0.701
736.45	0.710
736.63	0.720
736.82	0.730
737.00	0.730
737.18	0.738
737.37	0.767
737.55	0.790
737.73	0.787
737.92	0.785
738.10	0.780
738.28	0.800
738.46	0.792
738.65	0.803
738.83	0.819
739.01	0.867
739.20	0.859
739.38	0.839
739.56	0.828
739.75	0.830
739.93	0.802
740.11	0.827
740.29	0.823
740.48	0.828
740.66	0.809
740.84	0.804
741.03	0.769
741.21	0.781
741.39	0.768
741.57	0.780
741.76	0.793
741.94	0.798
742.12	0.763
742.31	0.771
742.49	0.785
742.67	0.809
742.85	0.824
743.04	0.832
743.22	0.840
743.40	0.884
743.58	0.872
743.77	0.887
743.95	0.914
744.13	0.964
744.31	0.948
744.50	0.944
744.68	0.937
744.86	0.914
745.04	0.923
745.23	0.984
745.41	0.971
745.59	0.971
745.77	0.940
745.96	0.932
746.14	0.935
746.32	0.931
746.50	0.921
746.69	0.908
746.87	0.915
747.05	0.902
747.23	0.834
747.42	0.816
747.60	0.836
747.78	0.838
747.96	0.863
748.14	0.826
748.33	0.850
748.51	0.847
748.69	0.844
748.87	0.869
749.06	0.865
749.24	0.863
749.42	0.855
749.60	0.841
749.78	0.850
749.97	0.810
750.15	0.803
750.33	0.805
750.51	0.822
750.69	0.825
750.88	0.828
751.06	0.833
751.24	0.857
751.42	0.851
751.60	0.845
751.79	0.909
751.97	0.949
752.15	0.952
752.33	0.922
752.51	0.980
752.69	0.990
752.88	0.966
753.06	1.009
753.24	0.983
753.42	1.008
753.60	1.148
753.78	1.033
753.97	1.048
754.15	1.060
754.33	1.092
754.51	0.991
754.69	0.980
754.87	0.999
755.06	0.939
755.24	0.940
755.42	0.953
755.60	0.861
755.78	0.870
755.96	0.822
756.15	0.818
756.33	0.819
756.51	0.837
756.69	0.827
756.87	0.798
757.05	0.813
757.23	0.801
757.42	0.769
757.60	0.769
757.78	0.756
757.96	0.755
758.14	0.747
758.32	0.733
758.50	0.742
758.69	0.740
758.87	0.734
759.05	0.736
759.23	0.742
759.41	0.744
759.59	0.740
759.77	0.760
759.95	0.782
760.13	0.825
760.32	0.825
760.50	0.817
760.68	0.836
760.86	0.837
761.04	0.814
761.22	0.818
761.40	0.861
761.58	0.861
761.76	0.838
761.95	0.822
762.13	0.779
762.31	0.781
762.49	0.756
762.67	0.773
762.85	0.780
763.03	0.777
763.21	0.764
763.39	0.746
763.57	0.748
763.75	0.742
763.94	0.730
764.12	0.730
764.30	0.749
764.48	0.754
764.66	0.723
764.84	0.724
765.02	0.755
765.20	0.761
765.38	0.743
765.56	0.748
765.74	0.782
765.92	0.784
766.10	0.794
766.28	0.788
766.46	0.808
766.65	0.809
766.83	0.799
767.01	0.783
767.19	0.785
767.37	0.788
767.55	0.775
767.73	0.757
767.91	0.757
768.09	0.745
768.27	0.736
768.45	0.729
768.63	0.732
768.81	0.735
768.99	0.714
769.17	0.737
769.35	0.747
769.53	0.744
769.71	0.727
769.89	0.733
770.07	0.737
770.25	0.723
770.43	0.703
770.61	0.723
770.79	0.726
770.97	0.735
771.15	0.709
771.33	0.709
771.51	0.712
771.69	0.722
771.87	0.731
772.05	0.736
772.24	0.741
772.42	0.750
772.60	0.731
772.78	0.786
772.96	0.809
773.14	0.807
773.32	0.790
773.49	0.797
773.67	0.797
773.85	0.780
774.03	0.768
774.21	0.797
774.39	0.801
774.57	0.821
774.75	0.756
774.93	0.749
775.11	0.765
775.29	0.771
775.47	0.773
775.65	0.779
775.83	0.791
776.01	0.811
776.19	0.772
776.37	0.775
776.55	0.775
776.73	0.774
776.91	0.771
777.09	0.757
777.27	0.756
777.45	0.746
777.63	0.729
777.81	0.727
777.99	0.715
778.17	0.717
778.35	0.700
778.53	0.690
778.71	0.694
778.89	0.684
779.07	0.674
779.24	0.676
779.42	0.675
779.60	0.691
779.78	0.686
779.96	0.690
780.14	0.695
780.32	0.716
780.50	0.700
780.68	0.699
780.86	0.690
781.04	0.708
781.22	0.714
781.40	0.723
781.58	0.713
781.75	0.708
781.93	0.692
782.11	0.692
782.29	0.675
782.47	0.676
782.65	0.668
782.83	0.691
783.01	0.684
783.19	0.677
783.37	0.665
783.55	0.669
783.72	0.684
783.90	0.694
784.08	0.688
784.26	0.700
784.44	0.717
784.62	0.716
784.80	0.690
784.98	0.694
785.16	0.700
785.33	0.714
785.51	0.702
785.69	0.689
785.87	0.687
786.05	0.700
786.23	0.698
786.41	0.695
786.59	0.702
786.77	0.702
786.94	0.690
787.12	0.693
787.30	0.693
787.48	0.691
787.66	0.683
787.84	0.684
788.02	0.672
788.19	0.669
788.37	0.660
788.55	0.660
788.73	0.660
788.91	0.657
789.09	0.643
789.27	0.633
789.44	0.641
789.62	0.647
789.80	0.655
789.98	0.676
790.16	0.663
790.34	0.661
790.51	0.651
790.69	0.668
790.87	0.671
791.05	0.669
791.23	0.664
791.41	0.666
791.58	0.672
791.76	0.654
791.94	0.628
792.12	0.635
792.30	0.636
792.48	0.633
792.65	0.628
792.83	0.635
793.01	0.640
793.19	0.636
793.37	0.623
793.54	0.619
793.72	0.629
793.90	0.628
794.08	0.620
794.26	0.620
794.43	0.627
794.61	0.612
794.79	0.602
794.97	0.600
795.15	0.605
795.32	0.607
795.50	0.598
795.68	0.592
795.86	0.594
796.04	0.596
796.21	0.592
796.39	0.591
796.57	0.602
796.75	0.608
796.92	0.611
797.10	0.616
797.28	0.618
797.46	0.623
797.64	0.626
797.81	0.634
797.99	0.637
798.17	0.640
798.35	0.636
798.52	0.639
798.70	0.635
798.88	0.639
799.06	0.640
799.23	0.644
799.41	0.648
799.59	0.641
799.77	0.631
799.94	0.638
800.12	0.645
800.30	0.660
800.48	0.661
800.65	0.661
800.83	0.652
801.01	0.645
801.19	0.642
801.36	0.639
801.54	0.640
801.72	0.650
801.90	0.640
802.07	0.635
802.25	0.623
802.43	0.608
802.60	0.606
802.78	0.614
802.96	0.617
803.14	0.612
803.31	0.612
803.49	0.613
803.67	0.607
803.84	0.611
804.02	0.604
804.20	0.606
804.38	0.610
804.55	0.610
804.73	0.597
804.91	0.598
805.08	0.610
805.26	0.606
805.44	0.668
805.61	0.671
805.79	0.668
805.97	0.668
806.15	0.662
806.32	0.658
806.50	0.662
806.68	0.662
806.85	0.656
807.03	0.646
807.21	0.662
807.38	0.598
807.56	0.590
807.74	0.600
807.91	0.605
808.09	0.606
808.27	0.623
808.44	0.645
808.62	0.651
808.80	0.653
808.97	0.649
809.15	0.642
809.33	0.657
809.50	0.664
809.68	0.653
809.86	0.662
810.03	0.689
810.21	0.672
810.39	0.658
810.56	0.665
810.74	0.684
810.91	0.752
811.09	0.744
811.27	0.764
811.44	0.766
811.62	0.768
811.80	0.754
811.97	0.729
812.15	0.726
812.33	0.722
812.50	0.709
812.68	0.700
812.85	0.644
813.03	0.648
813.21	0.619
813.38	0.615
813.56	0.616
813.74	0.625
813.91	0.631
814.09	0.658
814.26	0.651
814.44	0.655
814.62	0.644
814.79	0.650
814.97	0.650
815.14	0.653
815.32	0.660
815.50	0.676
815.67	0.678
815.85	0.670
816.02	0.660
816.20	0.666
816.38	0.678
816.55	0.683
816.73	0.681
816.90	0.692
817.08	0.720
817.26	0.720
817.43	0.701
817.61	0.723
817.78	0.737
817.96	0.719
818.13	0.712
818.31	0.709
818.49	0.719
818.66	0.713
818.84	0.701
819.01	0.680
819.19	0.684
819.36	0.685
819.54	0.660
819.71	0.700
819.89	0.709
820.07	0.721
820.24	0.719
820.42	0.720
820.59	0.736
820.77	0.758
820.94	0.753
821.12	0.768
821.29	0.784
821.47	0.781
821.64	0.723
821.82	0.736
822.00	0.735
822.17	0.736
822.35	0.731
822.52	0.732
822.70	0.721
822.87	0.729
823.05	0.715
823.22	0.725
823.40	0.750
823.57	0.774
823.75	0.759
823.92	0.779
824.10	0.793
824.27	0.829
824.45	0.819
824.62	0.875
824.80	0.889
824.97	0.896
825.15	0.889
825.32	0.900
825.50	0.896
825.67	0.902
825.85	0.883
826.02	0.893
826.20	0.905
826.37	1.014
826.55	0.945
826.72	1.096
826.90	1.149
827.07	1.184
827.25	1.136
827.42	1.252
827.60	1.351
827.77	1.476
827.95	1.462
828.12	1.553
828.30	1.302
828.47	1.405
828.65	1.125
828.82	1.161
829.00	1.184
829.17	1.263
829.34	1.263
829.52	1.284
829.69	-0.000
829.87	-0.000
830.04	-0.000
830.22	-0.000
830.39	-0.000
830.57	-0.000
830.74	-0.000
830.92	-0.000
831.09	-0.000
831.26	-0.000
831.44	-0.000
831.61	-0.000
831.79	-0.000
831.96	-0.000
832.14	-0.000
832.31	-0.000
832.49	-0.000
832.66	-0.000
832.83	-0.000
833.01	-0.000
833.18	-0.000
833.36	-0.000
833.53	-0.000
833.70	-0.000
833.88	-0.000
834.05	-0.000
834.23	-0.000
834.40	-0.000
834.58	-0.000
834.75	-0.000
834.92	-0.000
835.10	-0.000
835.27	-0.000
835.45	-0.000
835.62	-0.000
835.79	-0.000
835.97	-0.000
836.14	-0.000
836.32	-0.000
836.49	-0.000
836.66	-0.000
836.84	-0.000
837.01	-0.000
837.18	-0.000
837.36	-0.000
837.53	-0.000
837.71	-0.000
837.88	-0.000
838.05	-0.000
838.23	-0.000
838.40	-0.000
838.58	-0.000
838.75	-0.000
838.92	-0.000
839.10	-0.000
839.27	-0.000
839.44	-0.000
839.62	-0.000
839.79	-0.000
839.96	-0.000
840.14	-0.000
840.31	-0.000
840.48	-0.000
840.66	-0.000
840.83	-0.000
841.01	-0.000
841.18	-0.000
841.35	-0.000
841.53	-0.000
841.70	-0.000
841.87	-0.000
842.05	-0.000
842.22	-0.000
842.39	-0.000
842.57	-0.000
842.74	-0.000
842.91	-0.000
843.09	-0.000
843.26	-0.000
843.43	-0.000
843.60	-0.000
843.78	-0.000
843.95	-0.000
844.12	-0.000
844.30	-0.000
844.47	-0.000
844.64	-0.000
844.82	-0.000
844.99	-0.000
845.16	-0.000
845.34	-0.000
845.51	-0.000
845.68	-0.000
845.85	-0.000
846.03	-0.000
846.20	-0.000
846.37	-0.000
846.55	-0.000
846.72	-0.000
846.89	-0.000
847.06	-0.000
847.24	-0.000
847.41	-0.000
847.58	-0.000
847.76	-0.000
847.93	-0.000
848.10	-0.000
848.27	-0.000
848.45	-0.000
848.62	-0.000
848.79	-0.000
848.97	-0.000
849.14	-0.000
849.31	-0.000
849.48	-0.000
849.66	-0.000
849.83	-0.000
850.00	-0.000
850.17	-0.000
850.35	-0.000
850.52	-0.000
850.69	-0.000
850.86	-0.000
851.04	-0.000
851.21	-0.000
851.38	-0.000
851.55	-0.000
851.72	-0.000
851.90	-0.000
852.07	-0.000
852.24	-0.000
852.41	-0.000
852.59	-0.000
852.76	-0.000
852.93	-0.000
853.10	-0.000
853.28	-0.000
853.45	-0.000
853.62	-0.000
853.79	-0.000
853.96	-0.000
854.14	-0.000
854.31	-0.000
854.48	-0.000
854.65	-0.000
854.82	-0.000
855.00	-0.000
855.17	-0.000
855.34	-0.000
855.51	-0.000
855.68	-0.000
855.86	-0.000
856.03	-0.000
856.20	-0.000
856.37	-0.000
856.54	-0.000
856.72	-0.000
856.89	-0.000
857.06	-0.000
857.23	-0.000
857.40	-0.000
857.57	-0.000
857.75	-0.000
857.92	-0.000
858.09	-0.000
858.26	-0.000
858.43	-0.000
858.60	-0.000
858.78	-0.000
858.95	-0.000
859.12	-0.000
859.29	-0.000
859.46	-0.000
859.63	-0.000
859.81	-0.000
859.98	-0.000
860.15	-0.000
860.32	-0.000
860.49	-0.000
860.66	-0.000
860.83	-0.000
861.01	-0.000
861.18	-0.000
861.35	-0.000
861.52	-0.000
861.69	-0.000
861.86	-0.000
862.03	-0.000
862.21	-0.000
862.38	-0.000
862.55	-0.000
862.72	-0.000
862.89	-0.000
863.06	-0.000
863.23	-0.000
863.40	-0.000
863.58	-0.000
863.75	-0.000
863.92	-0.000
864.09	-0.000
864.26	-0.000
864.43	-0.000
864.60	-0.000
864.77	-0.000
864.94	-0.000
865.11	-0.000
865.29	-0.000
865.46	-0.000
865.63	-0.000
865.80	-0.000
865.97	-0.000
866.14	-0.000
866.31	-0.000
866.48	-0.000
866.65	-0.000
866.82	-0.000
866.99	-0.000
867.16	-0.000
867.34	-0.000
867.51	-0.000
867.68	-0.000
867.85	-0.000
868.02	-0.000
868.19	-0.000
868.36	-0.000
868.53	-0.000
868.70	-0.000
868.87	-0.000
869.04	-0.000
869.21	-0.000
869.38	-0.000
869.55	-0.000
869.72	-0.000
869.89	-0.000
870.06	-0.000
870.24	-0.000
870.41	-0.000
870.58	-0.000
870.75	-0.000
870.92	-0.000
871.09	-0.000
871.26	-0.000
871.43	-0.000
871.60	-0.000
871.77	-0.000
871.94	-0.000
872.11	-0.000
872.28	-0.000
872.45	-0.000
872.62	-0.000
872.79	-0.000
872.96	-0.000
873.13	-0.000
873.30	-0.000
873.47	-0.000
873.64	-0.000
873.81	-0.000
873.98	-0.000
874.15	-0.000
874.32	-0.000
874.49	-0.000
874.66	-0.000
874.83	-0.000
875.00	-0.000
875.17	-0.000
875.34	-0.000
875.51	-0.000
875.68	-0.000
875.85	-0.000
876.02	-0.000
876.19	-0.000
876.36	-0.000
876.53	-0.000
876.70	-0.000
876.87	-0.000
877.04	-0.000
877.21	-0.000
877.38	-0.000
877.55	-0.000
877.72	-0.000
877.89	-0.000
878.06	-0.000
878.23	-0.000
878.39	-0.000
878.56	-0.000
878.73	-0.000
878.90	-0.000
879.07	-0.000
879.24	-0.000
879.41	-0.000
879.58	-0.000
879.75	-0.000
879.92	-0.000
880.09	-0.000
880.26	-0.000
880.43	-0.000
880.60	-0.000
880.77	-0.000
880.94	-0.000
881.11	-0.000
881.27	-0.000
881.44	-0.000
881.61	-0.000
881.78	-0.000
881.95	-0.000
882.12	-0.000
882.29	-0.000
882.46	-0.000
882.63	-0.000
882.80	-0.000
882.97	-0.000
883.14	-0.000
883.30	-0.000
883.47	-0.000
883.64	-0.000
883.81	-0.000
883.98	-0.000
884.15	-0.000
884.32	-0.000
884.49	-0.000
884.66	-0.000
884.82	-0.000
884.99	-0.000
885.16	-0.000
885.33	-0.000
885.50	-0.000
885.67	-0.000
885.84	-0.000
886.01	-0.000
886.17	-0.000
886.34	-0.000
886.51	-0.000
886.68	-0.000
886.85	-0.000
887.02	-0.000
887.19	-0.000
887.36	-0.000
887.52	-0.000
887.69	-0.000
887.86	-0.000
888.03	-0.000
888.20	-0.000
888.37	-0.000
888.54	-0.000
888.70	-0.000
888.87	-0.000
889.04	-0.000
889.21	-0.000
889.38	-0.000
889.55	-0.000
889.71	-0.000
889.88	-0.000
890.05	-0.000
890.22	-0.000
890.39	-0.000
>>>>>End Processed Spectral Data<<<<<
