SpectraSuite Data File
++++++++++++++++++++++++++++++++++++
Date: Fri Jun 19 14:13:36 CEST 2015
User: introlabs
Dark Spectrum Present: Yes
Reference Spectrum Present: Yes
Number of Sampled Component Spectra: 1
Spectrometers: USB4H08886
Integration Time (usec): 745692 (USB4H08886)
Spectra Averaged: 5 (USB4H08886)
Boxcar Smoothing: 5 (USB4H08886)
Correct for Electrical Dark: Yes (USB4H08886)
Strobe/Lamp Enabled: No (USB4H08886)
Correct for Detector Non-linearity: Yes (USB4H08886)
Correct for Stray Light: Yes (USB4H08886)
Number of Pixels in Processed Spectrum: 3648
>>>>>Begin Processed Spectral Data<<<<<
178.14	-0.000
178.36	-0.000
178.57	-0.000
178.79	-0.000
179.01	-0.000
179.22	-0.000
179.44	-0.000
179.65	-0.000
179.87	-0.000
180.08	-0.000
180.30	-0.000
180.52	-0.000
180.73	-0.000
180.95	-0.000
181.16	-0.000
181.38	-0.000
181.59	-0.000
181.81	-0.000
182.03	-0.000
182.24	-0.000
182.46	-0.000
182.67	-0.000
182.89	-0.000
183.10	-0.000
183.32	-0.000
183.54	-0.000
183.75	-0.000
183.97	-0.000
184.18	-0.000
184.40	-0.000
184.61	-0.000
184.83	-0.000
185.04	-0.000
185.26	-0.000
185.48	-0.000
185.69	-0.000
185.91	-0.000
186.12	-0.000
186.34	-0.000
186.55	-0.000
186.77	-0.000
186.98	-0.000
187.20	-0.000
187.42	-0.000
187.63	-0.000
187.85	-0.000
188.06	-0.000
188.28	-0.000
188.49	-0.000
188.71	-0.000
188.92	-0.000
189.14	-0.000
189.36	-0.000
189.57	-0.000
189.79	-0.000
190.00	-0.000
190.22	-0.000
190.43	-0.000
190.65	-0.000
190.86	-0.000
191.08	-0.000
191.29	-0.000
191.51	-0.000
191.72	-0.000
191.94	-0.000
192.16	-0.000
192.37	-0.000
192.59	-0.000
192.80	-0.000
193.02	-0.000
193.23	-0.000
193.45	-0.000
193.66	-0.000
193.88	-0.000
194.09	-0.000
194.31	-0.000
194.52	-0.000
194.74	-0.000
194.95	-0.000
195.17	-0.000
195.38	-0.000
195.60	-0.000
195.81	-0.000
196.03	-0.000
196.25	-0.000
196.46	-0.000
196.68	-0.000
196.89	-0.000
197.11	-0.000
197.32	-0.000
197.54	-0.000
197.75	-0.000
197.97	-0.000
198.18	-0.000
198.40	-0.000
198.61	-0.000
198.83	-0.000
199.04	-0.000
199.26	-0.000
199.47	-0.000
199.69	-0.000
199.90	-0.000
200.12	-0.000
200.33	-0.000
200.55	-0.000
200.76	-0.000
200.98	-0.000
201.19	-0.000
201.41	-0.000
201.62	-0.000
201.84	-0.000
202.05	-0.000
202.27	-0.000
202.48	-0.000
202.70	-0.000
202.91	-0.000
203.13	-0.000
203.34	-0.000
203.56	-0.000
203.77	-0.000
203.99	-0.000
204.20	-0.000
204.42	-0.000
204.63	-0.000
204.85	-0.000
205.06	-0.000
205.28	-0.000
205.49	-0.000
205.71	-0.000
205.92	-0.000
206.14	-0.000
206.35	-0.000
206.56	-0.000
206.78	-0.000
206.99	-0.000
207.21	-0.000
207.42	-0.000
207.64	-0.000
207.85	-0.000
208.07	-0.000
208.28	-0.000
208.50	-0.000
208.71	-0.000
208.93	-0.000
209.14	-0.000
209.36	-0.000
209.57	-0.000
209.79	-0.000
210.00	-0.000
210.22	-0.000
210.43	-0.000
210.64	-0.000
210.86	-0.000
211.07	-0.000
211.29	-0.000
211.50	-0.000
211.72	-0.000
211.93	-0.000
212.15	-0.000
212.36	-0.000
212.58	-0.000
212.79	-0.000
213.01	-0.000
213.22	-0.000
213.43	-0.000
213.65	-0.000
213.86	-0.000
214.08	-0.000
214.29	-0.000
214.51	-0.000
214.72	-0.000
214.94	-0.000
215.15	-0.000
215.36	-0.000
215.58	-0.000
215.79	-0.000
216.01	-0.000
216.22	-0.000
216.44	-0.000
216.65	-0.000
216.87	-0.000
217.08	-0.000
217.29	-0.000
217.51	-0.000
217.72	-0.000
217.94	-0.000
218.15	-0.000
218.37	-0.000
218.58	-0.000
218.80	-0.000
219.01	-0.000
219.22	-0.000
219.44	-0.000
219.65	-0.000
219.87	-0.000
220.08	-0.000
220.30	-0.000
220.51	-0.000
220.72	-0.000
220.94	-0.000
221.15	-0.000
221.37	-0.000
221.58	-0.000
221.79	-0.000
222.01	-0.000
222.22	-0.000
222.44	-0.000
222.65	-0.000
222.87	-0.000
223.08	-0.000
223.29	-0.000
223.51	-0.000
223.72	-0.000
223.94	-0.000
224.15	-0.000
224.36	-0.000
224.58	-0.000
224.79	-0.000
225.01	-0.000
225.22	-0.000
225.44	-0.000
225.65	-0.000
225.86	-0.000
226.08	-0.000
226.29	-0.000
226.51	-0.000
226.72	-0.000
226.93	-0.000
227.15	-0.000
227.36	-0.000
227.58	-0.000
227.79	-0.000
228.00	-0.000
228.22	-0.000
228.43	-0.000
228.65	-0.000
228.86	-0.000
229.07	-0.000
229.29	-0.000
229.50	-0.000
229.72	-0.000
229.93	-0.000
230.14	-0.000
230.36	-0.000
230.57	-0.000
230.78	-0.000
231.00	-0.000
231.21	-0.000
231.43	-0.000
231.64	-0.000
231.85	-0.000
232.07	-0.000
232.28	-0.000
232.50	-0.000
232.71	-0.000
232.92	-0.000
233.14	-0.000
233.35	-0.000
233.56	-0.000
233.78	-0.000
233.99	-0.000
234.21	-0.000
234.42	-0.000
234.63	-0.000
234.85	-0.000
235.06	-0.000
235.27	-0.000
235.49	-0.000
235.70	-0.000
235.91	-0.000
236.13	-0.000
236.34	-0.000
236.56	-0.000
236.77	-0.000
236.98	-0.000
237.20	-0.000
237.41	-0.000
237.62	-0.000
237.84	-0.000
238.05	-0.000
238.26	-0.000
238.48	-0.000
238.69	-0.000
238.91	-0.000
239.12	-0.000
239.33	-0.000
239.55	-0.000
239.76	-0.000
239.97	-0.000
240.19	-0.000
240.40	-0.000
240.61	-0.000
240.83	-0.000
241.04	-0.000
241.25	-0.000
241.47	-0.000
241.68	-0.000
241.89	-0.000
242.11	-0.000
242.32	-0.000
242.53	-0.000
242.75	-0.000
242.96	-0.000
243.17	-0.000
243.39	-0.000
243.60	-0.000
243.81	-0.000
244.03	-0.000
244.24	-0.000
244.45	-0.000
244.67	-0.000
244.88	-0.000
245.09	-0.000
245.31	-0.000
245.52	-0.000
245.73	-0.000
245.95	-0.000
246.16	-0.000
246.37	-0.000
246.59	-0.000
246.80	-0.000
247.01	-0.000
247.23	-0.000
247.44	-0.000
247.65	-0.000
247.87	-0.000
248.08	-0.000
248.29	-0.000
248.51	-0.000
248.72	-0.000
248.93	-0.000
249.15	-0.000
249.36	-0.000
249.57	-0.000
249.78	-0.000
250.00	-0.000
250.21	-0.000
250.42	-0.000
250.64	-0.000
250.85	-0.000
251.06	-0.000
251.28	-0.000
251.49	-0.000
251.70	-0.000
251.92	-0.000
252.13	-0.000
252.34	-0.000
252.55	-0.000
252.77	-0.000
252.98	-0.000
253.19	-0.000
253.41	-0.000
253.62	-0.000
253.83	-0.000
254.05	-0.000
254.26	-0.000
254.47	-0.000
254.68	-0.000
254.90	-0.000
255.11	-0.000
255.32	-0.000
255.54	-0.000
255.75	-0.000
255.96	-0.000
256.17	-0.000
256.39	-0.000
256.60	-0.000
256.81	-0.000
257.03	-0.000
257.24	-0.000
257.45	-0.000
257.66	-0.000
257.88	-0.000
258.09	-0.000
258.30	-0.000
258.51	-0.000
258.73	-0.000
258.94	-0.000
259.15	-0.000
259.37	-0.000
259.58	-0.000
259.79	-0.000
260.00	-0.000
260.22	-0.000
260.43	-0.000
260.64	-0.000
260.85	-0.000
261.07	-0.000
261.28	-0.000
261.49	-0.000
261.71	-0.000
261.92	-0.000
262.13	-0.000
262.34	-0.000
262.56	-0.000
262.77	-0.000
262.98	-0.000
263.19	-0.000
263.41	-0.000
263.62	-0.000
263.83	-0.000
264.04	-0.000
264.26	-0.000
264.47	-0.000
264.68	-0.000
264.89	-0.000
265.11	-0.000
265.32	-0.000
265.53	-0.000
265.74	-0.000
265.96	-0.000
266.17	-0.000
266.38	-0.000
266.59	-0.000
266.81	-0.000
267.02	-0.000
267.23	-0.000
267.44	-0.000
267.65	-0.000
267.87	-0.000
268.08	-0.000
268.29	-0.000
268.50	-0.000
268.72	-0.000
268.93	-0.000
269.14	-0.000
269.35	-0.000
269.57	-0.000
269.78	-0.000
269.99	-0.000
270.20	-0.000
270.41	-0.000
270.63	-0.000
270.84	-0.000
271.05	-0.000
271.26	-0.000
271.48	-0.000
271.69	-0.000
271.90	-0.000
272.11	-0.000
272.32	-0.000
272.54	-0.000
272.75	-0.000
272.96	-0.000
273.17	-0.000
273.39	-0.000
273.60	-0.000
273.81	-0.000
274.02	-0.000
274.23	-0.000
274.45	-0.000
274.66	-0.000
274.87	-0.000
275.08	-0.000
275.29	-0.000
275.51	-0.000
275.72	-0.000
275.93	-0.000
276.14	-0.000
276.35	-0.000
276.57	-0.000
276.78	-0.000
276.99	-0.000
277.20	-0.000
277.41	-0.000
277.63	-0.000
277.84	-0.000
278.05	-0.000
278.26	-0.000
278.47	-0.000
278.69	-0.000
278.90	-0.000
279.11	-0.000
279.32	-0.000
279.53	-0.000
279.74	-0.000
279.96	-0.000
280.17	-0.000
280.38	-0.000
280.59	-0.000
280.80	-0.000
281.02	-0.000
281.23	-0.000
281.44	-0.000
281.65	-0.000
281.86	-0.000
282.07	-0.000
282.29	-0.000
282.50	-0.000
282.71	-0.000
282.92	-0.000
283.13	-0.000
283.35	-0.000
283.56	-0.000
283.77	-0.000
283.98	-0.000
284.19	-0.000
284.40	-0.000
284.62	-0.000
284.83	-0.000
285.04	-0.000
285.25	-0.000
285.46	-0.000
285.67	-0.000
285.88	-0.000
286.10	-0.000
286.31	-0.000
286.52	-0.000
286.73	-0.000
286.94	-0.000
287.15	-0.000
287.37	-0.000
287.58	-0.000
287.79	-0.000
288.00	-0.000
288.21	-0.000
288.42	-0.000
288.63	-0.000
288.85	-0.000
289.06	-0.000
289.27	-0.000
289.48	-0.000
289.69	-0.000
289.90	-0.000
290.11	-0.000
290.33	-0.000
290.54	-0.000
290.75	-0.000
290.96	-0.000
291.17	-0.000
291.38	-0.000
291.59	-0.000
291.81	-0.000
292.02	-0.000
292.23	-0.000
292.44	-0.000
292.65	-0.000
292.86	-0.000
293.07	-0.000
293.28	2.630
293.50	-0.000
293.71	-0.000
293.92	-0.000
294.13	-0.000
294.34	-0.000
294.55	-0.000
294.76	-0.000
294.97	-0.000
295.19	-0.000
295.40	-0.000
295.61	-0.000
295.82	-0.000
296.03	2.416
296.24	2.689
296.45	1.903
296.66	1.645
296.87	1.650
297.09	1.721
297.30	1.871
297.51	1.598
297.72	1.571
297.93	1.651
298.14	1.630
298.35	1.596
298.56	1.575
298.77	1.680
298.99	1.655
299.20	1.641
299.41	1.615
299.62	1.585
299.83	1.577
300.04	1.518
300.25	1.511
300.46	1.546
300.67	1.523
300.88	1.471
301.10	1.471
301.31	1.539
301.52	1.486
301.73	1.436
301.94	1.434
302.15	1.445
302.36	1.403
302.57	1.345
302.78	1.351
302.99	1.388
303.20	1.407
303.41	1.334
303.63	1.313
303.84	1.322
304.05	1.318
304.26	1.266
304.47	1.274
304.68	1.280
304.89	1.273
305.10	1.234
305.31	1.223
305.52	1.261
305.73	1.254
305.94	1.222
306.15	1.212
306.37	1.233
306.58	1.242
306.79	1.214
307.00	1.233
307.21	1.272
307.42	1.267
307.63	1.234
307.84	1.203
308.05	1.238
308.26	1.238
308.47	1.217
308.68	1.213
308.89	1.211
309.10	1.207
309.31	1.170
309.52	1.162
309.73	1.175
309.95	1.169
310.16	1.143
310.37	1.134
310.58	1.150
310.79	1.149
311.00	1.142
311.21	1.145
311.42	1.147
311.63	1.141
311.84	1.124
312.05	1.122
312.26	1.144
312.47	1.154
312.68	1.129
312.89	1.113
313.10	1.119
313.31	1.094
313.52	1.095
313.73	1.097
313.94	1.102
314.15	1.085
314.36	1.065
314.57	1.061
314.78	1.049
314.99	1.044
315.21	1.033
315.42	1.038
315.63	1.052
315.84	1.031
316.05	1.018
316.26	1.025
316.47	1.043
316.68	1.040
316.89	1.019
317.10	1.039
317.31	1.045
317.52	1.046
317.73	1.027
317.94	1.025
318.15	1.065
318.36	1.065
318.57	1.045
318.78	1.033
318.99	1.065
319.20	1.063
319.41	1.031
319.62	1.032
319.83	1.047
320.04	1.041
320.25	1.029
320.46	0.998
320.67	0.999
320.88	0.996
321.09	0.985
321.30	0.970
321.51	0.984
321.72	0.982
321.93	0.966
322.14	0.959
322.35	0.984
322.56	0.986
322.77	0.975
322.98	0.988
323.19	0.998
323.40	1.005
323.61	0.984
323.82	0.980
324.03	0.987
324.24	0.986
324.45	0.973
324.66	0.955
324.87	0.953
325.08	0.953
325.29	0.934
325.50	0.927
325.71	0.930
325.92	0.938
326.13	0.925
326.34	0.925
326.55	0.933
326.76	0.931
326.97	0.921
327.18	0.915
327.39	0.939
327.60	0.940
327.80	0.939
328.01	0.939
328.22	0.939
328.43	0.943
328.64	0.930
328.85	0.935
329.06	0.938
329.27	0.936
329.48	0.933
329.69	0.915
329.90	0.926
330.11	0.920
330.32	0.913
330.53	0.907
330.74	0.908
330.95	0.907
331.16	0.892
331.37	0.901
331.58	0.903
331.79	0.902
332.00	0.892
332.21	0.884
332.42	0.887
332.63	0.877
332.83	0.872
333.04	0.874
333.25	0.886
333.46	0.884
333.67	0.868
333.88	0.870
334.09	0.880
334.30	0.877
334.51	0.869
334.72	0.865
334.93	0.870
335.14	0.869
335.35	0.862
335.56	0.858
335.77	0.866
335.98	0.866
336.18	0.859
336.39	0.852
336.60	0.857
336.81	0.856
337.02	0.855
337.23	0.860
337.44	0.863
337.65	0.864
337.86	0.854
338.07	0.850
338.28	0.856
338.49	0.854
338.70	0.846
338.91	0.851
339.11	0.857
339.32	0.852
339.53	0.840
339.74	0.838
339.95	0.836
340.16	0.833
340.37	0.825
340.58	0.822
340.79	0.827
341.00	0.827
341.21	0.817
341.41	0.819
341.62	0.822
341.83	0.823
342.04	0.817
342.25	0.827
342.46	0.833
342.67	0.831
342.88	0.825
343.09	0.824
343.30	0.832
343.50	0.833
343.71	0.822
343.92	0.821
344.13	0.824
344.34	0.825
344.55	0.809
344.76	0.807
344.97	0.813
345.18	0.811
345.38	0.808
345.59	0.804
345.80	0.804
346.01	0.803
346.22	0.799
346.43	0.793
346.64	0.801
346.85	0.801
347.06	0.794
347.26	0.795
347.47	0.800
347.68	0.794
347.89	0.790
348.10	0.785
348.31	0.792
348.52	0.791
348.73	0.789
348.93	0.786
349.14	0.789
349.35	0.789
349.56	0.782
349.77	0.777
349.98	0.784
350.19	0.781
350.39	0.776
350.60	0.771
350.81	0.787
351.02	0.786
351.23	0.781
351.44	0.782
351.65	0.785
351.86	0.783
352.06	0.781
352.27	0.782
352.48	0.783
352.69	0.783
352.90	0.778
353.11	0.765
353.31	0.772
353.52	0.768
353.73	0.761
353.94	0.762
354.15	0.767
354.36	0.768
354.57	0.759
354.77	0.763
354.98	0.763
355.19	0.762
355.40	0.761
355.61	0.767
355.82	0.772
356.02	0.771
356.23	0.765
356.44	0.767
356.65	0.769
356.86	0.768
357.07	0.761
357.27	0.764
357.48	0.766
357.69	0.762
357.90	0.746
358.11	0.744
358.32	0.748
358.52	0.750
358.73	0.740
358.94	0.743
359.15	0.748
359.36	0.749
359.56	0.744
359.77	0.741
359.98	0.748
360.19	0.749
360.40	0.745
360.61	0.746
360.81	0.746
361.02	0.747
361.23	0.739
361.44	0.738
361.65	0.738
361.85	0.738
362.06	0.736
362.27	0.737
362.48	0.737
362.69	0.740
362.89	0.734
363.10	0.736
363.31	0.741
363.52	0.744
363.73	0.738
363.93	0.739
364.14	0.740
364.35	0.742
364.56	0.732
364.77	0.734
364.97	0.737
365.18	0.737
365.39	0.731
365.60	0.728
365.81	0.729
366.01	0.729
366.22	0.727
366.43	0.726
366.64	0.728
366.84	0.734
367.05	0.730
367.26	0.729
367.47	0.730
367.68	0.730
367.88	0.727
368.09	0.725
368.30	0.727
368.51	0.726
368.71	0.725
368.92	0.728
369.13	0.727
369.34	0.727
369.55	0.726
369.75	0.726
369.96	0.733
370.17	0.733
370.38	0.729
370.58	0.730
370.79	0.735
371.00	0.733
371.21	0.725
371.41	0.730
371.62	0.733
371.83	0.729
372.04	0.727
372.24	0.720
372.45	0.722
372.66	0.723
372.87	0.719
373.07	0.715
373.28	0.717
373.49	0.720
373.70	0.711
373.90	0.710
374.11	0.720
374.32	0.718
374.53	0.717
374.73	0.717
374.94	0.721
375.15	0.721
375.36	0.719
375.56	0.728
375.77	0.728
375.98	0.728
376.19	0.726
376.39	0.719
376.60	0.724
376.81	0.724
377.02	0.721
377.22	0.720
377.43	0.720
377.64	0.719
377.84	0.710
378.05	0.715
378.26	0.721
378.47	0.720
378.67	0.716
378.88	0.713
379.09	0.714
379.30	0.715
379.50	0.712
379.71	0.715
379.92	0.717
380.12	0.716
380.33	0.708
380.54	0.705
380.75	0.711
380.95	0.712
381.16	0.710
381.37	0.710
381.57	0.711
381.78	0.712
381.99	0.712
382.20	0.711
382.40	0.714
382.61	0.714
382.82	0.710
383.02	0.703
383.23	0.707
383.44	0.706
383.64	0.704
383.85	0.707
384.06	0.710
384.27	0.708
384.47	0.707
384.68	0.707
384.89	0.713
385.09	0.712
385.30	0.712
385.51	0.711
385.71	0.714
385.92	0.714
386.13	0.713
386.33	0.715
386.54	0.716
386.75	0.714
386.95	0.710
387.16	0.706
387.37	0.709
387.58	0.708
387.78	0.706
387.99	0.704
388.20	0.706
388.40	0.703
388.61	0.699
388.82	0.701
389.02	0.704
389.23	0.703
389.44	0.703
389.64	0.702
389.85	0.713
390.06	0.713
390.26	0.714
390.47	0.713
390.68	0.716
390.88	0.714
391.09	0.711
391.30	0.710
391.50	0.711
391.71	0.710
391.92	0.709
392.12	0.701
392.33	0.702
392.53	0.701
392.74	0.701
392.95	0.701
393.15	0.704
393.36	0.706
393.57	0.704
393.77	0.706
393.98	0.708
394.19	0.708
394.39	0.707
394.60	0.708
394.81	0.710
395.01	0.709
395.22	0.707
395.43	0.707
395.63	0.711
395.84	0.713
396.04	0.709
396.25	0.711
396.46	0.712
396.66	0.710
396.87	0.707
397.08	0.704
397.28	0.706
397.49	0.707
397.69	0.703
397.90	0.699
398.11	0.700
398.31	0.700
398.52	0.697
398.73	0.698
398.93	0.698
399.14	0.697
399.34	0.697
399.55	0.699
399.76	0.699
399.96	0.701
400.17	0.699
400.37	0.698
400.58	0.705
400.79	0.706
400.99	0.704
401.20	0.709
401.41	0.711
401.61	0.711
401.82	0.716
402.02	0.715
402.23	0.716
402.44	0.715
402.64	0.715
402.85	0.710
403.05	0.709
403.26	0.707
403.47	0.701
403.67	0.701
403.88	0.702
404.08	0.697
404.29	0.694
404.50	0.694
404.70	0.695
404.91	0.694
405.11	0.691
405.32	0.692
405.52	0.692
405.73	0.692
405.94	0.690
406.14	0.692
406.35	0.694
406.55	0.694
406.76	0.692
406.97	0.693
407.17	0.695
407.38	0.695
407.58	0.693
407.79	0.695
407.99	0.697
408.20	0.698
408.41	0.694
408.61	0.692
408.82	0.693
409.02	0.693
409.23	0.690
409.43	0.689
409.64	0.691
409.84	0.691
410.05	0.688
410.26	0.687
410.46	0.686
410.67	0.685
410.87	0.687
411.08	0.689
411.28	0.690
411.49	0.692
411.69	0.689
411.90	0.691
412.11	0.692
412.31	0.693
412.52	0.691
412.72	0.692
412.93	0.693
413.13	0.693
413.34	0.689
413.54	0.690
413.75	0.692
413.95	0.691
414.16	0.688
414.37	0.691
414.57	0.691
414.78	0.694
414.98	0.692
415.19	0.693
415.39	0.690
415.60	0.693
415.80	0.692
416.01	0.690
416.21	0.692
416.42	0.693
416.62	0.687
416.83	0.688
417.03	0.687
417.24	0.687
417.44	0.685
417.65	0.684
417.86	0.685
418.06	0.683
418.27	0.681
418.47	0.683
418.68	0.683
418.88	0.684
419.09	0.683
419.29	0.683
419.50	0.684
419.70	0.683
419.91	0.682
420.11	0.679
420.32	0.682
420.52	0.681
420.73	0.680
420.93	0.680
421.14	0.682
421.34	0.680
421.55	0.677
421.75	0.677
421.96	0.678
422.16	0.678
422.37	0.677
422.57	0.674
422.78	0.676
422.98	0.673
423.19	0.670
423.39	0.669
423.60	0.673
423.80	0.674
424.01	0.673
424.21	0.676
424.42	0.677
424.62	0.677
424.83	0.676
425.03	0.676
425.23	0.678
425.44	0.678
425.64	0.678
425.85	0.677
426.05	0.678
426.26	0.678
426.46	0.674
426.67	0.673
426.87	0.679
427.08	0.680
427.28	0.677
427.49	0.678
427.69	0.679
427.90	0.678
428.10	0.675
428.31	0.675
428.51	0.677
428.71	0.676
428.92	0.677
429.12	0.674
429.33	0.675
429.53	0.679
429.74	0.682
429.94	0.682
430.15	0.682
430.35	0.682
430.56	0.679
430.76	0.678
430.96	0.679
431.17	0.676
431.37	0.673
431.58	0.670
431.78	0.668
431.99	0.661
432.19	0.663
432.40	0.665
432.60	0.666
432.80	0.668
433.01	0.666
433.21	0.666
433.42	0.668
433.62	0.669
433.83	0.669
434.03	0.671
434.23	0.673
434.44	0.672
434.64	0.670
434.85	0.675
435.05	0.676
435.26	0.677
435.46	0.675
435.66	0.675
435.87	0.675
436.07	0.675
436.28	0.671
436.48	0.668
436.69	0.668
436.89	0.667
437.09	0.661
437.30	0.660
437.50	0.661
437.71	0.673
437.91	0.671
438.11	0.672
438.32	0.676
438.52	0.677
438.73	0.676
438.93	0.674
439.13	0.675
439.34	0.679
439.54	0.677
439.75	0.676
439.95	0.667
440.15	0.671
440.36	0.669
440.56	0.667
440.77	0.668
440.97	0.668
441.17	0.667
441.38	0.668
441.58	0.665
441.79	0.664
441.99	0.662
442.19	0.662
442.40	0.660
442.60	0.660
442.81	0.658
443.01	0.658
443.21	0.658
443.42	0.657
443.62	0.656
443.82	0.657
444.03	0.658
444.23	0.658
444.44	0.658
444.64	0.657
444.84	0.658
445.05	0.657
445.25	0.655
445.45	0.656
445.66	0.658
445.86	0.657
446.06	0.658
446.27	0.657
446.47	0.660
446.68	0.658
446.88	0.657
447.08	0.656
447.29	0.658
447.49	0.658
447.69	0.658
447.90	0.656
448.10	0.661
448.30	0.658
448.51	0.659
448.71	0.657
448.91	0.659
449.12	0.658
449.32	0.659
449.52	0.658
449.73	0.662
449.93	0.661
450.14	0.661
450.34	0.660
450.54	0.663
450.75	0.660
450.95	0.660
451.15	0.660
451.36	0.662
451.56	0.659
451.76	0.658
451.97	0.654
452.17	0.655
452.37	0.653
452.58	0.650
452.78	0.649
452.98	0.652
453.19	0.651
453.39	0.652
453.59	0.651
453.79	0.652
454.00	0.652
454.20	0.651
454.40	0.652
454.61	0.654
454.81	0.655
455.01	0.653
455.22	0.654
455.42	0.656
455.62	0.654
455.83	0.654
456.03	0.656
456.23	0.657
456.44	0.658
456.64	0.657
456.84	0.657
457.04	0.658
457.25	0.656
457.45	0.653
457.65	0.652
457.86	0.653
458.06	0.651
458.26	0.647
458.47	0.646
458.67	0.647
458.87	0.647
459.07	0.645
459.28	0.647
459.48	0.649
459.68	0.649
459.89	0.648
460.09	0.647
460.29	0.649
460.49	0.650
460.70	0.649
460.90	0.649
461.10	0.649
461.31	0.649
461.51	0.646
461.71	0.647
461.91	0.649
462.12	0.649
462.32	0.648
462.52	0.649
462.72	0.652
462.93	0.653
463.13	0.651
463.33	0.652
463.53	0.654
463.74	0.654
463.94	0.649
464.14	0.649
464.35	0.650
464.55	0.651
464.75	0.649
464.95	0.646
465.16	0.648
465.36	0.647
465.56	0.646
465.76	0.644
465.97	0.645
466.17	0.646
466.37	0.644
466.57	0.645
466.78	0.645
466.98	0.645
467.18	0.643
467.38	0.642
467.59	0.644
467.79	0.645
467.99	0.645
468.19	0.646
468.39	0.649
468.60	0.650
468.80	0.648
469.00	0.650
469.20	0.651
469.41	0.651
469.61	0.651
469.81	0.651
470.01	0.650
470.22	0.651
470.42	0.649
470.62	0.646
470.82	0.648
471.02	0.647
471.23	0.645
471.43	0.645
471.63	0.648
471.83	0.648
472.04	0.646
472.24	0.645
472.44	0.650
472.64	0.649
472.84	0.648
473.05	0.647
473.25	0.650
473.45	0.649
473.65	0.646
473.85	0.647
474.06	0.648
474.26	0.647
474.46	0.649
474.66	0.645
474.86	0.646
475.07	0.646
475.27	0.645
475.47	0.642
475.67	0.643
475.87	0.645
476.08	0.641
476.28	0.642
476.48	0.644
476.68	0.642
476.88	0.640
477.09	0.641
477.29	0.643
477.49	0.643
477.69	0.642
477.89	0.642
478.09	0.642
478.30	0.644
478.50	0.642
478.70	0.642
478.90	0.642
479.10	0.644
479.31	0.646
479.51	0.644
479.71	0.645
479.91	0.645
480.11	0.644
480.31	0.643
480.52	0.643
480.72	0.642
480.92	0.641
481.12	0.640
481.32	0.638
481.52	0.635
481.72	0.636
481.93	0.639
482.13	0.640
482.33	0.640
482.53	0.637
482.73	0.638
482.93	0.639
483.14	0.639
483.34	0.638
483.54	0.639
483.74	0.638
483.94	0.637
484.14	0.633
484.34	0.632
484.55	0.633
484.75	0.633
484.95	0.632
485.15	0.631
485.35	0.632
485.55	0.632
485.75	0.629
485.96	0.630
486.16	0.632
486.36	0.631
486.56	0.630
486.76	0.630
486.96	0.631
487.16	0.630
487.36	0.628
487.57	0.628
487.77	0.629
487.97	0.630
488.17	0.628
488.37	0.627
488.57	0.628
488.77	0.628
488.97	0.627
489.18	0.626
489.38	0.628
489.58	0.628
489.78	0.627
489.98	0.626
490.18	0.626
490.38	0.627
490.58	0.626
490.78	0.627
490.98	0.629
491.19	0.629
491.39	0.629
491.59	0.628
491.79	0.631
491.99	0.631
492.19	0.631
492.39	0.634
492.59	0.634
492.79	0.636
492.99	0.635
493.20	0.635
493.40	0.635
493.60	0.636
493.80	0.635
494.00	0.632
494.20	0.633
494.40	0.632
494.60	0.630
494.80	0.634
495.00	0.633
495.20	0.631
495.40	0.630
495.61	0.632
495.81	0.632
496.01	0.635
496.21	0.636
496.41	0.635
496.61	0.636
496.81	0.635
497.01	0.630
497.21	0.630
497.41	0.631
497.61	0.630
497.81	0.627
498.01	0.628
498.21	0.626
498.41	0.624
498.61	0.623
498.82	0.624
499.02	0.627
499.22	0.627
499.42	0.626
499.62	0.628
499.82	0.629
500.02	0.630
500.22	0.629
500.42	0.631
500.62	0.632
500.82	0.633
501.02	0.631
501.22	0.631
501.42	0.631
501.62	0.633
501.82	0.632
502.02	0.633
502.22	0.632
502.42	0.634
502.62	0.631
502.82	0.631
503.02	0.632
503.22	0.631
503.42	0.629
503.63	0.629
503.83	0.627
504.03	0.626
504.23	0.625
504.43	0.625
504.63	0.626
504.83	0.626
505.03	0.625
505.23	0.627
505.43	0.628
505.63	0.629
505.83	0.628
506.03	0.630
506.23	0.632
506.43	0.633
506.63	0.632
506.83	0.630
507.03	0.632
507.23	0.633
507.43	0.630
507.63	0.631
507.83	0.631
508.03	0.632
508.23	0.631
508.43	0.630
508.63	0.631
508.83	0.632
509.03	0.633
509.23	0.632
509.43	0.633
509.63	0.634
509.83	0.632
510.03	0.635
510.23	0.636
510.43	0.638
510.63	0.638
510.83	0.637
511.03	0.639
511.23	0.636
511.43	0.635
511.63	0.637
511.83	0.640
512.03	0.640
512.22	0.637
512.42	0.637
512.62	0.637
512.82	0.637
513.02	0.636
513.22	0.636
513.42	0.638
513.62	0.641
513.82	0.639
514.02	0.637
514.22	0.638
514.42	0.638
514.62	0.638
514.82	0.638
515.02	0.640
515.22	0.643
515.42	0.642
515.62	0.644
515.82	0.643
516.02	0.644
516.22	0.644
516.42	0.646
516.62	0.647
516.82	0.648
517.01	0.646
517.21	0.646
517.41	0.650
517.61	0.650
517.81	0.645
518.01	0.645
518.21	0.645
518.41	0.643
518.61	0.642
518.81	0.642
519.01	0.643
519.21	0.644
519.41	0.642
519.61	0.636
519.81	0.639
520.00	0.639
520.20	0.639
520.40	0.642
520.60	0.644
520.80	0.643
521.00	0.643
521.20	0.644
521.40	0.649
521.60	0.650
521.80	0.648
522.00	0.649
522.20	0.652
522.39	0.651
522.59	0.648
522.79	0.650
522.99	0.652
523.19	0.650
523.39	0.648
523.59	0.646
523.79	0.649
523.99	0.652
524.19	0.651
524.38	0.649
524.58	0.651
524.78	0.651
524.98	0.649
525.18	0.651
525.38	0.652
525.58	0.653
525.78	0.650
525.98	0.649
526.18	0.649
526.37	0.649
526.57	0.650
526.77	0.651
526.97	0.651
527.17	0.651
527.37	0.648
527.57	0.650
527.77	0.652
527.96	0.652
528.16	0.650
528.36	0.651
528.56	0.653
528.76	0.650
528.96	0.648
529.16	0.649
529.36	0.653
529.55	0.652
529.75	0.649
529.95	0.650
530.15	0.652
530.35	0.654
530.55	0.652
530.75	0.653
530.94	0.654
531.14	0.655
531.34	0.653
531.54	0.651
531.74	0.654
531.94	0.658
532.13	0.656
532.33	0.657
532.53	0.656
532.73	0.656
532.93	0.654
533.13	0.655
533.33	0.654
533.52	0.655
533.72	0.658
533.92	0.656
534.12	0.655
534.32	0.654
534.52	0.653
534.71	0.654
534.91	0.657
535.11	0.658
535.31	0.656
535.51	0.659
535.71	0.661
535.90	0.658
536.10	0.659
536.30	0.661
536.50	0.662
536.70	0.663
536.89	0.661
537.09	0.660
537.29	0.662
537.49	0.663
537.69	0.661
537.89	0.661
538.08	0.661
538.28	0.659
538.48	0.660
538.68	0.661
538.88	0.662
539.07	0.663
539.27	0.661
539.47	0.660
539.67	0.660
539.87	0.662
540.06	0.659
540.26	0.660
540.46	0.662
540.66	0.659
540.86	0.658
541.05	0.658
541.25	0.659
541.45	0.659
541.65	0.657
541.84	0.659
542.04	0.659
542.24	0.661
542.44	0.660
542.64	0.661
542.83	0.664
543.03	0.664
543.23	0.661
543.43	0.661
543.62	0.663
543.82	0.663
544.02	0.662
544.22	0.662
544.42	0.665
544.61	0.665
544.81	0.662
545.01	0.661
545.21	0.663
545.40	0.664
545.60	0.662
545.80	0.665
546.00	0.666
546.19	0.665
546.39	0.664
546.59	0.662
546.79	0.664
546.98	0.664
547.18	0.663
547.38	0.664
547.58	0.666
547.77	0.667
547.97	0.663
548.17	0.664
548.37	0.665
548.56	0.665
548.76	0.664
548.96	0.665
549.16	0.668
549.35	0.668
549.55	0.665
549.75	0.665
549.95	0.669
550.14	0.669
550.34	0.667
550.54	0.672
550.73	0.676
550.93	0.677
551.13	0.673
551.33	0.671
551.52	0.673
551.72	0.674
551.92	0.672
552.12	0.672
552.31	0.672
552.51	0.673
552.71	0.668
552.90	0.667
553.10	0.668
553.30	0.668
553.50	0.668
553.69	0.669
553.89	0.670
554.09	0.671
554.28	0.667
554.48	0.669
554.68	0.671
554.87	0.671
555.07	0.668
555.27	0.669
555.47	0.671
555.66	0.671
555.86	0.669
556.06	0.671
556.25	0.672
556.45	0.680
556.65	0.678
556.84	0.681
557.04	0.684
557.24	0.686
557.43	0.685
557.63	0.687
557.83	0.689
558.02	0.689
558.22	0.693
558.42	0.694
558.61	0.686
558.81	0.687
559.01	0.683
559.21	0.682
559.40	0.683
559.60	0.684
559.80	0.680
559.99	0.681
560.19	0.683
560.39	0.677
560.58	0.675
560.78	0.675
560.97	0.679
561.17	0.678
561.37	0.676
561.56	0.677
561.76	0.678
561.96	0.678
562.15	0.676
562.35	0.678
562.55	0.680
562.74	0.680
562.94	0.679
563.14	0.677
563.33	0.677
563.53	0.677
563.73	0.675
563.92	0.676
564.12	0.679
564.31	0.681
564.51	0.679
564.71	0.680
564.90	0.683
565.10	0.684
565.30	0.687
565.49	0.688
565.69	0.690
565.89	0.691
566.08	0.688
566.28	0.689
566.47	0.691
566.67	0.689
566.87	0.686
567.06	0.688
567.26	0.695
567.46	0.690
567.65	0.689
567.85	0.690
568.04	0.693
568.24	0.692
568.44	0.689
568.63	0.687
568.83	0.689
569.02	0.687
569.22	0.682
569.42	0.678
569.61	0.681
569.81	0.679
570.00	0.677
570.20	0.678
570.40	0.680
570.59	0.680
570.79	0.678
570.98	0.676
571.18	0.678
571.38	0.677
571.57	0.674
571.77	0.673
571.96	0.676
572.16	0.674
572.35	0.669
572.55	0.670
572.75	0.668
572.94	0.668
573.14	0.667
573.33	0.667
573.53	0.667
573.73	0.667
573.92	0.664
574.12	0.662
574.31	0.665
574.51	0.666
574.70	0.663
574.90	0.664
575.09	0.667
575.29	0.667
575.49	0.665
575.68	0.665
575.88	0.667
576.07	0.668
576.27	0.666
576.46	0.665
576.66	0.664
576.86	0.663
577.05	0.661
577.25	0.659
577.44	0.661
577.64	0.661
577.83	0.659
578.03	0.660
578.22	0.659
578.42	0.658
578.61	0.657
578.81	0.658
579.00	0.658
579.20	0.658
579.40	0.657
579.59	0.656
579.79	0.656
579.98	0.656
580.18	0.655
580.37	0.656
580.57	0.658
580.76	0.663
580.96	0.661
581.15	0.661
581.35	0.663
581.54	0.663
581.74	0.662
581.93	0.664
582.13	0.665
582.32	0.662
582.52	0.660
582.71	0.660
582.91	0.656
583.10	0.656
583.30	0.654
583.49	0.654
583.69	0.657
583.88	0.658
584.08	0.657
584.27	0.659
584.47	0.662
584.66	0.663
584.86	0.662
585.05	0.664
585.25	0.667
585.44	0.666
585.64	0.665
585.83	0.662
586.03	0.663
586.22	0.662
586.42	0.658
586.61	0.660
586.81	0.662
587.00	0.662
587.20	0.659
587.39	0.660
587.59	0.662
587.78	0.663
587.98	0.663
588.17	0.664
588.37	0.666
588.56	0.668
588.76	0.663
588.95	0.663
589.15	0.667
589.34	0.670
589.54	0.668
589.73	0.668
589.92	0.672
590.12	0.671
590.31	0.669
590.51	0.674
590.70	0.676
590.90	0.677
591.09	0.674
591.29	0.672
591.48	0.672
591.68	0.674
591.87	0.672
592.06	0.671
592.26	0.674
592.45	0.674
592.65	0.667
592.84	0.667
593.04	0.670
593.23	0.672
593.43	0.670
593.62	0.669
593.81	0.670
594.01	0.670
594.20	0.668
594.40	0.667
594.59	0.668
594.79	0.669
594.98	0.667
595.17	0.666
595.37	0.667
595.56	0.669
595.76	0.668
595.95	0.669
596.14	0.672
596.34	0.673
596.53	0.672
596.73	0.673
596.92	0.675
597.12	0.678
597.31	0.678
597.50	0.677
597.70	0.679
597.89	0.678
598.09	0.675
598.28	0.676
598.47	0.678
598.67	0.677
598.86	0.673
599.06	0.674
599.25	0.674
599.44	0.673
599.64	0.670
599.83	0.668
600.03	0.671
600.22	0.672
600.41	0.671
600.61	0.669
600.80	0.672
601.00	0.673
601.19	0.668
601.38	0.667
601.58	0.669
601.77	0.671
601.96	0.672
602.16	0.672
602.35	0.682
602.55	0.679
602.74	0.679
602.93	0.681
603.13	0.686
603.32	0.688
603.51	0.687
603.71	0.690
603.90	0.692
604.09	0.692
604.29	0.689
604.48	0.683
604.68	0.685
604.87	0.684
605.06	0.680
605.26	0.677
605.45	0.678
605.64	0.676
605.84	0.671
606.03	0.671
606.22	0.670
606.42	0.669
606.61	0.665
606.80	0.665
607.00	0.667
607.19	0.668
607.38	0.666
607.58	0.667
607.77	0.670
607.96	0.670
608.16	0.668
608.35	0.673
608.54	0.676
608.74	0.680
608.93	0.685
609.12	0.688
609.32	0.690
609.51	0.694
609.70	0.693
609.90	0.695
610.09	0.699
610.28	0.706
610.48	0.700
610.67	0.700
610.86	0.701
611.06	0.695
611.25	0.693
611.44	0.693
611.64	0.693
611.83	0.695
612.02	0.690
612.21	0.689
612.41	0.687
612.60	0.686
612.79	0.682
612.99	0.682
613.18	0.684
613.37	0.681
613.57	0.679
613.76	0.681
613.95	0.679
614.14	0.679
614.34	0.677
614.53	0.677
614.72	0.681
614.92	0.681
615.11	0.678
615.30	0.676
615.49	0.677
615.69	0.680
615.88	0.676
616.07	0.677
616.26	0.680
616.46	0.681
616.65	0.679
616.84	0.677
617.04	0.679
617.23	0.682
617.42	0.682
617.61	0.686
617.81	0.687
618.00	0.689
618.19	0.686
618.38	0.690
618.58	0.694
618.77	0.695
618.96	0.694
619.15	0.696
619.35	0.698
619.54	0.699
619.73	0.694
619.92	0.696
620.12	0.702
620.31	0.702
620.50	0.695
620.69	0.695
620.89	0.698
621.08	0.698
621.27	0.697
621.46	0.696
621.66	0.699
621.85	0.699
622.04	0.696
622.23	0.695
622.43	0.697
622.62	0.697
622.81	0.696
623.00	0.696
623.19	0.701
623.39	0.700
623.58	0.698
623.77	0.697
623.96	0.700
624.16	0.700
624.35	0.695
624.54	0.698
624.73	0.702
624.92	0.699
625.12	0.696
625.31	0.696
625.50	0.699
625.69	0.699
625.88	0.695
626.08	0.695
626.27	0.696
626.46	0.696
626.65	0.693
626.84	0.693
627.04	0.699
627.23	0.699
627.42	0.694
627.61	0.696
627.80	0.699
628.00	0.700
628.19	0.698
628.38	0.702
628.57	0.704
628.76	0.704
628.96	0.699
629.15	0.700
629.34	0.703
629.53	0.703
629.72	0.699
629.91	0.699
630.11	0.704
630.30	0.704
630.49	0.706
630.68	0.706
630.87	0.710
631.06	0.713
631.26	0.708
631.45	0.709
631.64	0.717
631.83	0.718
632.02	0.715
632.21	0.714
632.41	0.721
632.60	0.715
632.79	0.713
632.98	0.714
633.17	0.716
633.36	0.718
633.55	0.713
633.75	0.710
633.94	0.712
634.13	0.711
634.32	0.708
634.51	0.702
634.70	0.705
634.89	0.705
635.09	0.700
635.28	0.701
635.47	0.703
635.66	0.706
635.85	0.701
636.04	0.703
636.23	0.708
636.43	0.709
636.62	0.708
636.81	0.707
637.00	0.710
637.19	0.713
637.38	0.709
637.57	0.709
637.76	0.710
637.95	0.712
638.15	0.708
638.34	0.705
638.53	0.709
638.72	0.711
638.91	0.709
639.10	0.706
639.29	0.707
639.48	0.709
639.67	0.708
639.87	0.706
640.06	0.712
640.25	0.711
640.44	0.712
640.63	0.712
640.82	0.715
641.01	0.715
641.20	0.714
641.39	0.715
641.58	0.718
641.78	0.717
641.97	0.713
642.16	0.727
642.35	0.729
642.54	0.727
642.73	0.721
642.92	0.719
643.11	0.722
643.30	0.723
643.49	0.718
643.68	0.720
643.87	0.722
644.06	0.722
644.25	0.701
644.45	0.703
644.64	0.705
644.83	0.706
645.02	0.702
645.21	0.701
645.40	0.702
645.59	0.702
645.78	0.695
645.97	0.698
646.16	0.700
646.35	0.699
646.54	0.697
646.73	0.698
646.92	0.700
647.11	0.700
647.30	0.696
647.49	0.699
647.68	0.699
647.88	0.698
648.07	0.691
648.26	0.694
648.45	0.697
648.64	0.694
648.83	0.690
649.02	0.692
649.21	0.703
649.40	0.702
649.59	0.697
649.78	0.698
649.97	0.712
650.16	0.711
650.35	0.705
650.54	0.707
650.73	0.714
650.92	0.711
651.11	0.704
651.30	0.702
651.49	0.707
651.68	0.707
651.87	0.704
652.06	0.693
652.25	0.696
652.44	0.699
652.63	0.696
652.82	0.695
653.01	0.696
653.20	0.695
653.39	0.682
653.58	0.679
653.77	0.679
653.96	0.675
654.15	0.667
654.34	0.666
654.53	0.661
654.72	0.656
654.91	0.647
655.10	0.643
655.29	0.641
655.48	0.640
655.67	0.634
655.86	0.632
656.05	0.630
656.24	0.630
656.43	0.625
656.62	0.624
656.81	0.624
657.00	0.622
657.19	0.619
657.38	0.619
657.57	0.618
657.76	0.621
657.95	0.619
658.14	0.623
658.33	0.625
658.51	0.631
658.70	0.631
658.89	0.632
659.08	0.641
659.27	0.649
659.46	0.650
659.65	0.656
659.84	0.659
660.03	0.661
660.22	0.661
660.41	0.666
660.60	0.665
660.79	0.667
660.98	0.672
661.17	0.671
661.36	0.670
661.55	0.670
661.74	0.668
661.92	0.670
662.11	0.673
662.30	0.672
662.49	0.664
662.68	0.664
662.87	0.667
663.06	0.662
663.25	0.663
663.44	0.663
663.63	0.663
663.82	0.662
664.01	0.656
664.20	0.655
664.38	0.657
664.57	0.658
664.76	0.657
664.95	0.658
665.14	0.663
665.33	0.658
665.52	0.665
665.71	0.670
665.90	0.670
666.09	0.671
666.28	0.667
666.46	0.667
666.65	0.667
666.84	0.665
667.03	0.660
667.22	0.657
667.41	0.662
667.60	0.651
667.79	0.644
667.98	0.645
668.16	0.647
668.35	0.646
668.54	0.643
668.73	0.645
668.92	0.645
669.11	0.645
669.30	0.638
669.49	0.633
669.67	0.636
669.86	0.638
670.05	0.636
670.24	0.633
670.43	0.632
670.62	0.630
670.81	0.625
671.00	0.626
671.18	0.626
671.37	0.626
671.56	0.624
671.75	0.623
671.94	0.620
672.13	0.618
672.32	0.613
672.50	0.612
672.69	0.613
672.88	0.614
673.07	0.610
673.26	0.612
673.45	0.614
673.63	0.615
673.82	0.611
674.01	0.612
674.20	0.613
674.39	0.612
674.58	0.612
674.76	0.611
674.95	0.610
675.14	0.609
675.33	0.604
675.52	0.601
675.71	0.601
675.89	0.600
676.08	0.596
676.27	0.595
676.46	0.597
676.65	0.596
676.84	0.596
677.02	0.597
677.21	0.599
677.40	0.598
677.59	0.596
677.78	0.597
677.96	0.599
678.15	0.599
678.34	0.597
678.53	0.597
678.72	0.597
678.90	0.594
679.09	0.589
679.28	0.587
679.47	0.587
679.66	0.587
679.84	0.583
680.03	0.580
680.22	0.579
680.41	0.580
680.60	0.577
680.78	0.576
680.97	0.579
681.16	0.579
681.35	0.578
681.53	0.577
681.72	0.578
681.91	0.580
682.10	0.579
682.29	0.582
682.47	0.580
682.66	0.580
682.85	0.578
683.04	0.577
683.22	0.576
683.41	0.578
683.60	0.576
683.79	0.577
683.97	0.576
684.16	0.575
684.35	0.571
684.54	0.572
684.72	0.572
684.91	0.573
685.10	0.571
685.29	0.573
685.47	0.570
685.66	0.569
685.85	0.566
686.04	0.565
686.22	0.568
686.41	0.570
686.60	0.568
686.79	0.570
686.97	0.572
687.16	0.573
687.35	0.570
687.54	0.573
687.72	0.578
687.91	0.577
688.10	0.580
688.29	0.579
688.47	0.577
688.66	0.577
688.85	0.572
689.03	0.570
689.22	0.574
689.41	0.574
689.60	0.570
689.78	0.567
689.97	0.567
690.16	0.564
690.34	0.561
690.53	0.561
690.72	0.561
690.91	0.559
691.09	0.558
691.28	0.552
691.47	0.550
691.65	0.550
691.84	0.546
692.03	0.545
692.21	0.544
692.40	0.544
692.59	0.541
692.77	0.540
692.96	0.541
693.15	0.541
693.34	0.539
693.52	0.539
693.71	0.539
693.90	0.541
694.08	0.541
694.27	0.542
694.46	0.551
694.64	0.552
694.83	0.552
695.02	0.551
695.20	0.550
695.39	0.550
695.58	0.550
695.76	0.552
695.95	0.551
696.14	0.550
696.32	0.548
696.51	0.539
696.70	0.539
696.88	0.540
697.07	0.539
697.26	0.540
697.44	0.541
697.63	0.540
697.81	0.537
698.00	0.537
698.19	0.537
698.37	0.536
698.56	0.536
698.75	0.536
698.93	0.535
699.12	0.535
699.31	0.534
699.49	0.533
699.68	0.534
699.87	0.537
700.05	0.537
700.24	0.536
700.42	0.538
700.61	0.537
700.80	0.535
700.98	0.536
701.17	0.538
701.36	0.536
701.54	0.535
701.73	0.536
701.91	0.534
702.10	0.533
702.29	0.530
702.47	0.529
702.66	0.531
702.84	0.532
703.03	0.529
703.22	0.531
703.40	0.530
703.59	0.533
703.77	0.532
703.96	0.532
704.15	0.533
704.33	0.533
704.52	0.532
704.70	0.532
704.89	0.532
705.08	0.531
705.26	0.526
705.45	0.527
705.63	0.526
705.82	0.523
706.00	0.521
706.19	0.521
706.38	0.521
706.56	0.521
706.75	0.518
706.93	0.517
707.12	0.518
707.30	0.519
707.49	0.516
707.68	0.514
707.86	0.514
708.05	0.514
708.23	0.511
708.42	0.511
708.60	0.513
708.79	0.513
708.98	0.512
709.16	0.511
709.35	0.514
709.53	0.518
709.72	0.517
709.90	0.519
710.09	0.521
710.27	0.523
710.46	0.526
710.64	0.525
710.83	0.526
711.02	0.528
711.20	0.527
711.39	0.525
711.57	0.524
711.76	0.524
711.94	0.522
712.13	0.522
712.31	0.522
712.50	0.517
712.68	0.515
712.87	0.516
713.05	0.516
713.24	0.517
713.42	0.516
713.61	0.516
713.79	0.517
713.98	0.518
714.16	0.519
714.35	0.518
714.54	0.520
714.72	0.520
714.91	0.518
715.09	0.524
715.28	0.527
715.46	0.525
715.65	0.523
715.83	0.523
716.02	0.525
716.20	0.522
716.39	0.521
716.57	0.523
716.76	0.524
716.94	0.524
717.12	0.517
717.31	0.518
717.49	0.522
717.68	0.524
717.86	0.523
718.05	0.526
718.23	0.528
718.42	0.530
718.60	0.531
718.79	0.539
718.97	0.542
719.16	0.542
719.34	0.540
719.53	0.539
719.71	0.539
719.90	0.541
720.08	0.537
720.27	0.536
720.45	0.537
720.63	0.536
720.82	0.529
721.00	0.532
721.19	0.535
721.37	0.534
721.56	0.534
721.74	0.537
721.93	0.546
722.11	0.553
722.30	0.552
722.48	0.557
722.66	0.558
722.85	0.558
723.03	0.557
723.22	0.555
723.40	0.559
723.59	0.559
723.77	0.563
723.95	0.557
724.14	0.558
724.32	0.560
724.51	0.559
724.69	0.560
724.88	0.561
725.06	0.559
725.24	0.560
725.43	0.561
725.61	0.564
725.80	0.558
725.98	0.555
726.16	0.552
726.35	0.558
726.53	0.558
726.72	0.558
726.90	0.569
727.09	0.570
727.27	0.575
727.45	0.572
727.64	0.579
727.82	0.587
728.01	0.591
728.19	0.589
728.37	0.593
728.56	0.597
728.74	0.601
728.92	0.589
729.11	0.591
729.29	0.590
729.48	0.592
729.66	0.582
729.84	0.584
730.03	0.587
730.21	0.589
730.40	0.580
730.58	0.581
730.76	0.581
730.95	0.583
731.13	0.583
731.31	0.597
731.50	0.606
731.68	0.610
731.86	0.604
732.05	0.618
732.23	0.621
732.42	0.625
732.60	0.628
732.78	0.633
732.97	0.652
733.15	0.660
733.33	0.647
733.52	0.653
733.70	0.664
733.88	0.673
734.07	0.656
734.25	0.682
734.43	0.690
734.62	0.692
734.80	0.686
734.98	0.677
735.17	0.683
735.35	0.689
735.53	0.679
735.72	0.683
735.90	0.704
736.08	0.724
736.27	0.700
736.45	0.707
736.63	0.718
736.82	0.727
737.00	0.724
737.18	0.737
737.37	0.768
737.55	0.787
737.73	0.781
737.92	0.784
738.10	0.783
738.28	0.803
738.46	0.791
738.65	0.805
738.83	0.830
739.01	0.884
739.20	0.872
739.38	0.854
739.56	0.848
739.75	0.849
739.93	0.813
740.11	0.839
740.29	0.840
740.48	0.847
740.66	0.824
740.84	0.817
741.03	0.783
741.21	0.793
741.39	0.775
741.57	0.788
741.76	0.802
741.94	0.811
742.12	0.775
742.31	0.778
742.49	0.800
742.67	0.825
742.85	0.837
743.04	0.840
743.22	0.850
743.40	0.903
743.58	0.882
743.77	0.901
743.95	0.935
744.13	0.982
744.31	0.964
744.50	0.953
744.68	0.951
744.86	0.927
745.04	0.933
745.23	0.996
745.41	0.978
745.59	0.985
745.77	0.948
745.96	0.937
746.14	0.951
746.32	0.948
746.50	0.940
746.69	0.926
746.87	0.940
747.05	0.932
747.23	0.854
747.42	0.847
747.60	0.874
747.78	0.884
747.96	0.909
748.14	0.861
748.33	0.892
748.51	0.886
748.69	0.876
748.87	0.903
749.06	0.899
749.24	0.895
749.42	0.872
749.60	0.854
749.78	0.861
749.97	0.819
750.15	0.811
750.33	0.811
750.51	0.835
750.69	0.839
750.88	0.842
751.06	0.852
751.24	0.885
751.42	0.878
751.60	0.870
751.79	0.941
751.97	0.983
752.15	0.986
752.33	0.952
752.51	1.017
752.69	1.039
752.88	1.002
753.06	1.040
753.24	1.013
753.42	1.052
753.60	1.211
753.78	1.066
753.97	1.091
754.15	1.107
754.33	1.139
754.51	1.014
754.69	0.999
754.87	1.029
755.06	0.965
755.24	0.960
755.42	0.961
755.60	0.868
755.78	0.875
755.96	0.820
756.15	0.822
756.33	0.829
756.51	0.846
756.69	0.828
756.87	0.798
757.05	0.814
757.23	0.801
757.42	0.768
757.60	0.770
757.78	0.762
757.96	0.760
758.14	0.743
758.32	0.727
758.50	0.743
758.69	0.742
758.87	0.733
759.05	0.737
759.23	0.749
759.41	0.750
759.59	0.739
759.77	0.760
759.95	0.788
760.13	0.835
760.32	0.837
760.50	0.825
760.68	0.853
760.86	0.855
761.04	0.828
761.22	0.833
761.40	0.882
761.58	0.886
761.76	0.859
761.95	0.839
762.13	0.797
762.31	0.796
762.49	0.767
762.67	0.780
762.85	0.794
763.03	0.791
763.21	0.772
763.39	0.753
763.57	0.754
763.75	0.748
763.94	0.734
764.12	0.734
764.30	0.758
764.48	0.762
764.66	0.728
764.84	0.728
765.02	0.762
765.20	0.768
765.38	0.752
765.56	0.760
765.74	0.798
765.92	0.801
766.10	0.810
766.28	0.804
766.46	0.832
766.65	0.833
766.83	0.819
767.01	0.803
767.19	0.809
767.37	0.808
767.55	0.795
767.73	0.776
767.91	0.779
768.09	0.766
768.27	0.754
768.45	0.746
768.63	0.753
768.81	0.756
768.99	0.731
769.17	0.755
769.35	0.767
769.53	0.765
769.71	0.747
769.89	0.757
770.07	0.763
770.25	0.747
770.43	0.724
770.61	0.746
770.79	0.752
770.97	0.762
771.15	0.734
771.33	0.736
771.51	0.741
771.69	0.752
771.87	0.756
772.05	0.762
772.24	0.772
772.42	0.781
772.60	0.758
772.78	0.818
772.96	0.847
773.14	0.839
773.32	0.814
773.49	0.818
773.67	0.814
773.85	0.793
774.03	0.778
774.21	0.807
774.39	0.818
774.57	0.841
774.75	0.770
774.93	0.767
775.11	0.788
775.29	0.795
775.47	0.797
775.65	0.806
775.83	0.826
776.01	0.849
776.19	0.802
776.37	0.803
776.55	0.804
776.73	0.801
776.91	0.794
777.09	0.779
777.27	0.782
777.45	0.769
777.63	0.748
777.81	0.745
777.99	0.733
778.17	0.733
778.35	0.713
778.53	0.701
778.71	0.705
778.89	0.693
779.07	0.684
779.24	0.689
779.42	0.692
779.60	0.710
779.78	0.706
779.96	0.711
780.14	0.722
780.32	0.742
780.50	0.725
780.68	0.728
780.86	0.718
781.04	0.736
781.22	0.738
781.40	0.750
781.58	0.742
781.75	0.733
781.93	0.717
782.11	0.716
782.29	0.702
782.47	0.703
782.65	0.686
782.83	0.715
783.01	0.706
783.19	0.701
783.37	0.686
783.55	0.687
783.72	0.707
783.90	0.716
784.08	0.706
784.26	0.718
784.44	0.737
784.62	0.742
784.80	0.711
784.98	0.717
785.16	0.723
785.33	0.736
785.51	0.723
785.69	0.710
785.87	0.711
786.05	0.722
786.23	0.716
786.41	0.713
786.59	0.720
786.77	0.720
786.94	0.707
787.12	0.710
787.30	0.711
787.48	0.708
787.66	0.696
787.84	0.697
788.02	0.687
788.19	0.687
788.37	0.673
788.55	0.675
788.73	0.673
788.91	0.667
789.09	0.651
789.27	0.641
789.44	0.652
789.62	0.656
789.80	0.665
789.98	0.691
790.16	0.676
790.34	0.671
790.51	0.659
790.69	0.681
790.87	0.687
791.05	0.686
791.23	0.677
791.41	0.680
791.58	0.690
791.76	0.670
791.94	0.639
792.12	0.648
792.30	0.651
792.48	0.650
792.65	0.641
792.83	0.648
793.01	0.654
793.19	0.653
793.37	0.636
793.54	0.632
793.72	0.645
793.90	0.644
794.08	0.634
794.26	0.635
794.43	0.645
794.61	0.630
794.79	0.618
794.97	0.618
795.15	0.625
795.32	0.630
795.50	0.618
795.68	0.613
795.86	0.617
796.04	0.619
796.21	0.612
796.39	0.608
796.57	0.622
796.75	0.629
796.92	0.630
797.10	0.635
797.28	0.636
797.46	0.639
797.64	0.638
797.81	0.646
797.99	0.652
798.17	0.655
798.35	0.651
798.52	0.655
798.70	0.651
798.88	0.659
799.06	0.657
799.23	0.660
799.41	0.668
799.59	0.662
799.77	0.652
799.94	0.658
800.12	0.672
800.30	0.688
800.48	0.686
800.65	0.685
800.83	0.675
801.01	0.668
801.19	0.668
801.36	0.664
801.54	0.667
801.72	0.678
801.90	0.664
802.07	0.657
802.25	0.644
802.43	0.629
802.60	0.625
802.78	0.633
802.96	0.638
803.14	0.631
803.31	0.631
803.49	0.632
803.67	0.626
803.84	0.632
804.02	0.622
804.20	0.625
804.38	0.630
804.55	0.630
804.73	0.615
804.91	0.617
805.08	0.632
805.26	0.628
805.44	0.692
805.61	0.694
805.79	0.694
805.97	0.695
806.15	0.686
806.32	0.681
806.50	0.688
806.68	0.687
806.85	0.677
807.03	0.667
807.21	0.684
807.38	0.615
807.56	0.606
807.74	0.616
807.91	0.623
808.09	0.626
808.27	0.643
808.44	0.667
808.62	0.678
808.80	0.679
808.97	0.674
809.15	0.666
809.33	0.684
809.50	0.691
809.68	0.677
809.86	0.686
810.03	0.716
810.21	0.696
810.39	0.678
810.56	0.684
810.74	0.707
810.91	0.778
811.09	0.768
811.27	0.788
811.44	0.795
811.62	0.795
811.80	0.776
811.97	0.749
812.15	0.750
812.33	0.744
812.50	0.727
812.68	0.717
812.85	0.660
813.03	0.663
813.21	0.633
813.38	0.628
813.56	0.631
813.74	0.639
813.91	0.645
814.09	0.675
814.26	0.673
814.44	0.676
814.62	0.665
814.79	0.670
814.97	0.673
815.14	0.677
815.32	0.678
815.50	0.695
815.67	0.700
815.85	0.690
816.02	0.678
816.20	0.684
816.38	0.699
816.55	0.704
816.73	0.702
816.90	0.713
817.08	0.741
817.26	0.748
817.43	0.729
817.61	0.751
817.78	0.772
817.96	0.750
818.13	0.738
818.31	0.736
818.49	0.747
818.66	0.738
818.84	0.724
819.01	0.707
819.19	0.711
819.36	0.711
819.54	0.680
819.71	0.722
819.89	0.738
820.07	0.751
820.24	0.749
820.42	0.751
820.59	0.770
820.77	0.794
820.94	0.781
821.12	0.800
821.29	0.817
821.47	0.822
821.64	0.754
821.82	0.766
822.00	0.761
822.17	0.756
822.35	0.750
822.52	0.751
822.70	0.737
822.87	0.746
823.05	0.724
823.22	0.736
823.40	0.761
823.57	0.785
823.75	0.765
823.92	0.792
824.10	0.811
824.27	0.849
824.45	0.840
824.62	0.906
824.80	0.926
824.97	0.936
825.15	0.923
825.32	0.938
825.50	0.936
825.67	0.947
825.85	0.922
826.02	0.941
826.20	0.966
826.37	1.094
826.55	1.003
826.72	1.188
826.90	1.278
827.07	1.349
827.25	1.260
827.42	1.427
827.60	1.600
827.77	1.815
827.95	1.745
828.12	1.877
828.30	1.454
828.47	1.620
828.65	1.209
828.82	1.250
829.00	1.289
829.17	1.386
829.34	1.379
829.52	1.412
829.69	-0.000
829.87	-0.000
830.04	-0.000
830.22	-0.000
830.39	-0.000
830.57	-0.000
830.74	-0.000
830.92	-0.000
831.09	-0.000
831.26	-0.000
831.44	-0.000
831.61	-0.000
831.79	-0.000
831.96	-0.000
832.14	-0.000
832.31	-0.000
832.49	-0.000
832.66	-0.000
832.83	-0.000
833.01	-0.000
833.18	-0.000
833.36	-0.000
833.53	-0.000
833.70	-0.000
833.88	-0.000
834.05	-0.000
834.23	-0.000
834.40	-0.000
834.58	-0.000
834.75	-0.000
834.92	-0.000
835.10	-0.000
835.27	-0.000
835.45	-0.000
835.62	-0.000
835.79	-0.000
835.97	-0.000
836.14	-0.000
836.32	-0.000
836.49	-0.000
836.66	-0.000
836.84	-0.000
837.01	-0.000
837.18	-0.000
837.36	-0.000
837.53	-0.000
837.71	-0.000
837.88	-0.000
838.05	-0.000
838.23	-0.000
838.40	-0.000
838.58	-0.000
838.75	-0.000
838.92	-0.000
839.10	-0.000
839.27	-0.000
839.44	-0.000
839.62	-0.000
839.79	-0.000
839.96	-0.000
840.14	-0.000
840.31	-0.000
840.48	-0.000
840.66	-0.000
840.83	-0.000
841.01	-0.000
841.18	-0.000
841.35	-0.000
841.53	-0.000
841.70	-0.000
841.87	-0.000
842.05	-0.000
842.22	-0.000
842.39	-0.000
842.57	-0.000
842.74	-0.000
842.91	-0.000
843.09	-0.000
843.26	-0.000
843.43	-0.000
843.60	-0.000
843.78	-0.000
843.95	-0.000
844.12	-0.000
844.30	-0.000
844.47	-0.000
844.64	-0.000
844.82	-0.000
844.99	-0.000
845.16	-0.000
845.34	-0.000
845.51	-0.000
845.68	-0.000
845.85	-0.000
846.03	-0.000
846.20	-0.000
846.37	-0.000
846.55	-0.000
846.72	-0.000
846.89	-0.000
847.06	-0.000
847.24	-0.000
847.41	-0.000
847.58	-0.000
847.76	-0.000
847.93	-0.000
848.10	-0.000
848.27	-0.000
848.45	-0.000
848.62	-0.000
848.79	-0.000
848.97	-0.000
849.14	-0.000
849.31	-0.000
849.48	-0.000
849.66	-0.000
849.83	-0.000
850.00	-0.000
850.17	-0.000
850.35	-0.000
850.52	-0.000
850.69	-0.000
850.86	-0.000
851.04	-0.000
851.21	-0.000
851.38	-0.000
851.55	-0.000
851.72	-0.000
851.90	-0.000
852.07	-0.000
852.24	-0.000
852.41	-0.000
852.59	-0.000
852.76	-0.000
852.93	-0.000
853.10	-0.000
853.28	-0.000
853.45	-0.000
853.62	-0.000
853.79	-0.000
853.96	-0.000
854.14	-0.000
854.31	-0.000
854.48	-0.000
854.65	-0.000
854.82	-0.000
855.00	-0.000
855.17	-0.000
855.34	-0.000
855.51	-0.000
855.68	-0.000
855.86	-0.000
856.03	-0.000
856.20	-0.000
856.37	-0.000
856.54	-0.000
856.72	-0.000
856.89	-0.000
857.06	-0.000
857.23	-0.000
857.40	-0.000
857.57	-0.000
857.75	-0.000
857.92	-0.000
858.09	-0.000
858.26	-0.000
858.43	-0.000
858.60	-0.000
858.78	-0.000
858.95	-0.000
859.12	-0.000
859.29	-0.000
859.46	-0.000
859.63	-0.000
859.81	-0.000
859.98	-0.000
860.15	-0.000
860.32	-0.000
860.49	-0.000
860.66	-0.000
860.83	-0.000
861.01	-0.000
861.18	-0.000
861.35	-0.000
861.52	-0.000
861.69	-0.000
861.86	-0.000
862.03	-0.000
862.21	-0.000
862.38	-0.000
862.55	-0.000
862.72	-0.000
862.89	-0.000
863.06	-0.000
863.23	-0.000
863.40	-0.000
863.58	-0.000
863.75	-0.000
863.92	-0.000
864.09	-0.000
864.26	-0.000
864.43	-0.000
864.60	-0.000
864.77	-0.000
864.94	-0.000
865.11	-0.000
865.29	-0.000
865.46	-0.000
865.63	-0.000
865.80	-0.000
865.97	-0.000
866.14	-0.000
866.31	-0.000
866.48	-0.000
866.65	-0.000
866.82	-0.000
866.99	-0.000
867.16	-0.000
867.34	-0.000
867.51	-0.000
867.68	-0.000
867.85	-0.000
868.02	-0.000
868.19	-0.000
868.36	-0.000
868.53	-0.000
868.70	-0.000
868.87	-0.000
869.04	-0.000
869.21	-0.000
869.38	-0.000
869.55	-0.000
869.72	-0.000
869.89	-0.000
870.06	-0.000
870.24	-0.000
870.41	-0.000
870.58	-0.000
870.75	-0.000
870.92	-0.000
871.09	-0.000
871.26	-0.000
871.43	-0.000
871.60	-0.000
871.77	-0.000
871.94	-0.000
872.11	-0.000
872.28	-0.000
872.45	-0.000
872.62	-0.000
872.79	-0.000
872.96	-0.000
873.13	-0.000
873.30	-0.000
873.47	-0.000
873.64	-0.000
873.81	-0.000
873.98	-0.000
874.15	-0.000
874.32	-0.000
874.49	-0.000
874.66	-0.000
874.83	-0.000
875.00	-0.000
875.17	-0.000
875.34	-0.000
875.51	-0.000
875.68	-0.000
875.85	-0.000
876.02	-0.000
876.19	-0.000
876.36	-0.000
876.53	-0.000
876.70	-0.000
876.87	-0.000
877.04	-0.000
877.21	-0.000
877.38	-0.000
877.55	-0.000
877.72	-0.000
877.89	-0.000
878.06	-0.000
878.23	-0.000
878.39	-0.000
878.56	-0.000
878.73	-0.000
878.90	-0.000
879.07	-0.000
879.24	-0.000
879.41	-0.000
879.58	-0.000
879.75	-0.000
879.92	-0.000
880.09	-0.000
880.26	-0.000
880.43	-0.000
880.60	-0.000
880.77	-0.000
880.94	-0.000
881.11	-0.000
881.27	-0.000
881.44	-0.000
881.61	-0.000
881.78	-0.000
881.95	-0.000
882.12	-0.000
882.29	-0.000
882.46	-0.000
882.63	-0.000
882.80	-0.000
882.97	-0.000
883.14	-0.000
883.30	-0.000
883.47	-0.000
883.64	-0.000
883.81	-0.000
883.98	-0.000
884.15	-0.000
884.32	-0.000
884.49	-0.000
884.66	-0.000
884.82	-0.000
884.99	-0.000
885.16	-0.000
885.33	-0.000
885.50	-0.000
885.67	-0.000
885.84	-0.000
886.01	-0.000
886.17	-0.000
886.34	-0.000
886.51	-0.000
886.68	-0.000
886.85	-0.000
887.02	-0.000
887.19	-0.000
887.36	-0.000
887.52	-0.000
887.69	-0.000
887.86	-0.000
888.03	-0.000
888.20	-0.000
888.37	-0.000
888.54	-0.000
888.70	-0.000
888.87	-0.000
889.04	-0.000
889.21	-0.000
889.38	-0.000
889.55	-0.000
889.71	-0.000
889.88	-0.000
890.05	-0.000
890.22	-0.000
890.39	-0.000
>>>>>End Processed Spectral Data<<<<<
