SpectraSuite Data File
++++++++++++++++++++++++++++++++++++
Date: Fri Jun 19 13:30:55 CEST 2015
User: introlabs
Dark Spectrum Present: Yes
Reference Spectrum Present: Yes
Number of Sampled Component Spectra: 1
Spectrometers: USB4H08886
Integration Time (usec): 745692 (USB4H08886)
Spectra Averaged: 5 (USB4H08886)
Boxcar Smoothing: 5 (USB4H08886)
Correct for Electrical Dark: Yes (USB4H08886)
Strobe/Lamp Enabled: No (USB4H08886)
Correct for Detector Non-linearity: Yes (USB4H08886)
Correct for Stray Light: Yes (USB4H08886)
Number of Pixels in Processed Spectrum: 3648
>>>>>Begin Processed Spectral Data<<<<<
178.14	-0.000
178.36	-0.000
178.57	-0.000
178.79	-0.000
179.01	-0.000
179.22	-0.000
179.44	-0.000
179.65	-0.000
179.87	-0.000
180.08	-0.000
180.30	-0.000
180.52	-0.000
180.73	-0.000
180.95	-0.000
181.16	-0.000
181.38	-0.000
181.59	-0.000
181.81	-0.000
182.03	-0.000
182.24	-0.000
182.46	-0.000
182.67	-0.000
182.89	-0.000
183.10	-0.000
183.32	-0.000
183.54	-0.000
183.75	-0.000
183.97	-0.000
184.18	-0.000
184.40	-0.000
184.61	-0.000
184.83	-0.000
185.04	-0.000
185.26	-0.000
185.48	-0.000
185.69	-0.000
185.91	-0.000
186.12	-0.000
186.34	-0.000
186.55	-0.000
186.77	-0.000
186.98	-0.000
187.20	-0.000
187.42	-0.000
187.63	-0.000
187.85	-0.000
188.06	-0.000
188.28	-0.000
188.49	-0.000
188.71	-0.000
188.92	-0.000
189.14	-0.000
189.36	-0.000
189.57	-0.000
189.79	-0.000
190.00	-0.000
190.22	-0.000
190.43	-0.000
190.65	-0.000
190.86	-0.000
191.08	-0.000
191.29	-0.000
191.51	-0.000
191.72	-0.000
191.94	-0.000
192.16	-0.000
192.37	-0.000
192.59	-0.000
192.80	-0.000
193.02	-0.000
193.23	-0.000
193.45	-0.000
193.66	-0.000
193.88	-0.000
194.09	-0.000
194.31	-0.000
194.52	-0.000
194.74	-0.000
194.95	-0.000
195.17	-0.000
195.38	-0.000
195.60	-0.000
195.81	-0.000
196.03	-0.000
196.25	-0.000
196.46	-0.000
196.68	-0.000
196.89	-0.000
197.11	-0.000
197.32	-0.000
197.54	-0.000
197.75	-0.000
197.97	-0.000
198.18	-0.000
198.40	-0.000
198.61	-0.000
198.83	-0.000
199.04	-0.000
199.26	-0.000
199.47	-0.000
199.69	-0.000
199.90	-0.000
200.12	-0.000
200.33	-0.000
200.55	-0.000
200.76	-0.000
200.98	-0.000
201.19	-0.000
201.41	-0.000
201.62	-0.000
201.84	-0.000
202.05	-0.000
202.27	-0.000
202.48	-0.000
202.70	-0.000
202.91	-0.000
203.13	-0.000
203.34	-0.000
203.56	-0.000
203.77	-0.000
203.99	-0.000
204.20	-0.000
204.42	-0.000
204.63	-0.000
204.85	-0.000
205.06	-0.000
205.28	-0.000
205.49	-0.000
205.71	-0.000
205.92	-0.000
206.14	-0.000
206.35	-0.000
206.56	-0.000
206.78	-0.000
206.99	-0.000
207.21	-0.000
207.42	-0.000
207.64	-0.000
207.85	-0.000
208.07	-0.000
208.28	-0.000
208.50	-0.000
208.71	-0.000
208.93	-0.000
209.14	-0.000
209.36	-0.000
209.57	-0.000
209.79	-0.000
210.00	-0.000
210.22	-0.000
210.43	-0.000
210.64	-0.000
210.86	-0.000
211.07	-0.000
211.29	-0.000
211.50	-0.000
211.72	-0.000
211.93	-0.000
212.15	-0.000
212.36	-0.000
212.58	-0.000
212.79	-0.000
213.01	-0.000
213.22	-0.000
213.43	-0.000
213.65	-0.000
213.86	-0.000
214.08	-0.000
214.29	-0.000
214.51	-0.000
214.72	-0.000
214.94	-0.000
215.15	-0.000
215.36	-0.000
215.58	-0.000
215.79	-0.000
216.01	-0.000
216.22	-0.000
216.44	-0.000
216.65	-0.000
216.87	-0.000
217.08	-0.000
217.29	-0.000
217.51	-0.000
217.72	-0.000
217.94	-0.000
218.15	-0.000
218.37	-0.000
218.58	-0.000
218.80	-0.000
219.01	-0.000
219.22	-0.000
219.44	-0.000
219.65	-0.000
219.87	-0.000
220.08	-0.000
220.30	-0.000
220.51	-0.000
220.72	-0.000
220.94	-0.000
221.15	-0.000
221.37	-0.000
221.58	-0.000
221.79	-0.000
222.01	-0.000
222.22	-0.000
222.44	-0.000
222.65	-0.000
222.87	-0.000
223.08	-0.000
223.29	-0.000
223.51	-0.000
223.72	-0.000
223.94	-0.000
224.15	-0.000
224.36	-0.000
224.58	-0.000
224.79	-0.000
225.01	-0.000
225.22	-0.000
225.44	-0.000
225.65	-0.000
225.86	-0.000
226.08	-0.000
226.29	-0.000
226.51	-0.000
226.72	-0.000
226.93	-0.000
227.15	-0.000
227.36	-0.000
227.58	-0.000
227.79	-0.000
228.00	-0.000
228.22	-0.000
228.43	-0.000
228.65	-0.000
228.86	-0.000
229.07	-0.000
229.29	-0.000
229.50	-0.000
229.72	-0.000
229.93	-0.000
230.14	-0.000
230.36	-0.000
230.57	-0.000
230.78	-0.000
231.00	-0.000
231.21	-0.000
231.43	-0.000
231.64	-0.000
231.85	-0.000
232.07	-0.000
232.28	-0.000
232.50	-0.000
232.71	-0.000
232.92	-0.000
233.14	-0.000
233.35	-0.000
233.56	-0.000
233.78	-0.000
233.99	-0.000
234.21	-0.000
234.42	-0.000
234.63	-0.000
234.85	-0.000
235.06	-0.000
235.27	-0.000
235.49	-0.000
235.70	-0.000
235.91	-0.000
236.13	-0.000
236.34	-0.000
236.56	-0.000
236.77	-0.000
236.98	-0.000
237.20	-0.000
237.41	-0.000
237.62	-0.000
237.84	-0.000
238.05	-0.000
238.26	-0.000
238.48	-0.000
238.69	-0.000
238.91	-0.000
239.12	-0.000
239.33	-0.000
239.55	-0.000
239.76	-0.000
239.97	-0.000
240.19	-0.000
240.40	-0.000
240.61	-0.000
240.83	-0.000
241.04	-0.000
241.25	-0.000
241.47	-0.000
241.68	-0.000
241.89	-0.000
242.11	-0.000
242.32	-0.000
242.53	-0.000
242.75	-0.000
242.96	-0.000
243.17	-0.000
243.39	-0.000
243.60	-0.000
243.81	-0.000
244.03	-0.000
244.24	-0.000
244.45	-0.000
244.67	-0.000
244.88	-0.000
245.09	-0.000
245.31	-0.000
245.52	-0.000
245.73	-0.000
245.95	-0.000
246.16	-0.000
246.37	-0.000
246.59	-0.000
246.80	-0.000
247.01	-0.000
247.23	-0.000
247.44	-0.000
247.65	-0.000
247.87	-0.000
248.08	-0.000
248.29	-0.000
248.51	-0.000
248.72	-0.000
248.93	-0.000
249.15	-0.000
249.36	-0.000
249.57	-0.000
249.78	-0.000
250.00	-0.000
250.21	-0.000
250.42	-0.000
250.64	-0.000
250.85	-0.000
251.06	-0.000
251.28	-0.000
251.49	-0.000
251.70	-0.000
251.92	-0.000
252.13	-0.000
252.34	-0.000
252.55	-0.000
252.77	-0.000
252.98	-0.000
253.19	-0.000
253.41	-0.000
253.62	-0.000
253.83	-0.000
254.05	-0.000
254.26	-0.000
254.47	-0.000
254.68	-0.000
254.90	-0.000
255.11	-0.000
255.32	-0.000
255.54	-0.000
255.75	-0.000
255.96	-0.000
256.17	-0.000
256.39	-0.000
256.60	-0.000
256.81	-0.000
257.03	-0.000
257.24	-0.000
257.45	-0.000
257.66	-0.000
257.88	-0.000
258.09	-0.000
258.30	-0.000
258.51	-0.000
258.73	-0.000
258.94	-0.000
259.15	-0.000
259.37	-0.000
259.58	-0.000
259.79	-0.000
260.00	-0.000
260.22	-0.000
260.43	-0.000
260.64	-0.000
260.85	-0.000
261.07	-0.000
261.28	-0.000
261.49	-0.000
261.71	-0.000
261.92	-0.000
262.13	-0.000
262.34	-0.000
262.56	-0.000
262.77	-0.000
262.98	-0.000
263.19	-0.000
263.41	-0.000
263.62	-0.000
263.83	-0.000
264.04	-0.000
264.26	-0.000
264.47	-0.000
264.68	-0.000
264.89	-0.000
265.11	-0.000
265.32	-0.000
265.53	-0.000
265.74	-0.000
265.96	-0.000
266.17	-0.000
266.38	-0.000
266.59	-0.000
266.81	-0.000
267.02	-0.000
267.23	-0.000
267.44	-0.000
267.65	-0.000
267.87	-0.000
268.08	-0.000
268.29	-0.000
268.50	-0.000
268.72	-0.000
268.93	-0.000
269.14	-0.000
269.35	-0.000
269.57	-0.000
269.78	-0.000
269.99	-0.000
270.20	-0.000
270.41	-0.000
270.63	-0.000
270.84	-0.000
271.05	-0.000
271.26	-0.000
271.48	-0.000
271.69	-0.000
271.90	-0.000
272.11	-0.000
272.32	-0.000
272.54	-0.000
272.75	-0.000
272.96	-0.000
273.17	-0.000
273.39	-0.000
273.60	-0.000
273.81	-0.000
274.02	-0.000
274.23	-0.000
274.45	-0.000
274.66	-0.000
274.87	-0.000
275.08	-0.000
275.29	-0.000
275.51	-0.000
275.72	-0.000
275.93	-0.000
276.14	-0.000
276.35	-0.000
276.57	-0.000
276.78	-0.000
276.99	-0.000
277.20	-0.000
277.41	-0.000
277.63	-0.000
277.84	-0.000
278.05	-0.000
278.26	-0.000
278.47	-0.000
278.69	-0.000
278.90	-0.000
279.11	-0.000
279.32	-0.000
279.53	-0.000
279.74	-0.000
279.96	-0.000
280.17	-0.000
280.38	-0.000
280.59	-0.000
280.80	-0.000
281.02	-0.000
281.23	-0.000
281.44	-0.000
281.65	-0.000
281.86	-0.000
282.07	-0.000
282.29	-0.000
282.50	-0.000
282.71	-0.000
282.92	-0.000
283.13	-0.000
283.35	-0.000
283.56	-0.000
283.77	-0.000
283.98	-0.000
284.19	-0.000
284.40	-0.000
284.62	-0.000
284.83	-0.000
285.04	-0.000
285.25	-0.000
285.46	-0.000
285.67	-0.000
285.88	-0.000
286.10	-0.000
286.31	-0.000
286.52	-0.000
286.73	-0.000
286.94	-0.000
287.15	-0.000
287.37	-0.000
287.58	-0.000
287.79	-0.000
288.00	-0.000
288.21	-0.000
288.42	-0.000
288.63	-0.000
288.85	-0.000
289.06	-0.000
289.27	-0.000
289.48	-0.000
289.69	-0.000
289.90	-0.000
290.11	-0.000
290.33	-0.000
290.54	-0.000
290.75	-0.000
290.96	-0.000
291.17	-0.000
291.38	-0.000
291.59	-0.000
291.81	-0.000
292.02	-0.000
292.23	-0.000
292.44	-0.000
292.65	-0.000
292.86	-0.000
293.07	-0.000
293.28	-0.000
293.50	-0.000
293.71	-0.000
293.92	-0.000
294.13	-0.000
294.34	-0.000
294.55	-0.000
294.76	-0.000
294.97	-0.000
295.19	-0.000
295.40	-0.000
295.61	-0.000
295.82	-0.000
296.03	-0.000
296.24	-0.000
296.45	-0.000
296.66	-0.000
296.87	-0.000
297.09	-0.000
297.30	-0.000
297.51	2.561
297.72	2.334
297.93	3.526
298.14	2.745
298.35	2.392
298.56	2.253
298.77	4.313
298.99	2.947
299.20	2.563
299.41	2.374
299.62	2.207
299.83	2.151
300.04	1.950
300.25	1.925
300.46	2.031
300.67	1.960
300.88	1.836
301.10	1.837
301.31	1.988
301.52	1.848
301.73	1.743
301.94	1.742
302.15	1.768
302.36	1.691
302.57	1.588
302.78	1.596
302.99	1.668
303.20	1.695
303.41	1.548
303.63	1.524
303.84	1.534
304.05	1.525
304.26	1.439
304.47	1.447
304.68	1.448
304.89	1.430
305.10	1.375
305.31	1.353
305.52	1.410
305.73	1.409
305.94	1.357
306.15	1.344
306.37	1.375
306.58	1.387
306.79	1.348
307.00	1.372
307.21	1.426
307.42	1.419
307.63	1.375
307.84	1.328
308.05	1.370
308.26	1.369
308.47	1.343
308.68	1.337
308.89	1.336
309.10	1.330
309.31	1.284
309.52	1.274
309.73	1.290
309.95	1.284
310.16	1.251
310.37	1.238
310.58	1.260
310.79	1.257
311.00	1.249
311.21	1.251
311.42	1.252
311.63	1.246
311.84	1.220
312.05	1.218
312.26	1.244
312.47	1.256
312.68	1.227
312.89	1.208
313.10	1.217
313.31	1.186
313.52	1.186
313.73	1.189
313.94	1.195
314.15	1.177
314.36	1.151
314.57	1.141
314.78	1.127
314.99	1.121
315.21	1.106
315.42	1.111
315.63	1.126
315.84	1.101
316.05	1.084
316.26	1.090
316.47	1.109
316.68	1.105
316.89	1.084
317.10	1.109
317.31	1.114
317.52	1.117
317.73	1.091
317.94	1.090
318.15	1.138
318.36	1.137
318.57	1.118
318.78	1.108
318.99	1.148
319.20	1.144
319.41	1.103
319.62	1.106
319.83	1.120
320.04	1.114
320.25	1.099
320.46	1.062
320.67	1.067
320.88	1.064
321.09	1.048
321.30	1.032
321.51	1.050
321.72	1.049
321.93	1.031
322.14	1.021
322.35	1.051
322.56	1.053
322.77	1.037
322.98	1.047
323.19	1.054
323.40	1.060
323.61	1.037
323.82	1.029
324.03	1.035
324.24	1.033
324.45	1.019
324.66	0.998
324.87	0.995
325.08	0.995
325.29	0.976
325.50	0.970
325.71	0.975
325.92	0.983
326.13	0.969
326.34	0.972
326.55	0.981
326.76	0.980
326.97	0.969
327.18	0.964
327.39	0.993
327.60	0.994
327.80	0.993
328.01	0.989
328.22	0.989
328.43	0.992
328.64	0.978
328.85	0.982
329.06	0.985
329.27	0.984
329.48	0.978
329.69	0.955
329.90	0.966
330.11	0.958
330.32	0.951
330.53	0.946
330.74	0.944
330.95	0.941
331.16	0.925
331.37	0.932
331.58	0.933
331.79	0.932
332.00	0.922
332.21	0.915
332.42	0.920
332.63	0.911
332.83	0.906
333.04	0.909
333.25	0.924
333.46	0.921
333.67	0.906
333.88	0.909
334.09	0.920
334.30	0.918
334.51	0.908
334.72	0.903
334.93	0.907
335.14	0.905
335.35	0.897
335.56	0.892
335.77	0.902
335.98	0.901
336.18	0.892
336.39	0.886
336.60	0.890
336.81	0.888
337.02	0.887
337.23	0.891
337.44	0.894
337.65	0.895
337.86	0.885
338.07	0.879
338.28	0.885
338.49	0.883
338.70	0.875
338.91	0.881
339.11	0.889
339.32	0.885
339.53	0.873
339.74	0.870
339.95	0.867
340.16	0.866
340.37	0.858
340.58	0.855
340.79	0.858
341.00	0.858
341.21	0.847
341.41	0.848
341.62	0.849
341.83	0.850
342.04	0.846
342.25	0.858
342.46	0.863
342.67	0.860
342.88	0.854
343.09	0.854
343.30	0.862
343.50	0.865
343.71	0.855
343.92	0.854
344.13	0.858
344.34	0.857
344.55	0.839
344.76	0.837
344.97	0.843
345.18	0.840
345.38	0.837
345.59	0.832
345.80	0.833
346.01	0.830
346.22	0.825
346.43	0.820
346.64	0.828
346.85	0.828
347.06	0.821
347.26	0.821
347.47	0.826
347.68	0.821
347.89	0.816
348.10	0.811
348.31	0.819
348.52	0.817
348.73	0.813
348.93	0.810
349.14	0.813
349.35	0.813
349.56	0.807
349.77	0.802
349.98	0.809
350.19	0.805
350.39	0.801
350.60	0.796
350.81	0.813
351.02	0.813
351.23	0.808
351.44	0.810
351.65	0.814
351.86	0.811
352.06	0.810
352.27	0.809
352.48	0.811
352.69	0.810
352.90	0.804
353.11	0.791
353.31	0.798
353.52	0.794
353.73	0.785
353.94	0.786
354.15	0.792
354.36	0.791
354.57	0.782
354.77	0.785
354.98	0.785
355.19	0.784
355.40	0.783
355.61	0.789
355.82	0.793
356.02	0.793
356.23	0.785
356.44	0.787
356.65	0.792
356.86	0.792
357.07	0.785
357.27	0.788
357.48	0.792
357.69	0.787
357.90	0.771
358.11	0.768
358.32	0.772
358.52	0.775
358.73	0.765
358.94	0.767
359.15	0.773
359.36	0.773
359.56	0.768
359.77	0.765
359.98	0.772
360.19	0.772
360.40	0.768
360.61	0.769
360.81	0.768
361.02	0.769
361.23	0.761
361.44	0.759
361.65	0.759
361.85	0.759
362.06	0.756
362.27	0.759
362.48	0.759
362.69	0.762
362.89	0.755
363.10	0.757
363.31	0.761
363.52	0.764
363.73	0.760
363.93	0.760
364.14	0.763
364.35	0.765
364.56	0.753
364.77	0.755
364.97	0.757
365.18	0.758
365.39	0.752
365.60	0.749
365.81	0.749
366.01	0.749
366.22	0.746
366.43	0.745
366.64	0.747
366.84	0.753
367.05	0.749
367.26	0.749
367.47	0.751
367.68	0.751
367.88	0.747
368.09	0.745
368.30	0.748
368.51	0.747
368.71	0.746
368.92	0.750
369.13	0.748
369.34	0.747
369.55	0.746
369.75	0.747
369.96	0.755
370.17	0.755
370.38	0.752
370.58	0.751
370.79	0.757
371.00	0.756
371.21	0.747
371.41	0.753
371.62	0.757
371.83	0.753
372.04	0.749
372.24	0.742
372.45	0.743
372.66	0.743
372.87	0.740
373.07	0.736
373.28	0.737
373.49	0.741
373.70	0.730
373.90	0.730
374.11	0.739
374.32	0.738
374.53	0.737
374.73	0.738
374.94	0.741
375.15	0.741
375.36	0.738
375.56	0.746
375.77	0.745
375.98	0.746
376.19	0.743
376.39	0.736
376.60	0.740
376.81	0.741
377.02	0.738
377.22	0.737
377.43	0.737
377.64	0.737
377.84	0.728
378.05	0.733
378.26	0.739
378.47	0.738
378.67	0.734
378.88	0.732
379.09	0.732
379.30	0.732
379.50	0.729
379.71	0.731
379.92	0.735
380.12	0.735
380.33	0.726
380.54	0.722
380.75	0.729
380.95	0.729
381.16	0.726
381.37	0.727
381.57	0.729
381.78	0.730
381.99	0.730
382.20	0.729
382.40	0.732
382.61	0.732
382.82	0.728
383.02	0.722
383.23	0.726
383.44	0.727
383.64	0.725
383.85	0.727
384.06	0.730
384.27	0.728
384.47	0.724
384.68	0.725
384.89	0.730
385.09	0.730
385.30	0.729
385.51	0.727
385.71	0.730
385.92	0.730
386.13	0.729
386.33	0.730
386.54	0.731
386.75	0.730
386.95	0.726
387.16	0.722
387.37	0.725
387.58	0.724
387.78	0.722
387.99	0.720
388.20	0.722
388.40	0.719
388.61	0.715
388.82	0.718
389.02	0.721
389.23	0.721
389.44	0.718
389.64	0.719
389.85	0.730
390.06	0.730
390.26	0.730
390.47	0.729
390.68	0.732
390.88	0.730
391.09	0.725
391.30	0.724
391.50	0.724
391.71	0.724
391.92	0.721
392.12	0.713
392.33	0.713
392.53	0.713
392.74	0.713
392.95	0.712
393.15	0.715
393.36	0.716
393.57	0.714
393.77	0.717
393.98	0.718
394.19	0.717
394.39	0.717
394.60	0.719
394.81	0.720
395.01	0.719
395.22	0.717
395.43	0.718
395.63	0.722
395.84	0.723
396.04	0.719
396.25	0.721
396.46	0.724
396.66	0.721
396.87	0.718
397.08	0.715
397.28	0.717
397.49	0.718
397.69	0.714
397.90	0.709
398.11	0.710
398.31	0.711
398.52	0.707
398.73	0.708
398.93	0.708
399.14	0.706
399.34	0.706
399.55	0.707
399.76	0.708
399.96	0.709
400.17	0.707
400.37	0.705
400.58	0.712
400.79	0.714
400.99	0.711
401.20	0.717
401.41	0.719
401.61	0.720
401.82	0.725
402.02	0.725
402.23	0.726
402.44	0.725
402.64	0.725
402.85	0.719
403.05	0.718
403.26	0.717
403.47	0.709
403.67	0.708
403.88	0.710
404.08	0.703
404.29	0.701
404.50	0.700
404.70	0.701
404.91	0.700
405.11	0.697
405.32	0.698
405.52	0.698
405.73	0.698
405.94	0.696
406.14	0.698
406.35	0.701
406.55	0.700
406.76	0.698
406.97	0.699
407.17	0.701
407.38	0.701
407.58	0.699
407.79	0.701
407.99	0.704
408.20	0.705
408.41	0.700
408.61	0.698
408.82	0.699
409.02	0.699
409.23	0.696
409.43	0.696
409.64	0.697
409.84	0.697
410.05	0.693
410.26	0.691
410.46	0.690
410.67	0.690
410.87	0.691
411.08	0.694
411.28	0.695
411.49	0.697
411.69	0.695
411.90	0.696
412.11	0.698
412.31	0.699
412.52	0.697
412.72	0.698
412.93	0.699
413.13	0.698
413.34	0.693
413.54	0.694
413.75	0.696
413.95	0.695
414.16	0.692
414.37	0.695
414.57	0.695
414.78	0.698
414.98	0.696
415.19	0.697
415.39	0.695
415.60	0.698
415.80	0.697
416.01	0.696
416.21	0.698
416.42	0.698
416.62	0.693
416.83	0.693
417.03	0.692
417.24	0.693
417.44	0.690
417.65	0.689
417.86	0.689
418.06	0.687
418.27	0.684
418.47	0.686
418.68	0.687
418.88	0.688
419.09	0.686
419.29	0.686
419.50	0.687
419.70	0.686
419.91	0.685
420.11	0.682
420.32	0.685
420.52	0.686
420.73	0.684
420.93	0.685
421.14	0.686
421.34	0.685
421.55	0.682
421.75	0.682
421.96	0.683
422.16	0.683
422.37	0.683
422.57	0.679
422.78	0.681
422.98	0.678
423.19	0.676
423.39	0.674
423.60	0.677
423.80	0.679
424.01	0.678
424.21	0.681
424.42	0.682
424.62	0.682
424.83	0.681
425.03	0.681
425.23	0.684
425.44	0.684
425.64	0.684
425.85	0.683
426.05	0.684
426.26	0.684
426.46	0.679
426.67	0.679
426.87	0.683
427.08	0.684
427.28	0.682
427.49	0.683
427.69	0.683
427.90	0.682
428.10	0.678
428.31	0.678
428.51	0.680
428.71	0.680
428.92	0.681
429.12	0.679
429.33	0.680
429.53	0.684
429.74	0.687
429.94	0.688
430.15	0.687
430.35	0.688
430.56	0.686
430.76	0.685
430.96	0.685
431.17	0.683
431.37	0.679
431.58	0.677
431.78	0.674
431.99	0.668
432.19	0.669
432.40	0.671
432.60	0.671
432.80	0.674
433.01	0.672
433.21	0.672
433.42	0.675
433.62	0.675
433.83	0.676
434.03	0.678
434.23	0.681
434.44	0.680
434.64	0.678
434.85	0.683
435.05	0.684
435.26	0.685
435.46	0.683
435.66	0.683
435.87	0.683
436.07	0.683
436.28	0.679
436.48	0.676
436.69	0.675
436.89	0.675
437.09	0.669
437.30	0.668
437.50	0.669
437.71	0.681
437.91	0.680
438.11	0.680
438.32	0.684
438.52	0.685
438.73	0.683
438.93	0.682
439.13	0.682
439.34	0.686
439.54	0.683
439.75	0.683
439.95	0.673
440.15	0.678
440.36	0.677
440.56	0.674
440.77	0.676
440.97	0.676
441.17	0.674
441.38	0.675
441.58	0.673
441.79	0.672
441.99	0.670
442.19	0.669
442.40	0.667
442.60	0.667
442.81	0.665
443.01	0.665
443.21	0.665
443.42	0.665
443.62	0.664
443.82	0.664
444.03	0.666
444.23	0.666
444.44	0.665
444.64	0.665
444.84	0.667
445.05	0.666
445.25	0.664
445.45	0.664
445.66	0.667
445.86	0.666
446.06	0.667
446.27	0.666
446.47	0.669
446.68	0.668
446.88	0.666
447.08	0.665
447.29	0.668
447.49	0.668
447.69	0.668
447.90	0.666
448.10	0.670
448.30	0.667
448.51	0.669
448.71	0.667
448.91	0.669
449.12	0.668
449.32	0.669
449.52	0.668
449.73	0.673
449.93	0.671
450.14	0.672
450.34	0.671
450.54	0.674
450.75	0.670
450.95	0.669
451.15	0.669
451.36	0.671
451.56	0.668
451.76	0.667
451.97	0.665
452.17	0.665
452.37	0.663
452.58	0.660
452.78	0.659
452.98	0.661
453.19	0.661
453.39	0.662
453.59	0.661
453.79	0.662
454.00	0.662
454.20	0.661
454.40	0.661
454.61	0.663
454.81	0.664
455.01	0.662
455.22	0.663
455.42	0.665
455.62	0.663
455.83	0.662
456.03	0.665
456.23	0.666
456.44	0.668
456.64	0.667
456.84	0.667
457.04	0.668
457.25	0.668
457.45	0.665
457.65	0.663
457.86	0.665
458.06	0.664
458.26	0.659
458.47	0.658
458.67	0.658
458.87	0.659
459.07	0.656
459.28	0.658
459.48	0.660
459.68	0.661
459.89	0.660
460.09	0.658
460.29	0.659
460.49	0.662
460.70	0.661
460.90	0.660
461.10	0.661
461.31	0.661
461.51	0.658
461.71	0.659
461.91	0.661
462.12	0.661
462.32	0.659
462.52	0.660
462.72	0.663
462.93	0.663
463.13	0.662
463.33	0.663
463.53	0.665
463.74	0.665
463.94	0.660
464.14	0.661
464.35	0.663
464.55	0.663
464.75	0.661
464.95	0.658
465.16	0.660
465.36	0.659
465.56	0.658
465.76	0.657
465.97	0.658
466.17	0.659
466.37	0.656
466.57	0.657
466.78	0.658
466.98	0.659
467.18	0.656
467.38	0.655
467.59	0.657
467.79	0.659
467.99	0.658
468.19	0.659
468.39	0.663
468.60	0.663
468.80	0.660
469.00	0.662
469.20	0.663
469.41	0.664
469.61	0.662
469.81	0.662
470.01	0.661
470.22	0.661
470.42	0.659
470.62	0.657
470.82	0.659
471.02	0.658
471.23	0.656
471.43	0.655
471.63	0.658
471.83	0.658
472.04	0.656
472.24	0.655
472.44	0.661
472.64	0.661
472.84	0.659
473.05	0.658
473.25	0.661
473.45	0.661
473.65	0.659
473.85	0.659
474.06	0.661
474.26	0.661
474.46	0.661
474.66	0.657
474.86	0.659
475.07	0.659
475.27	0.658
475.47	0.655
475.67	0.655
475.87	0.657
476.08	0.654
476.28	0.654
476.48	0.656
476.68	0.654
476.88	0.652
477.09	0.653
477.29	0.654
477.49	0.654
477.69	0.653
477.89	0.654
478.09	0.653
478.30	0.655
478.50	0.652
478.70	0.651
478.90	0.652
479.10	0.655
479.31	0.656
479.51	0.655
479.71	0.656
479.91	0.656
480.11	0.654
480.31	0.655
480.52	0.654
480.72	0.654
480.92	0.653
481.12	0.651
481.32	0.649
481.52	0.646
481.72	0.646
481.93	0.649
482.13	0.650
482.33	0.650
482.53	0.648
482.73	0.649
482.93	0.650
483.14	0.649
483.34	0.649
483.54	0.650
483.74	0.650
483.94	0.649
484.14	0.644
484.34	0.644
484.55	0.645
484.75	0.645
484.95	0.643
485.15	0.642
485.35	0.642
485.55	0.642
485.75	0.640
485.96	0.640
486.16	0.641
486.36	0.641
486.56	0.639
486.76	0.639
486.96	0.640
487.16	0.639
487.36	0.637
487.57	0.637
487.77	0.638
487.97	0.639
488.17	0.637
488.37	0.636
488.57	0.637
488.77	0.637
488.97	0.635
489.18	0.634
489.38	0.637
489.58	0.638
489.78	0.637
489.98	0.636
490.18	0.636
490.38	0.637
490.58	0.635
490.78	0.636
490.98	0.638
491.19	0.639
491.39	0.639
491.59	0.638
491.79	0.641
491.99	0.642
492.19	0.641
492.39	0.645
492.59	0.644
492.79	0.647
492.99	0.646
493.20	0.646
493.40	0.646
493.60	0.648
493.80	0.645
494.00	0.643
494.20	0.644
494.40	0.643
494.60	0.640
494.80	0.645
495.00	0.644
495.20	0.642
495.40	0.641
495.61	0.643
495.81	0.643
496.01	0.647
496.21	0.648
496.41	0.647
496.61	0.648
496.81	0.646
497.01	0.642
497.21	0.641
497.41	0.642
497.61	0.641
497.81	0.638
498.01	0.638
498.21	0.636
498.41	0.633
498.61	0.633
498.82	0.635
499.02	0.637
499.22	0.638
499.42	0.637
499.62	0.638
499.82	0.639
500.02	0.640
500.22	0.639
500.42	0.641
500.62	0.642
500.82	0.642
501.02	0.640
501.22	0.640
501.42	0.641
501.62	0.643
501.82	0.642
502.02	0.642
502.22	0.642
502.42	0.644
502.62	0.641
502.82	0.641
503.02	0.642
503.22	0.642
503.42	0.639
503.63	0.639
503.83	0.637
504.03	0.636
504.23	0.634
504.43	0.635
504.63	0.636
504.83	0.635
505.03	0.634
505.23	0.635
505.43	0.638
505.63	0.638
505.83	0.638
506.03	0.640
506.23	0.642
506.43	0.643
506.63	0.642
506.83	0.641
507.03	0.643
507.23	0.643
507.43	0.641
507.63	0.641
507.83	0.641
508.03	0.642
508.23	0.641
508.43	0.639
508.63	0.641
508.83	0.642
509.03	0.642
509.23	0.641
509.43	0.643
509.63	0.643
509.83	0.642
510.03	0.644
510.23	0.646
510.43	0.647
510.63	0.648
510.83	0.647
511.03	0.649
511.23	0.647
511.43	0.646
511.63	0.647
511.83	0.650
512.03	0.649
512.22	0.646
512.42	0.645
512.62	0.646
512.82	0.645
513.02	0.645
513.22	0.644
513.42	0.646
513.62	0.650
513.82	0.647
514.02	0.647
514.22	0.648
514.42	0.649
514.62	0.649
514.82	0.650
515.02	0.652
515.22	0.656
515.42	0.654
515.62	0.657
515.82	0.656
516.02	0.657
516.22	0.656
516.42	0.658
516.62	0.659
516.82	0.660
517.01	0.658
517.21	0.657
517.41	0.661
517.61	0.661
517.81	0.657
518.01	0.656
518.21	0.656
518.41	0.655
518.61	0.653
518.81	0.654
519.01	0.655
519.21	0.655
519.41	0.654
519.61	0.649
519.81	0.651
520.00	0.652
520.20	0.652
520.40	0.655
520.60	0.656
520.80	0.656
521.00	0.656
521.20	0.658
521.40	0.663
521.60	0.663
521.80	0.662
522.00	0.662
522.20	0.665
522.39	0.664
522.59	0.661
522.79	0.662
522.99	0.665
523.19	0.663
523.39	0.660
523.59	0.658
523.79	0.661
523.99	0.664
524.19	0.663
524.38	0.662
524.58	0.664
524.78	0.664
524.98	0.662
525.18	0.664
525.38	0.665
525.58	0.666
525.78	0.663
525.98	0.661
526.18	0.662
526.37	0.660
526.57	0.662
526.77	0.662
526.97	0.663
527.17	0.663
527.37	0.659
527.57	0.661
527.77	0.663
527.96	0.663
528.16	0.662
528.36	0.663
528.56	0.665
528.76	0.663
528.96	0.662
529.16	0.663
529.36	0.665
529.55	0.665
529.75	0.662
529.95	0.662
530.15	0.663
530.35	0.666
530.55	0.664
530.75	0.665
530.94	0.666
531.14	0.667
531.34	0.665
531.54	0.664
531.74	0.667
531.94	0.671
532.13	0.669
532.33	0.671
532.53	0.670
532.73	0.669
532.93	0.666
533.13	0.668
533.33	0.668
533.52	0.668
533.72	0.671
533.92	0.669
534.12	0.667
534.32	0.667
534.52	0.665
534.71	0.666
534.91	0.670
535.11	0.672
535.31	0.669
535.51	0.672
535.71	0.674
535.90	0.671
536.10	0.671
536.30	0.673
536.50	0.674
536.70	0.675
536.89	0.672
537.09	0.671
537.29	0.673
537.49	0.674
537.69	0.671
537.89	0.672
538.08	0.672
538.28	0.670
538.48	0.670
538.68	0.672
538.88	0.673
539.07	0.673
539.27	0.671
539.47	0.671
539.67	0.671
539.87	0.673
540.06	0.670
540.26	0.671
540.46	0.674
540.66	0.671
540.86	0.668
541.05	0.668
541.25	0.671
541.45	0.671
541.65	0.669
541.84	0.671
542.04	0.671
542.24	0.672
542.44	0.671
542.64	0.672
542.83	0.675
543.03	0.676
543.23	0.673
543.43	0.674
543.62	0.676
543.82	0.676
544.02	0.674
544.22	0.674
544.42	0.678
544.61	0.677
544.81	0.673
545.01	0.672
545.21	0.675
545.40	0.675
545.60	0.673
545.80	0.676
546.00	0.676
546.19	0.675
546.39	0.675
546.59	0.672
546.79	0.675
546.98	0.675
547.18	0.675
547.38	0.676
547.58	0.679
547.77	0.679
547.97	0.675
548.17	0.677
548.37	0.678
548.56	0.678
548.76	0.677
548.96	0.678
549.16	0.681
549.35	0.681
549.55	0.679
549.75	0.678
549.95	0.682
550.14	0.682
550.34	0.680
550.54	0.685
550.73	0.689
550.93	0.689
551.13	0.686
551.33	0.685
551.52	0.686
551.72	0.686
551.92	0.685
552.12	0.685
552.31	0.686
552.51	0.686
552.71	0.680
552.90	0.680
553.10	0.681
553.30	0.682
553.50	0.680
553.69	0.681
553.89	0.682
554.09	0.682
554.28	0.679
554.48	0.681
554.68	0.683
554.87	0.684
555.07	0.681
555.27	0.680
555.47	0.682
555.66	0.683
555.86	0.681
556.06	0.683
556.25	0.685
556.45	0.693
556.65	0.691
556.84	0.694
557.04	0.698
557.24	0.699
557.43	0.698
557.63	0.701
557.83	0.703
558.02	0.703
558.22	0.707
558.42	0.707
558.61	0.700
558.81	0.700
559.01	0.696
559.21	0.696
559.40	0.697
559.60	0.698
559.80	0.694
559.99	0.695
560.19	0.697
560.39	0.691
560.58	0.688
560.78	0.689
560.97	0.692
561.17	0.691
561.37	0.688
561.56	0.689
561.76	0.690
561.96	0.690
562.15	0.687
562.35	0.690
562.55	0.692
562.74	0.692
562.94	0.691
563.14	0.689
563.33	0.689
563.53	0.690
563.73	0.688
563.92	0.689
564.12	0.692
564.31	0.695
564.51	0.692
564.71	0.694
564.90	0.696
565.10	0.698
565.30	0.701
565.49	0.703
565.69	0.705
565.89	0.705
566.08	0.703
566.28	0.704
566.47	0.705
566.67	0.703
566.87	0.699
567.06	0.701
567.26	0.707
567.46	0.702
567.65	0.701
567.85	0.703
568.04	0.706
568.24	0.705
568.44	0.702
568.63	0.700
568.83	0.702
569.02	0.701
569.22	0.696
569.42	0.692
569.61	0.694
569.81	0.693
570.00	0.690
570.20	0.692
570.40	0.693
570.59	0.692
570.79	0.689
570.98	0.687
571.18	0.689
571.38	0.688
571.57	0.685
571.77	0.683
571.96	0.686
572.16	0.683
572.35	0.677
572.55	0.679
572.75	0.677
572.94	0.678
573.14	0.676
573.33	0.676
573.53	0.677
573.73	0.677
573.92	0.674
574.12	0.673
574.31	0.675
574.51	0.676
574.70	0.673
574.90	0.675
575.09	0.677
575.29	0.677
575.49	0.674
575.68	0.674
575.88	0.676
576.07	0.678
576.27	0.675
576.46	0.675
576.66	0.674
576.86	0.673
577.05	0.670
577.25	0.669
577.44	0.671
577.64	0.670
577.83	0.668
578.03	0.669
578.22	0.668
578.42	0.667
578.61	0.666
578.81	0.667
579.00	0.668
579.20	0.667
579.40	0.666
579.59	0.664
579.79	0.665
579.98	0.664
580.18	0.664
580.37	0.664
580.57	0.667
580.76	0.671
580.96	0.669
581.15	0.669
581.35	0.672
581.54	0.671
581.74	0.671
581.93	0.672
582.13	0.674
582.32	0.671
582.52	0.669
582.71	0.668
582.91	0.665
583.10	0.665
583.30	0.664
583.49	0.663
583.69	0.667
583.88	0.668
584.08	0.667
584.27	0.669
584.47	0.673
584.66	0.673
584.86	0.672
585.05	0.674
585.25	0.677
585.44	0.676
585.64	0.674
585.83	0.671
586.03	0.672
586.22	0.670
586.42	0.666
586.61	0.668
586.81	0.670
587.00	0.670
587.20	0.667
587.39	0.668
587.59	0.670
587.78	0.672
587.98	0.672
588.17	0.673
588.37	0.676
588.56	0.678
588.76	0.674
588.95	0.675
589.15	0.679
589.34	0.681
589.54	0.680
589.73	0.680
589.92	0.684
590.12	0.683
590.31	0.681
590.51	0.686
590.70	0.687
590.90	0.688
591.09	0.686
591.29	0.684
591.48	0.684
591.68	0.684
591.87	0.683
592.06	0.682
592.26	0.685
592.45	0.685
592.65	0.677
592.84	0.677
593.04	0.680
593.23	0.682
593.43	0.679
593.62	0.679
593.81	0.680
594.01	0.679
594.20	0.676
594.40	0.676
594.59	0.678
594.79	0.680
594.98	0.678
595.17	0.677
595.37	0.678
595.56	0.680
595.76	0.679
595.95	0.681
596.14	0.684
596.34	0.686
596.53	0.684
596.73	0.685
596.92	0.687
597.12	0.689
597.31	0.688
597.50	0.687
597.70	0.690
597.89	0.689
598.09	0.685
598.28	0.686
598.47	0.688
598.67	0.686
598.86	0.682
599.06	0.684
599.25	0.685
599.44	0.683
599.64	0.680
599.83	0.677
600.03	0.681
600.22	0.682
600.41	0.682
600.61	0.680
600.80	0.682
601.00	0.683
601.19	0.678
601.38	0.677
601.58	0.680
601.77	0.681
601.96	0.683
602.16	0.683
602.35	0.692
602.55	0.689
602.74	0.690
602.93	0.692
603.13	0.697
603.32	0.698
603.51	0.698
603.71	0.701
603.90	0.703
604.09	0.703
604.29	0.700
604.48	0.695
604.68	0.697
604.87	0.695
605.06	0.691
605.26	0.688
605.45	0.689
605.64	0.688
605.84	0.683
606.03	0.683
606.22	0.681
606.42	0.681
606.61	0.677
606.80	0.677
607.00	0.680
607.19	0.680
607.38	0.678
607.58	0.679
607.77	0.683
607.96	0.682
608.16	0.680
608.35	0.686
608.54	0.689
608.74	0.692
608.93	0.697
609.12	0.700
609.32	0.702
609.51	0.706
609.70	0.704
609.90	0.706
610.09	0.711
610.28	0.716
610.48	0.709
610.67	0.711
610.86	0.711
611.06	0.705
611.25	0.702
611.44	0.703
611.64	0.703
611.83	0.706
612.02	0.702
612.21	0.701
612.41	0.700
612.60	0.698
612.79	0.694
612.99	0.694
613.18	0.697
613.37	0.695
613.57	0.692
613.76	0.694
613.95	0.692
614.14	0.691
614.34	0.688
614.53	0.689
614.72	0.692
614.92	0.692
615.11	0.689
615.30	0.686
615.49	0.688
615.69	0.691
615.88	0.687
616.07	0.689
616.26	0.691
616.46	0.693
616.65	0.690
616.84	0.688
617.04	0.690
617.23	0.694
617.42	0.694
617.61	0.698
617.81	0.699
618.00	0.701
618.19	0.699
618.38	0.703
618.58	0.707
618.77	0.709
618.96	0.709
619.15	0.710
619.35	0.712
619.54	0.712
619.73	0.707
619.92	0.709
620.12	0.714
620.31	0.715
620.50	0.708
620.69	0.708
620.89	0.711
621.08	0.712
621.27	0.712
621.46	0.710
621.66	0.715
621.85	0.715
622.04	0.711
622.23	0.711
622.43	0.712
622.62	0.712
622.81	0.711
623.00	0.710
623.19	0.714
623.39	0.713
623.58	0.710
623.77	0.708
623.96	0.711
624.16	0.712
624.35	0.706
624.54	0.709
624.73	0.714
624.92	0.711
625.12	0.708
625.31	0.708
625.50	0.711
625.69	0.712
625.88	0.708
626.08	0.707
626.27	0.708
626.46	0.710
626.65	0.707
626.84	0.706
627.04	0.713
627.23	0.714
627.42	0.709
627.61	0.711
627.80	0.715
628.00	0.715
628.19	0.713
628.38	0.717
628.57	0.720
628.76	0.720
628.96	0.716
629.15	0.717
629.34	0.720
629.53	0.720
629.72	0.715
629.91	0.716
630.11	0.721
630.30	0.721
630.49	0.724
630.68	0.724
630.87	0.728
631.06	0.731
631.26	0.725
631.45	0.727
631.64	0.735
631.83	0.737
632.02	0.734
632.21	0.732
632.41	0.740
632.60	0.733
632.79	0.731
632.98	0.731
633.17	0.733
633.36	0.734
633.55	0.730
633.75	0.726
633.94	0.729
634.13	0.729
634.32	0.727
634.51	0.720
634.70	0.724
634.89	0.723
635.09	0.719
635.28	0.719
635.47	0.721
635.66	0.724
635.85	0.720
636.04	0.722
636.23	0.727
636.43	0.728
636.62	0.727
636.81	0.725
637.00	0.729
637.19	0.732
637.38	0.729
637.57	0.728
637.76	0.730
637.95	0.731
638.15	0.726
638.34	0.723
638.53	0.727
638.72	0.728
638.91	0.726
639.10	0.724
639.29	0.725
639.48	0.726
639.67	0.726
639.87	0.724
640.06	0.730
640.25	0.730
640.44	0.729
640.63	0.730
640.82	0.733
641.01	0.732
641.20	0.731
641.39	0.732
641.58	0.735
641.78	0.733
641.97	0.729
642.16	0.743
642.35	0.744
642.54	0.744
642.73	0.737
642.92	0.735
643.11	0.740
643.30	0.739
643.49	0.734
643.68	0.736
643.87	0.739
644.06	0.739
644.25	0.718
644.45	0.721
644.64	0.723
644.83	0.724
645.02	0.720
645.21	0.719
645.40	0.721
645.59	0.721
645.78	0.714
645.97	0.716
646.16	0.717
646.35	0.716
646.54	0.714
646.73	0.714
646.92	0.717
647.11	0.716
647.30	0.712
647.49	0.714
647.68	0.714
647.88	0.712
648.07	0.705
648.26	0.709
648.45	0.711
648.64	0.708
648.83	0.705
649.02	0.707
649.21	0.718
649.40	0.716
649.59	0.711
649.78	0.712
649.97	0.727
650.16	0.726
650.35	0.719
650.54	0.721
650.73	0.730
650.92	0.726
651.11	0.719
651.30	0.717
651.49	0.722
651.68	0.722
651.87	0.718
652.06	0.708
652.25	0.713
652.44	0.715
652.63	0.711
652.82	0.709
653.01	0.709
653.20	0.707
653.39	0.695
653.58	0.692
653.77	0.692
653.96	0.687
654.15	0.679
654.34	0.677
654.53	0.672
654.72	0.666
654.91	0.658
655.10	0.654
655.29	0.652
655.48	0.650
655.67	0.645
655.86	0.642
656.05	0.641
656.24	0.641
656.43	0.636
656.62	0.635
656.81	0.635
657.00	0.633
657.19	0.631
657.38	0.631
657.57	0.631
657.76	0.633
657.95	0.631
658.14	0.635
658.33	0.638
658.51	0.644
658.70	0.644
658.89	0.646
659.08	0.655
659.27	0.663
659.46	0.663
659.65	0.669
659.84	0.673
660.03	0.676
660.22	0.676
660.41	0.680
660.60	0.679
660.79	0.681
660.98	0.687
661.17	0.685
661.36	0.685
661.55	0.686
661.74	0.683
661.92	0.686
662.11	0.689
662.30	0.688
662.49	0.680
662.68	0.680
662.87	0.683
663.06	0.677
663.25	0.678
663.44	0.677
663.63	0.679
663.82	0.678
664.01	0.672
664.20	0.671
664.38	0.672
664.57	0.672
664.76	0.672
664.95	0.673
665.14	0.678
665.33	0.673
665.52	0.681
665.71	0.684
665.90	0.683
666.09	0.686
666.28	0.682
666.46	0.683
666.65	0.684
666.84	0.681
667.03	0.674
667.22	0.672
667.41	0.675
667.60	0.665
667.79	0.658
667.98	0.660
668.16	0.661
668.35	0.662
668.54	0.657
668.73	0.658
668.92	0.659
669.11	0.658
669.30	0.652
669.49	0.648
669.67	0.651
669.86	0.653
670.05	0.650
670.24	0.647
670.43	0.645
670.62	0.644
670.81	0.639
671.00	0.641
671.18	0.641
671.37	0.640
671.56	0.638
671.75	0.636
671.94	0.633
672.13	0.631
672.32	0.626
672.50	0.626
672.69	0.625
672.88	0.626
673.07	0.621
673.26	0.623
673.45	0.624
673.63	0.624
673.82	0.620
674.01	0.621
674.20	0.621
674.39	0.621
674.58	0.620
674.76	0.620
674.95	0.618
675.14	0.618
675.33	0.613
675.52	0.612
675.71	0.612
675.89	0.611
676.08	0.606
676.27	0.606
676.46	0.607
676.65	0.607
676.84	0.606
677.02	0.608
677.21	0.610
677.40	0.609
677.59	0.606
677.78	0.607
677.96	0.610
678.15	0.609
678.34	0.607
678.53	0.608
678.72	0.608
678.90	0.605
679.09	0.601
679.28	0.597
679.47	0.597
679.66	0.597
679.84	0.594
680.03	0.592
680.22	0.590
680.41	0.592
680.60	0.589
680.78	0.588
680.97	0.590
681.16	0.591
681.35	0.589
681.53	0.588
681.72	0.590
681.91	0.592
682.10	0.589
682.29	0.592
682.47	0.590
682.66	0.589
682.85	0.587
683.04	0.586
683.22	0.586
683.41	0.588
683.60	0.587
683.79	0.588
683.97	0.587
684.16	0.587
684.35	0.582
684.54	0.584
684.72	0.584
684.91	0.585
685.10	0.583
685.29	0.584
685.47	0.581
685.66	0.580
685.85	0.576
686.04	0.575
686.22	0.577
686.41	0.580
686.60	0.577
686.79	0.579
686.97	0.580
687.16	0.582
687.35	0.579
687.54	0.582
687.72	0.586
687.91	0.586
688.10	0.588
688.29	0.588
688.47	0.587
688.66	0.586
688.85	0.583
689.03	0.580
689.22	0.585
689.41	0.585
689.60	0.581
689.78	0.578
689.97	0.579
690.16	0.575
690.34	0.571
690.53	0.571
690.72	0.572
690.91	0.570
691.09	0.568
691.28	0.562
691.47	0.560
691.65	0.558
691.84	0.555
692.03	0.554
692.21	0.552
692.40	0.552
692.59	0.549
692.77	0.548
692.96	0.549
693.15	0.549
693.34	0.547
693.52	0.548
693.71	0.549
693.90	0.550
694.08	0.550
694.27	0.552
694.46	0.561
694.64	0.563
694.83	0.562
695.02	0.561
695.20	0.561
695.39	0.560
695.58	0.561
695.76	0.561
695.95	0.561
696.14	0.561
696.32	0.558
696.51	0.548
696.70	0.548
696.88	0.549
697.07	0.548
697.26	0.549
697.44	0.551
697.63	0.549
697.81	0.547
698.00	0.546
698.19	0.545
698.37	0.546
698.56	0.545
698.75	0.546
698.93	0.546
699.12	0.546
699.31	0.544
699.49	0.544
699.68	0.545
699.87	0.548
700.05	0.548
700.24	0.548
700.42	0.550
700.61	0.549
700.80	0.546
700.98	0.546
701.17	0.548
701.36	0.546
701.54	0.546
701.73	0.547
701.91	0.545
702.10	0.544
702.29	0.542
702.47	0.540
702.66	0.542
702.84	0.543
703.03	0.542
703.22	0.543
703.40	0.543
703.59	0.544
703.77	0.543
703.96	0.543
704.15	0.544
704.33	0.544
704.52	0.543
704.70	0.542
704.89	0.542
705.08	0.540
705.26	0.536
705.45	0.536
705.63	0.536
705.82	0.533
706.00	0.531
706.19	0.530
706.38	0.531
706.56	0.530
706.75	0.528
706.93	0.526
707.12	0.528
707.30	0.529
707.49	0.527
707.68	0.525
707.86	0.524
708.05	0.525
708.23	0.523
708.42	0.523
708.60	0.526
708.79	0.526
708.98	0.524
709.16	0.523
709.35	0.526
709.53	0.529
709.72	0.528
709.90	0.530
710.09	0.532
710.27	0.534
710.46	0.538
710.64	0.536
710.83	0.538
711.02	0.540
711.20	0.538
711.39	0.537
711.57	0.535
711.76	0.535
711.94	0.533
712.13	0.534
712.31	0.534
712.50	0.528
712.68	0.526
712.87	0.527
713.05	0.527
713.24	0.527
713.42	0.526
713.61	0.527
713.79	0.528
713.98	0.528
714.16	0.529
714.35	0.528
714.54	0.530
714.72	0.530
714.91	0.528
715.09	0.534
715.28	0.538
715.46	0.538
715.65	0.536
715.83	0.535
716.02	0.537
716.20	0.534
716.39	0.532
716.57	0.533
716.76	0.536
716.94	0.537
717.12	0.528
717.31	0.530
717.49	0.533
717.68	0.534
717.86	0.534
718.05	0.536
718.23	0.539
718.42	0.541
718.60	0.542
718.79	0.550
718.97	0.552
719.16	0.552
719.34	0.549
719.53	0.550
719.71	0.550
719.90	0.551
720.08	0.548
720.27	0.548
720.45	0.549
720.63	0.548
720.82	0.541
721.00	0.544
721.19	0.548
721.37	0.547
721.56	0.547
721.74	0.550
721.93	0.560
722.11	0.567
722.30	0.566
722.48	0.572
722.66	0.574
722.85	0.574
723.03	0.573
723.22	0.571
723.40	0.574
723.59	0.574
723.77	0.578
723.95	0.571
724.14	0.573
724.32	0.575
724.51	0.574
724.69	0.575
724.88	0.576
725.06	0.575
725.24	0.575
725.43	0.577
725.61	0.580
725.80	0.574
725.98	0.571
726.16	0.568
726.35	0.573
726.53	0.571
726.72	0.570
726.90	0.580
727.09	0.581
727.27	0.587
727.45	0.584
727.64	0.594
727.82	0.603
728.01	0.609
728.19	0.606
728.37	0.612
728.56	0.617
728.74	0.623
728.92	0.610
729.11	0.613
729.29	0.612
729.48	0.614
729.66	0.603
729.84	0.601
730.03	0.605
730.21	0.606
730.40	0.596
730.58	0.597
730.76	0.598
730.95	0.602
731.13	0.601
731.31	0.615
731.50	0.625
731.68	0.628
731.86	0.625
732.05	0.639
732.23	0.644
732.42	0.648
732.60	0.652
732.78	0.657
732.97	0.676
733.15	0.685
733.33	0.673
733.52	0.680
733.70	0.691
733.88	0.700
734.07	0.685
734.25	0.714
734.43	0.724
734.62	0.726
734.80	0.719
734.98	0.711
735.17	0.717
735.35	0.724
735.53	0.712
735.72	0.717
735.90	0.743
736.08	0.765
736.27	0.738
736.45	0.747
736.63	0.762
736.82	0.774
737.00	0.772
737.18	0.784
737.37	0.820
737.55	0.844
737.73	0.837
737.92	0.841
738.10	0.841
738.28	0.867
738.46	0.853
738.65	0.869
738.83	0.896
739.01	0.960
739.20	0.948
739.38	0.926
739.56	0.919
739.75	0.926
739.93	0.886
740.11	0.910
740.29	0.910
740.48	0.919
740.66	0.892
740.84	0.887
741.03	0.847
741.21	0.866
741.39	0.844
741.57	0.861
741.76	0.880
741.94	0.887
742.12	0.849
742.31	0.856
742.49	0.881
742.67	0.910
742.85	0.921
743.04	0.927
743.22	0.935
743.40	1.002
743.58	0.977
743.77	0.992
743.95	1.038
744.13	1.094
744.31	1.068
744.50	1.063
744.68	1.070
744.86	1.041
745.04	1.056
745.23	1.138
745.41	1.114
745.59	1.120
745.77	1.078
745.96	1.061
746.14	1.078
746.32	1.075
746.50	1.060
746.69	1.038
746.87	1.055
747.05	1.035
747.23	0.947
747.42	0.935
747.60	0.975
747.78	0.977
747.96	1.013
748.14	0.961
748.33	0.997
748.51	0.990
748.69	0.976
748.87	1.011
749.06	1.006
749.24	1.000
749.42	0.979
749.60	0.952
749.78	0.966
749.97	0.915
750.15	0.908
750.33	0.906
750.51	0.934
750.69	0.939
750.88	0.941
751.06	0.959
751.24	0.994
751.42	0.979
751.60	0.966
751.79	1.057
751.97	1.114
752.15	1.105
752.33	1.063
752.51	1.149
752.69	1.179
752.88	1.136
753.06	1.187
753.24	1.153
753.42	1.201
753.60	1.461
753.78	1.235
753.97	1.254
754.15	1.288
754.33	1.337
754.51	1.157
754.69	1.133
754.87	1.168
755.06	1.075
755.24	1.071
755.42	1.085
755.60	0.967
755.78	0.971
755.96	0.907
756.15	0.908
756.33	0.918
756.51	0.935
756.69	0.918
756.87	0.882
757.05	0.905
757.23	0.890
757.42	0.850
757.60	0.843
757.78	0.834
757.96	0.834
758.14	0.813
758.32	0.794
758.50	0.811
758.69	0.807
758.87	0.796
759.05	0.800
759.23	0.811
759.41	0.811
759.59	0.807
759.77	0.831
759.95	0.864
760.13	0.918
760.32	0.915
760.50	0.908
760.68	0.943
760.86	0.944
761.04	0.910
761.22	0.915
761.40	0.972
761.58	0.974
761.76	0.939
761.95	0.915
762.13	0.870
762.31	0.868
762.49	0.833
762.67	0.852
762.85	0.870
763.03	0.865
763.21	0.839
763.39	0.817
763.57	0.821
763.75	0.817
763.94	0.801
764.12	0.799
764.30	0.827
764.48	0.833
764.66	0.789
764.84	0.785
765.02	0.830
765.20	0.840
765.38	0.817
765.56	0.823
765.74	0.867
765.92	0.868
766.10	0.879
766.28	0.870
766.46	0.902
766.65	0.904
766.83	0.890
767.01	0.870
767.19	0.881
767.37	0.882
767.55	0.866
767.73	0.844
767.91	0.848
768.09	0.834
768.27	0.819
768.45	0.808
768.63	0.816
768.81	0.818
768.99	0.787
769.17	0.813
769.35	0.829
769.53	0.827
769.71	0.802
769.89	0.814
770.07	0.823
770.25	0.807
770.43	0.782
770.61	0.808
770.79	0.815
770.97	0.825
771.15	0.787
771.33	0.792
771.51	0.797
771.69	0.809
771.87	0.813
772.05	0.816
772.24	0.825
772.42	0.832
772.60	0.806
772.78	0.872
772.96	0.904
773.14	0.903
773.32	0.879
773.49	0.886
773.67	0.887
773.85	0.868
774.03	0.851
774.21	0.889
774.39	0.906
774.57	0.937
774.75	0.852
774.93	0.846
775.11	0.873
775.29	0.878
775.47	0.877
775.65	0.889
775.83	0.909
776.01	0.937
776.19	0.881
776.37	0.882
776.55	0.878
776.73	0.874
776.91	0.868
777.09	0.851
777.27	0.851
777.45	0.836
777.63	0.811
777.81	0.804
777.99	0.792
778.17	0.791
778.35	0.765
778.53	0.757
778.71	0.765
778.89	0.750
779.07	0.736
779.24	0.740
779.42	0.746
779.60	0.767
779.78	0.761
779.96	0.769
780.14	0.780
780.32	0.803
780.50	0.781
780.68	0.780
780.86	0.773
781.04	0.794
781.22	0.797
781.40	0.806
781.58	0.795
781.75	0.788
781.93	0.766
782.11	0.764
782.29	0.750
782.47	0.750
782.65	0.734
782.83	0.764
783.01	0.755
783.19	0.748
783.37	0.732
783.55	0.734
783.72	0.754
783.90	0.767
784.08	0.756
784.26	0.769
784.44	0.789
784.62	0.793
784.80	0.756
784.98	0.762
785.16	0.769
785.33	0.783
785.51	0.768
785.69	0.754
785.87	0.754
786.05	0.767
786.23	0.761
786.41	0.757
786.59	0.765
786.77	0.764
786.94	0.751
787.12	0.755
787.30	0.758
787.48	0.755
787.66	0.742
787.84	0.741
788.02	0.732
788.19	0.730
788.37	0.715
788.55	0.717
788.73	0.718
788.91	0.711
789.09	0.693
789.27	0.681
789.44	0.695
789.62	0.701
789.80	0.710
789.98	0.737
790.16	0.724
790.34	0.722
790.51	0.708
790.69	0.730
790.87	0.739
791.05	0.737
791.23	0.731
791.41	0.730
791.58	0.739
791.76	0.716
791.94	0.681
792.12	0.690
792.30	0.692
792.48	0.690
792.65	0.682
792.83	0.689
793.01	0.697
793.19	0.694
793.37	0.676
793.54	0.673
793.72	0.685
793.90	0.684
794.08	0.670
794.26	0.674
794.43	0.685
794.61	0.666
794.79	0.653
794.97	0.652
795.15	0.658
795.32	0.664
795.50	0.653
795.68	0.649
795.86	0.655
796.04	0.658
796.21	0.650
796.39	0.647
796.57	0.664
796.75	0.673
796.92	0.675
797.10	0.680
797.28	0.682
797.46	0.687
797.64	0.687
797.81	0.697
797.99	0.702
798.17	0.704
798.35	0.697
798.52	0.700
798.70	0.694
798.88	0.702
799.06	0.703
799.23	0.705
799.41	0.712
799.59	0.702
799.77	0.688
799.94	0.699
800.12	0.713
800.30	0.732
800.48	0.730
800.65	0.733
800.83	0.722
801.01	0.711
801.19	0.710
801.36	0.707
801.54	0.714
801.72	0.726
801.90	0.707
802.07	0.701
802.25	0.687
802.43	0.672
802.60	0.666
802.78	0.674
802.96	0.680
803.14	0.672
803.31	0.669
803.49	0.668
803.67	0.663
803.84	0.669
804.02	0.658
804.20	0.659
804.38	0.664
804.55	0.662
804.73	0.647
804.91	0.648
805.08	0.663
805.26	0.660
805.44	0.731
805.61	0.735
805.79	0.735
805.97	0.735
806.15	0.727
806.32	0.724
806.50	0.731
806.68	0.732
806.85	0.721
807.03	0.711
807.21	0.728
807.38	0.653
807.56	0.641
807.74	0.651
807.91	0.658
808.09	0.659
808.27	0.678
808.44	0.705
808.62	0.715
808.80	0.719
808.97	0.712
809.15	0.706
809.33	0.725
809.50	0.733
809.68	0.718
809.86	0.728
810.03	0.765
810.21	0.740
810.39	0.719
810.56	0.724
810.74	0.750
810.91	0.828
811.09	0.816
811.27	0.840
811.44	0.847
811.62	0.850
811.80	0.829
811.97	0.796
812.15	0.799
812.33	0.795
812.50	0.779
812.68	0.766
812.85	0.708
813.03	0.711
813.21	0.677
813.38	0.670
813.56	0.675
813.74	0.685
813.91	0.690
814.09	0.721
814.26	0.718
814.44	0.719
814.62	0.707
814.79	0.709
814.97	0.714
815.14	0.718
815.32	0.723
815.50	0.739
815.67	0.742
815.85	0.734
816.02	0.723
816.20	0.729
816.38	0.750
816.55	0.756
816.73	0.756
816.90	0.770
817.08	0.806
817.26	0.814
817.43	0.792
817.61	0.821
817.78	0.844
817.96	0.820
818.13	0.808
818.31	0.805
818.49	0.819
818.66	0.809
818.84	0.789
819.01	0.763
819.19	0.770
819.36	0.774
819.54	0.740
819.71	0.786
819.89	0.802
820.07	0.815
820.24	0.809
820.42	0.812
820.59	0.832
820.77	0.861
820.94	0.851
821.12	0.872
821.29	0.892
821.47	0.894
821.64	0.819
821.82	0.833
822.00	0.834
822.17	0.831
822.35	0.822
822.52	0.827
822.70	0.816
822.87	0.827
823.05	0.806
823.22	0.820
823.40	0.855
823.57	0.884
823.75	0.863
823.92	0.890
824.10	0.916
824.27	0.966
824.45	0.955
824.62	1.032
824.80	1.054
824.97	1.074
825.15	1.060
825.32	1.078
825.50	1.080
825.67	1.093
825.85	1.064
826.02	1.092
826.20	1.130
826.37	1.312
826.55	1.194
826.72	1.551
826.90	1.777
827.07	1.944
827.25	1.734
827.42	-0.000
827.60	-0.000
827.77	-0.000
827.95	-0.000
828.12	-0.000
828.30	-0.000
828.47	-0.000
828.65	1.897
828.82	2.201
829.00	-0.000
829.17	-0.000
829.34	-0.000
829.52	-0.000
829.69	-0.000
829.87	-0.000
830.04	-0.000
830.22	-0.000
830.39	-0.000
830.57	-0.000
830.74	-0.000
830.92	-0.000
831.09	-0.000
831.26	-0.000
831.44	-0.000
831.61	-0.000
831.79	-0.000
831.96	-0.000
832.14	-0.000
832.31	-0.000
832.49	-0.000
832.66	-0.000
832.83	-0.000
833.01	-0.000
833.18	-0.000
833.36	-0.000
833.53	-0.000
833.70	-0.000
833.88	-0.000
834.05	-0.000
834.23	-0.000
834.40	-0.000
834.58	-0.000
834.75	-0.000
834.92	-0.000
835.10	-0.000
835.27	-0.000
835.45	-0.000
835.62	-0.000
835.79	-0.000
835.97	-0.000
836.14	-0.000
836.32	-0.000
836.49	-0.000
836.66	-0.000
836.84	-0.000
837.01	-0.000
837.18	-0.000
837.36	-0.000
837.53	-0.000
837.71	-0.000
837.88	-0.000
838.05	-0.000
838.23	-0.000
838.40	-0.000
838.58	-0.000
838.75	-0.000
838.92	-0.000
839.10	-0.000
839.27	-0.000
839.44	-0.000
839.62	-0.000
839.79	-0.000
839.96	-0.000
840.14	-0.000
840.31	-0.000
840.48	-0.000
840.66	-0.000
840.83	-0.000
841.01	-0.000
841.18	-0.000
841.35	-0.000
841.53	-0.000
841.70	-0.000
841.87	-0.000
842.05	-0.000
842.22	-0.000
842.39	-0.000
842.57	-0.000
842.74	-0.000
842.91	-0.000
843.09	-0.000
843.26	-0.000
843.43	-0.000
843.60	-0.000
843.78	-0.000
843.95	-0.000
844.12	-0.000
844.30	-0.000
844.47	-0.000
844.64	-0.000
844.82	-0.000
844.99	-0.000
845.16	-0.000
845.34	-0.000
845.51	-0.000
845.68	-0.000
845.85	-0.000
846.03	-0.000
846.20	-0.000
846.37	-0.000
846.55	-0.000
846.72	-0.000
846.89	-0.000
847.06	-0.000
847.24	-0.000
847.41	-0.000
847.58	-0.000
847.76	-0.000
847.93	-0.000
848.10	-0.000
848.27	-0.000
848.45	-0.000
848.62	-0.000
848.79	-0.000
848.97	-0.000
849.14	-0.000
849.31	-0.000
849.48	-0.000
849.66	-0.000
849.83	-0.000
850.00	-0.000
850.17	-0.000
850.35	-0.000
850.52	-0.000
850.69	-0.000
850.86	-0.000
851.04	-0.000
851.21	-0.000
851.38	-0.000
851.55	-0.000
851.72	-0.000
851.90	-0.000
852.07	-0.000
852.24	-0.000
852.41	-0.000
852.59	-0.000
852.76	-0.000
852.93	-0.000
853.10	-0.000
853.28	-0.000
853.45	-0.000
853.62	-0.000
853.79	-0.000
853.96	-0.000
854.14	-0.000
854.31	-0.000
854.48	-0.000
854.65	-0.000
854.82	-0.000
855.00	-0.000
855.17	-0.000
855.34	-0.000
855.51	-0.000
855.68	-0.000
855.86	-0.000
856.03	-0.000
856.20	-0.000
856.37	-0.000
856.54	-0.000
856.72	-0.000
856.89	-0.000
857.06	-0.000
857.23	-0.000
857.40	-0.000
857.57	-0.000
857.75	-0.000
857.92	-0.000
858.09	-0.000
858.26	-0.000
858.43	-0.000
858.60	-0.000
858.78	-0.000
858.95	-0.000
859.12	-0.000
859.29	-0.000
859.46	-0.000
859.63	-0.000
859.81	-0.000
859.98	-0.000
860.15	-0.000
860.32	-0.000
860.49	-0.000
860.66	-0.000
860.83	-0.000
861.01	-0.000
861.18	-0.000
861.35	-0.000
861.52	-0.000
861.69	-0.000
861.86	-0.000
862.03	-0.000
862.21	-0.000
862.38	-0.000
862.55	-0.000
862.72	-0.000
862.89	-0.000
863.06	-0.000
863.23	-0.000
863.40	-0.000
863.58	-0.000
863.75	-0.000
863.92	-0.000
864.09	-0.000
864.26	-0.000
864.43	-0.000
864.60	-0.000
864.77	-0.000
864.94	-0.000
865.11	-0.000
865.29	-0.000
865.46	-0.000
865.63	-0.000
865.80	-0.000
865.97	-0.000
866.14	-0.000
866.31	-0.000
866.48	-0.000
866.65	-0.000
866.82	-0.000
866.99	-0.000
867.16	-0.000
867.34	-0.000
867.51	-0.000
867.68	-0.000
867.85	-0.000
868.02	-0.000
868.19	-0.000
868.36	-0.000
868.53	-0.000
868.70	-0.000
868.87	-0.000
869.04	-0.000
869.21	-0.000
869.38	-0.000
869.55	-0.000
869.72	-0.000
869.89	-0.000
870.06	-0.000
870.24	-0.000
870.41	-0.000
870.58	-0.000
870.75	-0.000
870.92	-0.000
871.09	-0.000
871.26	-0.000
871.43	-0.000
871.60	-0.000
871.77	-0.000
871.94	-0.000
872.11	-0.000
872.28	-0.000
872.45	-0.000
872.62	-0.000
872.79	-0.000
872.96	-0.000
873.13	-0.000
873.30	-0.000
873.47	-0.000
873.64	-0.000
873.81	-0.000
873.98	-0.000
874.15	-0.000
874.32	-0.000
874.49	-0.000
874.66	-0.000
874.83	-0.000
875.00	-0.000
875.17	-0.000
875.34	-0.000
875.51	-0.000
875.68	-0.000
875.85	-0.000
876.02	-0.000
876.19	-0.000
876.36	-0.000
876.53	-0.000
876.70	-0.000
876.87	-0.000
877.04	-0.000
877.21	-0.000
877.38	-0.000
877.55	-0.000
877.72	-0.000
877.89	-0.000
878.06	-0.000
878.23	-0.000
878.39	-0.000
878.56	-0.000
878.73	-0.000
878.90	-0.000
879.07	-0.000
879.24	-0.000
879.41	-0.000
879.58	-0.000
879.75	-0.000
879.92	-0.000
880.09	-0.000
880.26	-0.000
880.43	-0.000
880.60	-0.000
880.77	-0.000
880.94	-0.000
881.11	-0.000
881.27	-0.000
881.44	-0.000
881.61	-0.000
881.78	-0.000
881.95	-0.000
882.12	-0.000
882.29	-0.000
882.46	-0.000
882.63	-0.000
882.80	-0.000
882.97	-0.000
883.14	-0.000
883.30	-0.000
883.47	-0.000
883.64	-0.000
883.81	-0.000
883.98	-0.000
884.15	-0.000
884.32	-0.000
884.49	-0.000
884.66	-0.000
884.82	-0.000
884.99	-0.000
885.16	-0.000
885.33	-0.000
885.50	-0.000
885.67	-0.000
885.84	-0.000
886.01	-0.000
886.17	-0.000
886.34	-0.000
886.51	-0.000
886.68	-0.000
886.85	-0.000
887.02	-0.000
887.19	-0.000
887.36	-0.000
887.52	-0.000
887.69	-0.000
887.86	-0.000
888.03	-0.000
888.20	-0.000
888.37	-0.000
888.54	-0.000
888.70	-0.000
888.87	-0.000
889.04	-0.000
889.21	-0.000
889.38	-0.000
889.55	-0.000
889.71	-0.000
889.88	-0.000
890.05	-0.000
890.22	-0.000
890.39	-0.000
>>>>>End Processed Spectral Data<<<<<
