SpectraSuite Data File
++++++++++++++++++++++++++++++++++++
Date: Fri Jun 19 11:40:02 CEST 2015
User: introlabs
Dark Spectrum Present: Yes
Reference Spectrum Present: Yes
Number of Sampled Component Spectra: 1
Spectrometers: USB4H08886
Integration Time (usec): 5245692 (USB4H08886)
Spectra Averaged: 5 (USB4H08886)
Boxcar Smoothing: 5 (USB4H08886)
Correct for Electrical Dark: Yes (USB4H08886)
Strobe/Lamp Enabled: No (USB4H08886)
Correct for Detector Non-linearity: Yes (USB4H08886)
Correct for Stray Light: Yes (USB4H08886)
Number of Pixels in Processed Spectrum: 3648
>>>>>Begin Processed Spectral Data<<<<<
178.14	-0.000
178.36	-0.000
178.57	-0.000
178.79	-0.000
179.01	-0.000
179.22	-0.000
179.44	-0.000
179.65	-0.000
179.87	-0.000
180.08	-0.000
180.30	-0.000
180.52	-0.000
180.73	-0.000
180.95	-0.000
181.16	-0.000
181.38	-0.000
181.59	-0.000
181.81	-0.000
182.03	-0.000
182.24	-0.000
182.46	-0.000
182.67	-0.000
182.89	-0.000
183.10	-0.000
183.32	-0.000
183.54	-0.000
183.75	-0.000
183.97	-0.000
184.18	-0.000
184.40	-0.000
184.61	-0.000
184.83	-0.000
185.04	-0.000
185.26	-0.000
185.48	-0.000
185.69	-0.000
185.91	-0.000
186.12	-0.000
186.34	-0.000
186.55	-0.000
186.77	-0.000
186.98	-0.000
187.20	-0.000
187.42	-0.000
187.63	-0.000
187.85	-0.000
188.06	-0.000
188.28	-0.000
188.49	-0.000
188.71	-0.000
188.92	-0.000
189.14	-0.000
189.36	-0.000
189.57	-0.000
189.79	-0.000
190.00	-0.000
190.22	-0.000
190.43	-0.000
190.65	-0.000
190.86	-0.000
191.08	-0.000
191.29	-0.000
191.51	-0.000
191.72	-0.000
191.94	-0.000
192.16	-0.000
192.37	-0.000
192.59	-0.000
192.80	-0.000
193.02	-0.000
193.23	-0.000
193.45	-0.000
193.66	-0.000
193.88	-0.000
194.09	-0.000
194.31	-0.000
194.52	-0.000
194.74	-0.000
194.95	-0.000
195.17	-0.000
195.38	-0.000
195.60	-0.000
195.81	-0.000
196.03	-0.000
196.25	-0.000
196.46	-0.000
196.68	-0.000
196.89	-0.000
197.11	-0.000
197.32	-0.000
197.54	-0.000
197.75	-0.000
197.97	-0.000
198.18	-0.000
198.40	-0.000
198.61	-0.000
198.83	-0.000
199.04	-0.000
199.26	-0.000
199.47	-0.000
199.69	-0.000
199.90	-0.000
200.12	-0.000
200.33	-0.000
200.55	-0.000
200.76	-0.000
200.98	-0.000
201.19	-0.000
201.41	-0.000
201.62	-0.000
201.84	-0.000
202.05	-0.000
202.27	-0.000
202.48	-0.000
202.70	-0.000
202.91	-0.000
203.13	-0.000
203.34	-0.000
203.56	-0.000
203.77	-0.000
203.99	-0.000
204.20	-0.000
204.42	-0.000
204.63	-0.000
204.85	-0.000
205.06	-0.000
205.28	-0.000
205.49	-0.000
205.71	-0.000
205.92	-0.000
206.14	-0.000
206.35	-0.000
206.56	-0.000
206.78	-0.000
206.99	-0.000
207.21	-0.000
207.42	-0.000
207.64	-0.000
207.85	-0.000
208.07	-0.000
208.28	-0.000
208.50	-0.000
208.71	-0.000
208.93	-0.000
209.14	-0.000
209.36	-0.000
209.57	-0.000
209.79	-0.000
210.00	-0.000
210.22	-0.000
210.43	-0.000
210.64	-0.000
210.86	-0.000
211.07	-0.000
211.29	-0.000
211.50	-0.000
211.72	-0.000
211.93	-0.000
212.15	-0.000
212.36	-0.000
212.58	-0.000
212.79	-0.000
213.01	-0.000
213.22	-0.000
213.43	-0.000
213.65	-0.000
213.86	-0.000
214.08	-0.000
214.29	-0.000
214.51	-0.000
214.72	-0.000
214.94	-0.000
215.15	-0.000
215.36	-0.000
215.58	-0.000
215.79	-0.000
216.01	-0.000
216.22	-0.000
216.44	-0.000
216.65	-0.000
216.87	-0.000
217.08	-0.000
217.29	-0.000
217.51	-0.000
217.72	-0.000
217.94	-0.000
218.15	-0.000
218.37	-0.000
218.58	-0.000
218.80	-0.000
219.01	-0.000
219.22	-0.000
219.44	-0.000
219.65	-0.000
219.87	-0.000
220.08	-0.000
220.30	-0.000
220.51	-0.000
220.72	-0.000
220.94	-0.000
221.15	-0.000
221.37	-0.000
221.58	-0.000
221.79	-0.000
222.01	-0.000
222.22	-0.000
222.44	-0.000
222.65	-0.000
222.87	-0.000
223.08	-0.000
223.29	-0.000
223.51	-0.000
223.72	-0.000
223.94	-0.000
224.15	-0.000
224.36	-0.000
224.58	-0.000
224.79	-0.000
225.01	-0.000
225.22	-0.000
225.44	-0.000
225.65	-0.000
225.86	-0.000
226.08	-0.000
226.29	-0.000
226.51	-0.000
226.72	-0.000
226.93	-0.000
227.15	-0.000
227.36	-0.000
227.58	-0.000
227.79	-0.000
228.00	-0.000
228.22	-0.000
228.43	-0.000
228.65	-0.000
228.86	-0.000
229.07	-0.000
229.29	-0.000
229.50	-0.000
229.72	-0.000
229.93	-0.000
230.14	-0.000
230.36	-0.000
230.57	-0.000
230.78	-0.000
231.00	-0.000
231.21	-0.000
231.43	-0.000
231.64	-0.000
231.85	-0.000
232.07	-0.000
232.28	-0.000
232.50	-0.000
232.71	-0.000
232.92	-0.000
233.14	-0.000
233.35	-0.000
233.56	-0.000
233.78	-0.000
233.99	-0.000
234.21	-0.000
234.42	-0.000
234.63	-0.000
234.85	-0.000
235.06	-0.000
235.27	-0.000
235.49	-0.000
235.70	-0.000
235.91	-0.000
236.13	-0.000
236.34	-0.000
236.56	-0.000
236.77	-0.000
236.98	-0.000
237.20	-0.000
237.41	-0.000
237.62	-0.000
237.84	-0.000
238.05	-0.000
238.26	-0.000
238.48	-0.000
238.69	-0.000
238.91	-0.000
239.12	-0.000
239.33	-0.000
239.55	-0.000
239.76	-0.000
239.97	-0.000
240.19	-0.000
240.40	-0.000
240.61	-0.000
240.83	-0.000
241.04	-0.000
241.25	-0.000
241.47	-0.000
241.68	-0.000
241.89	-0.000
242.11	-0.000
242.32	-0.000
242.53	-0.000
242.75	-0.000
242.96	-0.000
243.17	-0.000
243.39	-0.000
243.60	-0.000
243.81	-0.000
244.03	-0.000
244.24	-0.000
244.45	-0.000
244.67	-0.000
244.88	-0.000
245.09	-0.000
245.31	-0.000
245.52	-0.000
245.73	-0.000
245.95	-0.000
246.16	-0.000
246.37	-0.000
246.59	-0.000
246.80	-0.000
247.01	-0.000
247.23	-0.000
247.44	-0.000
247.65	-0.000
247.87	-0.000
248.08	-0.000
248.29	-0.000
248.51	-0.000
248.72	-0.000
248.93	-0.000
249.15	-0.000
249.36	-0.000
249.57	-0.000
249.78	-0.000
250.00	-0.000
250.21	-0.000
250.42	-0.000
250.64	-0.000
250.85	-0.000
251.06	-0.000
251.28	-0.000
251.49	-0.000
251.70	-0.000
251.92	-0.000
252.13	-0.000
252.34	-0.000
252.55	-0.000
252.77	-0.000
252.98	-0.000
253.19	-0.000
253.41	-0.000
253.62	-0.000
253.83	-0.000
254.05	-0.000
254.26	-0.000
254.47	-0.000
254.68	-0.000
254.90	-0.000
255.11	-0.000
255.32	-0.000
255.54	-0.000
255.75	-0.000
255.96	-0.000
256.17	-0.000
256.39	-0.000
256.60	-0.000
256.81	-0.000
257.03	-0.000
257.24	-0.000
257.45	-0.000
257.66	-0.000
257.88	-0.000
258.09	-0.000
258.30	-0.000
258.51	-0.000
258.73	-0.000
258.94	-0.000
259.15	-0.000
259.37	-0.000
259.58	-0.000
259.79	-0.000
260.00	-0.000
260.22	-0.000
260.43	-0.000
260.64	-0.000
260.85	-0.000
261.07	-0.000
261.28	-0.000
261.49	-0.000
261.71	-0.000
261.92	-0.000
262.13	-0.000
262.34	-0.000
262.56	-0.000
262.77	-0.000
262.98	-0.000
263.19	-0.000
263.41	-0.000
263.62	-0.000
263.83	-0.000
264.04	-0.000
264.26	-0.000
264.47	-0.000
264.68	-0.000
264.89	-0.000
265.11	-0.000
265.32	-0.000
265.53	-0.000
265.74	-0.000
265.96	-0.000
266.17	-0.000
266.38	-0.000
266.59	-0.000
266.81	-0.000
267.02	-0.000
267.23	-0.000
267.44	-0.000
267.65	-0.000
267.87	-0.000
268.08	-0.000
268.29	-0.000
268.50	-0.000
268.72	-0.000
268.93	-0.000
269.14	-0.000
269.35	-0.000
269.57	-0.000
269.78	-0.000
269.99	-0.000
270.20	-0.000
270.41	-0.000
270.63	-0.000
270.84	-0.000
271.05	-0.000
271.26	-0.000
271.48	-0.000
271.69	-0.000
271.90	-0.000
272.11	-0.000
272.32	-0.000
272.54	-0.000
272.75	-0.000
272.96	-0.000
273.17	-0.000
273.39	-0.000
273.60	-0.000
273.81	-0.000
274.02	-0.000
274.23	-0.000
274.45	-0.000
274.66	-0.000
274.87	-0.000
275.08	-0.000
275.29	-0.000
275.51	-0.000
275.72	-0.000
275.93	-0.000
276.14	-0.000
276.35	-0.000
276.57	-0.000
276.78	-0.000
276.99	-0.000
277.20	-0.000
277.41	-0.000
277.63	-0.000
277.84	-0.000
278.05	-0.000
278.26	-0.000
278.47	-0.000
278.69	-0.000
278.90	-0.000
279.11	-0.000
279.32	-0.000
279.53	-0.000
279.74	-0.000
279.96	-0.000
280.17	-0.000
280.38	-0.000
280.59	-0.000
280.80	-0.000
281.02	-0.000
281.23	-0.000
281.44	-0.000
281.65	-0.000
281.86	-0.000
282.07	-0.000
282.29	-0.000
282.50	-0.000
282.71	-0.000
282.92	-0.000
283.13	-0.000
283.35	-0.000
283.56	-0.000
283.77	-0.000
283.98	-0.000
284.19	-0.000
284.40	-0.000
284.62	2.965
284.83	1.951
285.04	1.744
285.25	1.721
285.46	1.548
285.67	1.447
285.88	1.474
286.10	1.426
286.31	1.500
286.52	1.629
286.73	1.570
286.94	1.565
287.15	1.475
287.37	1.585
287.58	1.573
287.79	1.559
288.00	1.655
288.21	1.587
288.42	1.405
288.63	1.322
288.85	1.221
289.06	1.142
289.27	1.133
289.48	1.103
289.69	1.035
289.90	1.014
290.11	1.011
290.33	0.963
290.54	0.944
290.75	0.967
290.96	0.938
291.17	0.944
291.38	0.947
291.59	0.926
291.81	0.945
292.02	0.948
292.23	0.948
292.44	0.936
292.65	0.940
292.86	0.920
293.07	0.899
293.28	0.904
293.50	0.880
293.71	0.879
293.92	0.881
294.13	0.856
294.34	0.846
294.55	0.836
294.76	0.838
294.97	0.842
295.19	0.838
295.40	0.827
295.61	0.825
295.82	0.844
296.03	0.844
296.24	0.834
296.45	0.844
296.66	0.866
296.87	0.864
297.09	0.868
297.30	0.845
297.51	0.852
297.72	0.846
297.93	0.833
298.14	0.817
298.35	0.806
298.56	0.819
298.77	0.808
298.99	0.797
299.20	0.790
299.41	0.782
299.62	0.787
299.83	0.779
300.04	0.777
300.25	0.783
300.46	0.785
300.67	0.787
300.88	0.775
301.10	0.772
301.31	0.760
301.52	0.760
301.73	0.757
301.94	0.757
302.15	0.759
302.36	0.766
302.57	0.765
302.78	0.754
302.99	0.757
303.20	0.750
303.41	0.752
303.63	0.763
303.84	0.770
304.05	0.763
304.26	0.763
304.47	0.753
304.68	0.747
304.89	0.743
305.10	0.754
305.31	0.744
305.52	0.742
305.73	0.745
305.94	0.737
306.15	0.729
306.37	0.727
306.58	0.718
306.79	0.722
307.00	0.721
307.21	0.722
307.42	0.712
307.63	0.714
307.84	0.724
308.05	0.717
308.26	0.711
308.47	0.717
308.68	0.713
308.89	0.715
309.10	0.710
309.31	0.713
309.52	0.704
309.73	0.704
309.95	0.706
310.16	0.695
310.37	0.693
310.58	0.692
310.79	0.683
311.00	0.681
311.21	0.680
311.42	0.688
311.63	0.681
311.84	0.679
312.05	0.674
312.26	0.666
312.47	0.664
312.68	0.664
312.89	0.669
313.10	0.676
313.31	0.679
313.52	0.674
313.73	0.664
313.94	0.668
314.15	0.675
314.36	0.675
314.57	0.679
314.78	0.685
314.99	0.683
315.21	0.677
315.42	0.669
315.63	0.666
315.84	0.669
316.05	0.670
316.26	0.662
316.47	0.656
316.68	0.661
316.89	0.661
317.10	0.653
317.31	0.658
317.52	0.657
317.73	0.661
317.94	0.662
318.15	0.665
318.36	0.668
318.57	0.675
318.78	0.679
318.99	0.670
319.20	0.673
319.41	0.676
319.62	0.674
319.83	0.680
320.04	0.676
320.25	0.674
320.46	0.670
320.67	0.666
320.88	0.663
321.09	0.661
321.30	0.662
321.51	0.656
321.72	0.655
321.93	0.655
322.14	0.647
322.35	0.643
322.56	0.642
322.77	0.640
322.98	0.638
323.19	0.632
323.40	0.628
323.61	0.627
323.82	0.625
324.03	0.626
324.24	0.627
324.45	0.627
324.66	0.631
324.87	0.632
325.08	0.632
325.29	0.638
325.50	0.639
325.71	0.642
325.92	0.640
326.13	0.642
326.34	0.643
326.55	0.643
326.76	0.645
326.97	0.645
327.18	0.647
327.39	0.645
327.60	0.637
327.80	0.635
328.01	0.632
328.22	0.635
328.43	0.633
328.64	0.630
328.85	0.626
329.06	0.624
329.27	0.623
329.48	0.619
329.69	0.622
329.90	0.622
330.11	0.625
330.32	0.624
330.53	0.622
330.74	0.621
330.95	0.621
331.16	0.621
331.37	0.621
331.58	0.617
331.79	0.618
332.00	0.616
332.21	0.618
332.42	0.617
332.63	0.619
332.83	0.624
333.04	0.628
333.25	0.625
333.46	0.628
333.67	0.627
333.88	0.628
334.09	0.625
334.30	0.628
334.51	0.628
334.72	0.627
334.93	0.626
335.14	0.621
335.35	0.615
335.56	0.616
335.77	0.611
335.98	0.613
336.18	0.610
336.39	0.610
336.60	0.609
336.81	0.610
337.02	0.607
337.23	0.605
337.44	0.605
337.65	0.605
337.86	0.605
338.07	0.606
338.28	0.603
338.49	0.605
338.70	0.606
338.91	0.603
339.11	0.602
339.32	0.602
339.53	0.607
339.74	0.609
339.95	0.610
340.16	0.613
340.37	0.614
340.58	0.616
340.79	0.612
341.00	0.611
341.21	0.611
341.41	0.606
341.62	0.608
341.83	0.602
342.04	0.599
342.25	0.599
342.46	0.594
342.67	0.594
342.88	0.594
343.09	0.593
343.30	0.591
343.50	0.592
343.71	0.592
343.92	0.591
344.13	0.591
344.34	0.589
344.55	0.590
344.76	0.591
344.97	0.588
345.18	0.589
345.38	0.589
345.59	0.593
345.80	0.594
346.01	0.598
346.22	0.600
346.43	0.601
346.64	0.599
346.85	0.599
347.06	0.600
347.26	0.600
347.47	0.597
347.68	0.601
347.89	0.597
348.10	0.599
348.31	0.594
348.52	0.593
348.73	0.591
348.93	0.594
349.14	0.594
349.35	0.594
349.56	0.594
349.77	0.595
349.98	0.595
350.19	0.596
350.39	0.596
350.60	0.600
350.81	0.595
351.02	0.596
351.23	0.594
351.44	0.592
351.65	0.592
351.86	0.594
352.06	0.591
352.27	0.588
352.48	0.588
352.69	0.588
352.90	0.586
353.11	0.586
353.31	0.586
353.52	0.589
353.73	0.591
353.94	0.588
354.15	0.586
354.36	0.586
354.57	0.587
354.77	0.585
354.98	0.584
355.19	0.585
355.40	0.585
355.61	0.584
355.82	0.582
356.02	0.581
356.23	0.581
356.44	0.581
356.65	0.581
356.86	0.579
357.07	0.580
357.27	0.579
357.48	0.577
357.69	0.578
357.90	0.579
358.11	0.580
358.32	0.579
358.52	0.579
358.73	0.579
358.94	0.579
359.15	0.580
359.36	0.578
359.56	0.580
359.77	0.580
359.98	0.578
360.19	0.579
360.40	0.580
360.61	0.581
360.81	0.580
361.02	0.580
361.23	0.580
361.44	0.582
361.65	0.582
361.85	0.581
362.06	0.582
362.27	0.582
362.48	0.582
362.69	0.579
362.89	0.579
363.10	0.582
363.31	0.582
363.52	0.581
363.73	0.579
363.93	0.581
364.14	0.581
364.35	0.578
364.56	0.581
364.77	0.581
364.97	0.581
365.18	0.580
365.39	0.580
365.60	0.579
365.81	0.579
366.01	0.579
366.22	0.576
366.43	0.576
366.64	0.576
366.84	0.573
367.05	0.572
367.26	0.571
367.47	0.573
367.68	0.571
367.88	0.573
368.09	0.573
368.30	0.572
368.51	0.574
368.71	0.572
368.92	0.571
369.13	0.573
369.34	0.574
369.55	0.574
369.75	0.572
369.96	0.571
370.17	0.572
370.38	0.573
370.58	0.573
370.79	0.571
371.00	0.572
371.21	0.574
371.41	0.572
371.62	0.571
371.83	0.573
372.04	0.571
372.24	0.573
372.45	0.571
372.66	0.569
372.87	0.571
373.07	0.572
373.28	0.572
373.49	0.569
373.70	0.570
373.90	0.570
374.11	0.568
374.32	0.569
374.53	0.568
374.73	0.570
374.94	0.569
375.15	0.567
375.36	0.567
375.56	0.565
375.77	0.565
375.98	0.564
376.19	0.564
376.39	0.567
376.60	0.566
376.81	0.564
377.02	0.563
377.22	0.565
377.43	0.566
377.64	0.566
377.84	0.566
378.05	0.566
378.26	0.565
378.47	0.566
378.67	0.564
378.88	0.564
379.09	0.564
379.30	0.563
379.50	0.563
379.71	0.561
379.92	0.560
380.12	0.560
380.33	0.563
380.54	0.564
380.75	0.562
380.95	0.562
381.16	0.563
381.37	0.564
381.57	0.565
381.78	0.564
381.99	0.563
382.20	0.564
382.40	0.565
382.61	0.564
382.82	0.564
383.02	0.566
383.23	0.565
383.44	0.565
383.64	0.565
383.85	0.563
384.06	0.563
384.27	0.564
384.47	0.565
384.68	0.564
384.89	0.563
385.09	0.563
385.30	0.563
385.51	0.564
385.71	0.562
385.92	0.561
386.13	0.561
386.33	0.562
386.54	0.561
386.75	0.560
386.95	0.559
387.16	0.560
387.37	0.560
387.58	0.560
387.78	0.559
387.99	0.559
388.20	0.559
388.40	0.561
388.61	0.558
388.82	0.560
389.02	0.559
389.23	0.558
389.44	0.559
389.64	0.559
389.85	0.557
390.06	0.556
390.26	0.555
390.47	0.555
390.68	0.556
390.88	0.558
391.09	0.555
391.30	0.557
391.50	0.558
391.71	0.557
391.92	0.556
392.12	0.557
392.33	0.557
392.53	0.557
392.74	0.556
392.95	0.554
393.15	0.553
393.36	0.553
393.57	0.553
393.77	0.553
393.98	0.552
394.19	0.553
394.39	0.553
394.60	0.552
394.81	0.553
395.01	0.554
395.22	0.555
395.43	0.554
395.63	0.553
395.84	0.551
396.04	0.553
396.25	0.551
396.46	0.550
396.66	0.551
396.87	0.551
397.08	0.551
397.28	0.551
397.49	0.550
397.69	0.551
397.90	0.551
398.11	0.552
398.31	0.550
398.52	0.551
398.73	0.552
398.93	0.552
399.14	0.553
399.34	0.552
399.55	0.552
399.76	0.552
399.96	0.551
400.17	0.552
400.37	0.552
400.58	0.551
400.79	0.550
400.99	0.548
401.20	0.548
401.41	0.548
401.61	0.547
401.82	0.546
402.02	0.547
402.23	0.548
402.44	0.548
402.64	0.546
402.85	0.546
403.05	0.547
403.26	0.547
403.47	0.548
403.67	0.547
403.88	0.547
404.08	0.547
404.29	0.547
404.50	0.546
404.70	0.546
404.91	0.546
405.11	0.546
405.32	0.547
405.52	0.547
405.73	0.547
405.94	0.548
406.14	0.547
406.35	0.547
406.55	0.547
406.76	0.546
406.97	0.545
407.17	0.545
407.38	0.546
407.58	0.545
407.79	0.545
407.99	0.543
408.20	0.542
408.41	0.544
408.61	0.544
408.82	0.543
409.02	0.543
409.23	0.544
409.43	0.544
409.64	0.542
409.84	0.543
410.05	0.543
410.26	0.544
410.46	0.545
410.67	0.545
410.87	0.544
411.08	0.543
411.28	0.542
411.49	0.542
411.69	0.541
411.90	0.543
412.11	0.542
412.31	0.542
412.52	0.541
412.72	0.541
412.93	0.540
413.13	0.540
413.34	0.542
413.54	0.542
413.75	0.543
413.95	0.545
414.16	0.544
414.37	0.543
414.57	0.544
414.78	0.544
414.98	0.545
415.19	0.545
415.39	0.545
415.60	0.544
415.80	0.544
416.01	0.543
416.21	0.541
416.42	0.541
416.62	0.542
416.83	0.541
417.03	0.542
417.24	0.541
417.44	0.540
417.65	0.541
417.86	0.541
418.06	0.542
418.27	0.542
418.47	0.542
418.68	0.541
418.88	0.541
419.09	0.541
419.29	0.541
419.50	0.541
419.70	0.542
419.91	0.542
420.11	0.542
420.32	0.541
420.52	0.541
420.73	0.540
420.93	0.541
421.14	0.542
421.34	0.542
421.55	0.543
421.75	0.542
421.96	0.541
422.16	0.541
422.37	0.540
422.57	0.541
422.78	0.540
422.98	0.541
423.19	0.543
423.39	0.542
423.60	0.541
423.80	0.540
424.01	0.541
424.21	0.540
424.42	0.540
424.62	0.541
424.83	0.540
425.03	0.540
425.23	0.539
425.44	0.537
425.64	0.537
425.85	0.536
426.05	0.536
426.26	0.535
426.46	0.535
426.67	0.535
426.87	0.533
427.08	0.533
427.28	0.533
427.49	0.533
427.69	0.534
427.90	0.534
428.10	0.536
428.31	0.537
428.51	0.538
428.71	0.539
428.92	0.538
429.12	0.540
429.33	0.540
429.53	0.540
429.74	0.539
429.94	0.541
430.15	0.542
430.35	0.540
430.56	0.539
430.76	0.539
430.96	0.539
431.17	0.539
431.37	0.539
431.58	0.539
431.78	0.540
431.99	0.541
432.19	0.539
432.40	0.539
432.60	0.541
432.80	0.541
433.01	0.540
433.21	0.539
433.42	0.540
433.62	0.540
433.83	0.540
434.03	0.540
434.23	0.539
434.44	0.540
434.64	0.539
434.85	0.539
435.05	0.540
435.26	0.540
435.46	0.541
435.66	0.541
435.87	0.541
436.07	0.540
436.28	0.542
436.48	0.543
436.69	0.544
436.89	0.544
437.09	0.544
437.30	0.544
437.50	0.544
437.71	0.543
437.91	0.543
438.11	0.543
438.32	0.542
438.52	0.541
438.73	0.540
438.93	0.540
439.13	0.541
439.34	0.541
439.54	0.540
439.75	0.541
439.95	0.542
440.15	0.543
440.36	0.541
440.56	0.542
440.77	0.543
440.97	0.543
441.17	0.542
441.38	0.542
441.58	0.543
441.79	0.544
441.99	0.544
442.19	0.543
442.40	0.542
442.60	0.542
442.81	0.542
443.01	0.541
443.21	0.541
443.42	0.542
443.62	0.541
443.82	0.541
444.03	0.541
444.23	0.541
444.44	0.540
444.64	0.542
444.84	0.543
445.05	0.544
445.25	0.545
445.45	0.544
445.66	0.542
445.86	0.544
446.06	0.543
446.27	0.543
446.47	0.541
446.68	0.543
446.88	0.542
447.08	0.541
447.29	0.540
447.49	0.540
447.69	0.539
447.90	0.540
448.10	0.538
448.30	0.539
448.51	0.537
448.71	0.539
448.91	0.538
449.12	0.540
449.32	0.538
449.52	0.538
449.73	0.536
449.93	0.537
450.14	0.537
450.34	0.537
450.54	0.535
450.75	0.537
450.95	0.536
451.15	0.536
451.36	0.535
451.56	0.537
451.76	0.537
451.97	0.540
452.17	0.540
452.37	0.540
452.58	0.542
452.78	0.544
452.98	0.544
453.19	0.545
453.39	0.545
453.59	0.544
453.79	0.543
454.00	0.544
454.20	0.543
454.40	0.544
454.61	0.544
454.81	0.543
455.01	0.542
455.22	0.542
455.42	0.541
455.62	0.542
455.83	0.541
456.03	0.541
456.23	0.540
456.44	0.540
456.64	0.539
456.84	0.538
457.04	0.540
457.25	0.542
457.45	0.542
457.65	0.543
457.86	0.544
458.06	0.546
458.26	0.547
458.47	0.547
458.67	0.547
458.87	0.547
459.07	0.546
459.28	0.543
459.48	0.542
459.68	0.541
459.89	0.540
460.09	0.540
460.29	0.539
460.49	0.538
460.70	0.539
460.90	0.539
461.10	0.538
461.31	0.540
461.51	0.541
461.71	0.543
461.91	0.543
462.12	0.544
462.32	0.545
462.52	0.544
462.72	0.544
462.93	0.543
463.13	0.543
463.33	0.543
463.53	0.542
463.74	0.543
463.94	0.542
464.14	0.543
464.35	0.543
464.55	0.543
464.75	0.545
464.95	0.545
465.16	0.545
465.36	0.545
465.56	0.544
465.76	0.545
465.97	0.546
466.17	0.545
466.37	0.544
466.57	0.542
466.78	0.543
466.98	0.542
467.18	0.542
467.38	0.541
467.59	0.541
467.79	0.541
467.99	0.541
468.19	0.540
468.39	0.540
468.60	0.540
468.80	0.540
469.00	0.540
469.20	0.541
469.41	0.542
469.61	0.542
469.81	0.542
470.01	0.543
470.22	0.543
470.42	0.544
470.62	0.546
470.82	0.546
471.02	0.547
471.23	0.546
471.43	0.545
471.63	0.545
471.83	0.547
472.04	0.546
472.24	0.546
472.44	0.544
472.64	0.545
472.84	0.545
473.05	0.544
473.25	0.542
473.45	0.543
473.65	0.542
473.85	0.541
474.06	0.539
474.26	0.539
474.46	0.538
474.66	0.539
474.86	0.539
475.07	0.539
475.27	0.540
475.47	0.541
475.67	0.540
475.87	0.539
476.08	0.540
476.28	0.541
476.48	0.543
476.68	0.544
476.88	0.543
477.09	0.541
477.29	0.541
477.49	0.540
477.69	0.541
477.89	0.542
478.09	0.542
478.30	0.542
478.50	0.542
478.70	0.542
478.90	0.542
479.10	0.542
479.31	0.542
479.51	0.543
479.71	0.542
479.91	0.542
480.11	0.541
480.31	0.540
480.52	0.540
480.72	0.540
480.92	0.540
481.12	0.539
481.32	0.540
481.52	0.540
481.72	0.539
481.93	0.538
482.13	0.539
482.33	0.541
482.53	0.541
482.73	0.542
482.93	0.542
483.14	0.542
483.34	0.541
483.54	0.542
483.74	0.542
483.94	0.542
484.14	0.543
484.34	0.543
484.55	0.542
484.75	0.540
484.95	0.539
485.15	0.539
485.35	0.539
485.55	0.540
485.75	0.539
485.96	0.539
486.16	0.539
486.36	0.540
486.56	0.539
486.76	0.540
486.96	0.542
487.16	0.543
487.36	0.544
487.57	0.544
487.77	0.544
487.97	0.543
488.17	0.544
488.37	0.545
488.57	0.544
488.77	0.545
488.97	0.544
489.18	0.544
489.38	0.543
489.58	0.542
489.78	0.543
489.98	0.542
490.18	0.543
490.38	0.542
490.58	0.542
490.78	0.543
490.98	0.542
491.19	0.542
491.39	0.542
491.59	0.543
491.79	0.543
491.99	0.541
492.19	0.542
492.39	0.541
492.59	0.542
492.79	0.541
492.99	0.540
493.20	0.539
493.40	0.539
493.60	0.538
493.80	0.538
494.00	0.539
494.20	0.539
494.40	0.538
494.60	0.538
494.80	0.538
495.00	0.538
495.20	0.539
495.40	0.539
495.61	0.538
495.81	0.538
496.01	0.537
496.21	0.536
496.41	0.537
496.61	0.537
496.81	0.538
497.01	0.539
497.21	0.539
497.41	0.538
497.61	0.539
497.81	0.540
498.01	0.540
498.21	0.540
498.41	0.541
498.61	0.540
498.82	0.540
499.02	0.539
499.22	0.539
499.42	0.539
499.62	0.539
499.82	0.540
500.02	0.540
500.22	0.540
500.42	0.540
500.62	0.541
500.82	0.541
501.02	0.540
501.22	0.541
501.42	0.542
501.62	0.541
501.82	0.540
502.02	0.540
502.22	0.540
502.42	0.540
502.62	0.540
502.82	0.540
503.02	0.541
503.22	0.541
503.42	0.541
503.63	0.540
503.83	0.540
504.03	0.541
504.23	0.541
504.43	0.542
504.63	0.542
504.83	0.542
505.03	0.542
505.23	0.541
505.43	0.542
505.63	0.542
505.83	0.542
506.03	0.542
506.23	0.541
506.43	0.540
506.63	0.540
506.83	0.540
507.03	0.540
507.23	0.540
507.43	0.541
507.63	0.540
507.83	0.540
508.03	0.541
508.23	0.541
508.43	0.543
508.63	0.543
508.83	0.542
509.03	0.542
509.23	0.542
509.43	0.543
509.63	0.544
509.83	0.543
510.03	0.544
510.23	0.542
510.43	0.542
510.63	0.541
510.83	0.540
511.03	0.540
511.23	0.542
511.43	0.541
511.63	0.540
511.83	0.538
512.03	0.539
512.22	0.540
512.42	0.541
512.62	0.543
512.82	0.544
513.02	0.544
513.22	0.545
513.42	0.545
513.62	0.545
513.82	0.546
514.02	0.546
514.22	0.546
514.42	0.546
514.62	0.545
514.82	0.543
515.02	0.543
515.22	0.542
515.42	0.543
515.62	0.542
515.82	0.543
516.02	0.543
516.22	0.544
516.42	0.545
516.62	0.543
516.82	0.543
517.01	0.544
517.21	0.545
517.41	0.545
517.61	0.546
517.81	0.547
518.01	0.546
518.21	0.547
518.41	0.548
518.61	0.547
518.81	0.548
519.01	0.549
519.21	0.549
519.41	0.549
519.61	0.550
519.81	0.551
520.00	0.552
520.20	0.550
520.40	0.549
520.60	0.548
520.80	0.548
521.00	0.548
521.20	0.548
521.40	0.546
521.60	0.546
521.80	0.545
522.00	0.543
522.20	0.541
522.39	0.542
522.59	0.543
522.79	0.545
522.99	0.545
523.19	0.546
523.39	0.547
523.59	0.549
523.79	0.549
523.99	0.548
524.19	0.548
524.38	0.548
524.58	0.549
524.78	0.550
524.98	0.548
525.18	0.547
525.38	0.547
525.58	0.546
525.78	0.546
525.98	0.546
526.18	0.545
526.37	0.547
526.57	0.546
526.77	0.546
526.97	0.545
527.17	0.545
527.37	0.546
527.57	0.545
527.77	0.545
527.96	0.545
528.16	0.546
528.36	0.548
528.56	0.548
528.76	0.549
528.96	0.549
529.16	0.551
529.36	0.550
529.55	0.551
529.75	0.552
529.95	0.553
530.15	0.552
530.35	0.552
530.55	0.551
530.75	0.550
530.94	0.550
531.14	0.550
531.34	0.550
531.54	0.552
531.74	0.550
531.94	0.549
532.13	0.549
532.33	0.550
532.53	0.550
532.73	0.552
532.93	0.552
533.13	0.551
533.33	0.551
533.52	0.551
533.72	0.550
533.92	0.551
534.12	0.553
534.32	0.553
534.52	0.552
534.71	0.552
534.91	0.550
535.11	0.551
535.31	0.551
535.51	0.551
535.71	0.551
535.90	0.551
536.10	0.549
536.30	0.547
536.50	0.547
536.70	0.548
536.89	0.548
537.09	0.549
537.29	0.549
537.49	0.549
537.69	0.548
537.89	0.550
538.08	0.551
538.28	0.552
538.48	0.552
538.68	0.552
538.88	0.552
539.07	0.552
539.27	0.551
539.47	0.552
539.67	0.553
539.87	0.553
540.06	0.552
540.26	0.551
540.46	0.551
540.66	0.553
540.86	0.553
541.05	0.555
541.25	0.554
541.45	0.556
541.65	0.555
541.84	0.555
542.04	0.555
542.24	0.555
542.44	0.555
542.64	0.555
542.83	0.554
543.03	0.554
543.23	0.555
543.43	0.554
543.62	0.555
543.82	0.554
544.02	0.553
544.22	0.554
544.42	0.553
544.61	0.554
544.81	0.556
545.01	0.556
545.21	0.555
545.40	0.554
545.60	0.554
545.80	0.552
546.00	0.552
546.19	0.554
546.39	0.553
546.59	0.555
546.79	0.555
546.98	0.555
547.18	0.554
547.38	0.554
547.58	0.554
547.77	0.554
547.97	0.555
548.17	0.555
548.37	0.555
548.56	0.557
548.76	0.556
548.96	0.555
549.16	0.553
549.35	0.556
549.55	0.557
549.75	0.557
549.95	0.556
550.14	0.557
550.34	0.557
550.54	0.556
550.73	0.554
550.93	0.556
551.13	0.558
551.33	0.558
551.52	0.557
551.72	0.558
551.92	0.558
552.12	0.560
552.31	0.559
552.51	0.561
552.71	0.560
552.90	0.561
553.10	0.559
553.30	0.558
553.50	0.558
553.69	0.559
553.89	0.558
554.09	0.557
554.28	0.555
554.48	0.555
554.68	0.553
554.87	0.554
555.07	0.556
555.27	0.557
555.47	0.556
555.66	0.556
555.86	0.557
556.06	0.557
556.25	0.560
556.45	0.561
556.65	0.562
556.84	0.563
557.04	0.565
557.24	0.564
557.43	0.564
557.63	0.566
557.83	0.566
558.02	0.567
558.22	0.566
558.42	0.566
558.61	0.567
558.81	0.567
559.01	0.566
559.21	0.564
559.40	0.564
559.60	0.565
559.80	0.563
559.99	0.563
560.19	0.562
560.39	0.564
560.58	0.563
560.78	0.564
560.97	0.562
561.17	0.563
561.37	0.564
561.56	0.564
561.76	0.564
561.96	0.564
562.15	0.564
562.35	0.563
562.55	0.561
562.74	0.562
562.94	0.561
563.14	0.562
563.33	0.562
563.53	0.562
563.73	0.563
563.92	0.563
564.12	0.562
564.31	0.561
564.51	0.561
564.71	0.561
564.90	0.560
565.10	0.560
565.30	0.560
565.49	0.560
565.69	0.560
565.89	0.561
566.08	0.561
566.28	0.561
566.47	0.561
566.67	0.563
566.87	0.564
567.06	0.565
567.26	0.564
567.46	0.566
567.65	0.564
567.85	0.564
568.04	0.562
568.24	0.561
568.44	0.562
568.63	0.563
568.83	0.563
569.02	0.563
569.22	0.563
569.42	0.565
569.61	0.563
569.81	0.563
570.00	0.562
570.20	0.561
570.40	0.561
570.59	0.560
570.79	0.558
570.98	0.557
571.18	0.556
571.38	0.556
571.57	0.556
571.77	0.556
571.96	0.555
572.16	0.556
572.35	0.557
572.55	0.556
572.75	0.557
572.94	0.558
573.14	0.557
573.33	0.557
573.53	0.557
573.73	0.556
573.92	0.556
574.12	0.558
574.31	0.556
574.51	0.556
574.70	0.555
574.90	0.554
575.09	0.554
575.29	0.554
575.49	0.554
575.68	0.554
575.88	0.553
576.07	0.552
576.27	0.551
576.46	0.551
576.66	0.551
576.86	0.551
577.05	0.552
577.25	0.553
577.44	0.553
577.64	0.553
577.83	0.554
578.03	0.554
578.22	0.554
578.42	0.554
578.61	0.554
578.81	0.554
579.00	0.554
579.20	0.553
579.40	0.552
579.59	0.553
579.79	0.553
579.98	0.553
580.18	0.552
580.37	0.552
580.57	0.551
580.76	0.552
580.96	0.552
581.15	0.552
581.35	0.551
581.54	0.553
581.74	0.551
581.93	0.552
582.13	0.551
582.32	0.552
582.52	0.551
582.71	0.552
582.91	0.552
583.10	0.553
583.30	0.551
583.49	0.552
583.69	0.551
583.88	0.551
584.08	0.550
584.27	0.550
584.47	0.549
584.66	0.551
584.86	0.550
585.05	0.549
585.25	0.549
585.44	0.551
585.64	0.551
585.83	0.552
586.03	0.552
586.22	0.553
586.42	0.554
586.61	0.554
586.81	0.553
587.00	0.554
587.20	0.553
587.39	0.553
587.59	0.553
587.78	0.552
587.98	0.551
588.17	0.551
588.37	0.551
588.56	0.550
588.76	0.550
588.95	0.550
589.15	0.551
589.34	0.552
589.54	0.552
589.73	0.553
589.92	0.553
590.12	0.554
590.31	0.556
590.51	0.557
590.70	0.558
590.90	0.558
591.09	0.558
591.29	0.558
591.48	0.557
591.68	0.557
591.87	0.556
592.06	0.557
592.26	0.557
592.45	0.556
592.65	0.554
592.84	0.555
593.04	0.555
593.23	0.555
593.43	0.555
593.62	0.555
593.81	0.554
594.01	0.555
594.20	0.555
594.40	0.555
594.59	0.554
594.79	0.555
594.98	0.554
595.17	0.554
595.37	0.556
595.56	0.555
595.76	0.557
595.95	0.558
596.14	0.557
596.34	0.557
596.53	0.556
596.73	0.556
596.92	0.556
597.12	0.555
597.31	0.554
597.50	0.553
597.70	0.552
597.89	0.551
598.09	0.550
598.28	0.549
598.47	0.548
598.67	0.548
598.86	0.548
599.06	0.548
599.25	0.547
599.44	0.547
599.64	0.546
599.83	0.547
600.03	0.546
600.22	0.546
600.41	0.545
600.61	0.545
600.80	0.546
601.00	0.545
601.19	0.546
601.38	0.546
601.58	0.547
601.77	0.549
601.96	0.547
602.16	0.548
602.35	0.548
602.55	0.550
602.74	0.551
602.93	0.551
603.13	0.551
603.32	0.551
603.51	0.552
603.71	0.551
603.90	0.550
604.09	0.551
604.29	0.550
604.48	0.550
604.68	0.549
604.87	0.550
605.06	0.550
605.26	0.550
605.45	0.549
605.64	0.548
605.84	0.548
606.03	0.548
606.22	0.547
606.42	0.548
606.61	0.549
606.80	0.549
607.00	0.550
607.19	0.549
607.38	0.550
607.58	0.552
607.77	0.551
607.96	0.552
608.16	0.554
608.35	0.554
608.54	0.554
608.74	0.554
608.93	0.553
609.12	0.552
609.32	0.553
609.51	0.552
609.70	0.550
609.90	0.551
610.09	0.551
610.28	0.550
610.48	0.551
610.67	0.552
610.86	0.554
611.06	0.555
611.25	0.555
611.44	0.554
611.64	0.556
611.83	0.557
612.02	0.557
612.21	0.557
612.41	0.557
612.60	0.557
612.79	0.556
612.99	0.556
613.18	0.555
613.37	0.556
613.57	0.557
613.76	0.556
613.95	0.556
614.14	0.556
614.34	0.555
614.53	0.555
614.72	0.553
614.92	0.555
615.11	0.555
615.30	0.556
615.49	0.556
615.69	0.555
615.88	0.556
616.07	0.556
616.26	0.558
616.46	0.558
616.65	0.560
616.84	0.562
617.04	0.561
617.23	0.560
617.42	0.560
617.61	0.558
617.81	0.558
618.00	0.559
618.19	0.560
618.38	0.559
618.58	0.561
618.77	0.561
618.96	0.561
619.15	0.563
619.35	0.565
619.54	0.566
619.73	0.568
619.92	0.569
620.12	0.567
620.31	0.567
620.50	0.566
620.69	0.565
620.89	0.565
621.08	0.566
621.27	0.562
621.46	0.562
621.66	0.561
621.85	0.561
622.04	0.563
622.23	0.566
622.43	0.566
622.62	0.567
622.81	0.565
623.00	0.564
623.19	0.562
623.39	0.563
623.58	0.562
623.77	0.564
623.96	0.563
624.16	0.563
624.35	0.562
624.54	0.562
624.73	0.560
624.92	0.563
625.12	0.562
625.31	0.562
625.50	0.561
625.69	0.562
625.88	0.564
626.08	0.565
626.27	0.565
626.46	0.566
626.65	0.565
626.84	0.565
627.04	0.563
627.23	0.566
627.42	0.568
627.61	0.568
627.80	0.566
628.00	0.566
628.19	0.563
628.38	0.560
628.57	0.560
628.76	0.562
628.96	0.562
629.15	0.562
629.34	0.564
629.53	0.566
629.72	0.568
629.91	0.570
630.11	0.567
630.30	0.569
630.49	0.569
630.68	0.570
630.87	0.571
631.06	0.571
631.26	0.573
631.45	0.572
631.64	0.569
631.83	0.568
632.02	0.570
632.21	0.572
632.41	0.573
632.60	0.574
632.79	0.573
632.98	0.572
633.17	0.573
633.36	0.572
633.55	0.573
633.75	0.577
633.94	0.577
634.13	0.575
634.32	0.576
634.51	0.578
634.70	0.578
634.89	0.578
635.09	0.580
635.28	0.578
635.47	0.579
635.66	0.575
635.85	0.576
636.04	0.577
636.23	0.579
636.43	0.577
636.62	0.578
636.81	0.578
637.00	0.575
637.19	0.574
637.38	0.577
637.57	0.579
637.76	0.583
637.95	0.580
638.15	0.579
638.34	0.579
638.53	0.579
638.72	0.577
638.91	0.578
639.10	0.580
639.29	0.581
639.48	0.578
639.67	0.574
639.87	0.575
640.06	0.578
640.25	0.580
640.44	0.576
640.63	0.577
640.82	0.579
641.01	0.580
641.20	0.583
641.39	0.585
641.58	0.588
641.78	0.589
641.97	0.589
642.16	0.585
642.35	0.584
642.54	0.585
642.73	0.586
642.92	0.585
643.11	0.584
643.30	0.583
643.49	0.581
643.68	0.577
643.87	0.576
644.06	0.574
644.25	0.578
644.45	0.582
644.64	0.585
644.83	0.584
645.02	0.586
645.21	0.586
645.40	0.584
645.59	0.586
645.78	0.588
645.97	0.587
646.16	0.586
646.35	0.583
646.54	0.577
646.73	0.574
646.92	0.575
647.11	0.574
647.30	0.574
647.49	0.572
647.68	0.572
647.88	0.571
648.07	0.574
648.26	0.574
648.45	0.572
648.64	0.577
648.83	0.574
649.02	0.571
649.21	0.567
649.40	0.566
649.59	0.567
649.78	0.567
649.97	0.565
650.16	0.562
650.35	0.561
650.54	0.562
650.73	0.558
650.92	0.560
651.11	0.562
651.30	0.564
651.49	0.563
651.68	0.563
651.87	0.562
652.06	0.565
652.25	0.567
652.44	0.570
652.63	0.568
652.82	0.568
653.01	0.566
653.20	0.561
653.39	0.561
653.58	0.559
653.77	0.556
653.96	0.554
654.15	0.552
654.34	0.549
654.53	0.546
654.72	0.544
654.91	0.544
655.10	0.544
655.29	0.544
655.48	0.543
655.67	0.542
655.86	0.542
656.05	0.542
656.24	0.542
656.43	0.541
656.62	0.541
656.81	0.540
657.00	0.538
657.19	0.539
657.38	0.538
657.57	0.540
657.76	0.539
657.95	0.541
658.14	0.541
658.33	0.543
658.51	0.545
658.70	0.546
658.89	0.549
659.08	0.552
659.27	0.551
659.46	0.554
659.65	0.556
659.84	0.561
660.03	0.562
660.22	0.562
660.41	0.561
660.60	0.565
660.79	0.566
660.98	0.565
661.17	0.564
661.36	0.566
661.55	0.568
661.74	0.564
661.92	0.562
662.11	0.562
662.30	0.563
662.49	0.564
662.68	0.564
662.87	0.559
663.06	0.562
663.25	0.560
663.44	0.559
663.63	0.558
663.82	0.560
664.01	0.558
664.20	0.559
664.38	0.559
664.57	0.556
664.76	0.554
664.95	0.555
665.14	0.552
665.33	0.556
665.52	0.555
665.71	0.552
665.90	0.554
666.09	0.554
666.28	0.553
666.46	0.549
666.65	0.549
666.84	0.551
667.03	0.554
667.22	0.554
667.41	0.552
667.60	0.555
667.79	0.555
667.98	0.551
668.16	0.549
668.35	0.549
668.54	0.553
668.73	0.552
668.92	0.552
669.11	0.551
669.30	0.553
669.49	0.554
669.67	0.555
669.86	0.554
670.05	0.553
670.24	0.554
670.43	0.554
670.62	0.553
670.81	0.553
671.00	0.550
671.18	0.547
671.37	0.547
671.56	0.545
671.75	0.542
671.94	0.544
672.13	0.546
672.32	0.547
672.50	0.547
672.69	0.546
672.88	0.545
673.07	0.546
673.26	0.546
673.45	0.546
673.63	0.546
673.82	0.548
674.01	0.546
674.20	0.546
674.39	0.545
674.58	0.546
674.76	0.548
674.95	0.550
675.14	0.551
675.33	0.552
675.52	0.553
675.71	0.553
675.89	0.552
676.08	0.554
676.27	0.554
676.46	0.555
676.65	0.554
676.84	0.551
677.02	0.549
677.21	0.546
677.40	0.546
677.59	0.547
677.78	0.545
677.96	0.543
678.15	0.543
678.34	0.543
678.53	0.540
678.72	0.537
678.90	0.540
679.09	0.541
679.28	0.543
679.47	0.543
679.66	0.542
679.84	0.543
680.03	0.544
680.22	0.544
680.41	0.542
680.60	0.544
680.78	0.545
680.97	0.545
681.16	0.543
681.35	0.542
681.53	0.540
681.72	0.540
681.91	0.538
682.10	0.537
682.29	0.536
682.47	0.536
682.66	0.536
682.85	0.534
683.04	0.534
683.22	0.533
683.41	0.532
683.60	0.532
683.79	0.531
683.97	0.530
684.16	0.530
684.35	0.531
684.54	0.531
684.72	0.530
684.91	0.531
685.10	0.529
685.29	0.529
685.47	0.530
685.66	0.531
685.85	0.531
686.04	0.532
686.22	0.529
686.41	0.528
686.60	0.527
686.79	0.526
686.97	0.525
687.16	0.525
687.35	0.524
687.54	0.523
687.72	0.521
687.91	0.522
688.10	0.521
688.29	0.522
688.47	0.522
688.66	0.523
688.85	0.522
689.03	0.524
689.22	0.523
689.41	0.523
689.60	0.524
689.78	0.526
689.97	0.526
690.16	0.526
690.34	0.527
690.53	0.528
690.72	0.526
690.91	0.526
691.09	0.526
691.28	0.527
691.47	0.529
691.65	0.529
691.84	0.528
692.03	0.529
692.21	0.527
692.40	0.526
692.59	0.526
692.77	0.528
692.96	0.527
693.15	0.526
693.34	0.525
693.52	0.524
693.71	0.523
693.90	0.522
694.08	0.519
694.27	0.521
694.46	0.520
694.64	0.519
694.83	0.517
695.02	0.519
695.20	0.521
695.39	0.521
695.58	0.520
695.76	0.520
695.95	0.519
696.14	0.520
696.32	0.517
696.51	0.519
696.70	0.518
696.88	0.517
697.07	0.515
697.26	0.513
697.44	0.513
697.63	0.513
697.81	0.512
698.00	0.514
698.19	0.513
698.37	0.513
698.56	0.513
698.75	0.513
698.93	0.513
699.12	0.514
699.31	0.513
699.49	0.512
699.68	0.513
699.87	0.512
700.05	0.510
700.24	0.511
700.42	0.511
700.61	0.512
700.80	0.513
700.98	0.513
701.17	0.512
701.36	0.513
701.54	0.511
701.73	0.510
701.91	0.511
702.10	0.511
702.29	0.512
702.47	0.513
702.66	0.513
702.84	0.512
703.03	0.511
703.22	0.511
703.40	0.512
703.59	0.513
703.77	0.512
703.96	0.513
704.15	0.513
704.33	0.512
704.52	0.510
704.70	0.508
704.89	0.508
705.08	0.509
705.26	0.509
705.45	0.508
705.63	0.506
705.82	0.507
706.00	0.505
706.19	0.505
706.38	0.505
706.56	0.505
706.75	0.505
706.93	0.505
707.12	0.504
707.30	0.502
707.49	0.502
707.68	0.503
707.86	0.501
708.05	0.500
708.23	0.500
708.42	0.500
708.60	0.499
708.79	0.497
708.98	0.497
709.16	0.496
709.35	0.496
709.53	0.495
709.72	0.496
709.90	0.495
710.09	0.495
710.27	0.494
710.46	0.492
710.64	0.492
710.83	0.491
711.02	0.491
711.20	0.492
711.39	0.492
711.57	0.492
711.76	0.491
711.94	0.492
712.13	0.492
712.31	0.493
712.50	0.494
712.68	0.495
712.87	0.495
713.05	0.495
713.24	0.493
713.42	0.492
713.61	0.491
713.79	0.491
713.98	0.490
714.16	0.488
714.35	0.487
714.54	0.487
714.72	0.486
714.91	0.486
715.09	0.484
715.28	0.482
715.46	0.482
715.65	0.481
715.83	0.481
716.02	0.480
716.20	0.482
716.39	0.481
716.57	0.481
716.76	0.479
716.94	0.479
717.12	0.479
717.31	0.479
717.49	0.479
717.68	0.477
717.86	0.476
718.05	0.474
718.23	0.471
718.42	0.468
718.60	0.465
718.79	0.464
718.97	0.461
719.16	0.461
719.34	0.460
719.53	0.460
719.71	0.460
719.90	0.459
720.08	0.458
720.27	0.458
720.45	0.458
720.63	0.457
720.82	0.456
721.00	0.456
721.19	0.455
721.37	0.455
721.56	0.451
721.74	0.449
721.93	0.447
722.11	0.446
722.30	0.446
722.48	0.445
722.66	0.445
722.85	0.445
723.03	0.442
723.22	0.442
723.40	0.444
723.59	0.445
723.77	0.442
723.95	0.442
724.14	0.440
724.32	0.437
724.51	0.435
724.69	0.437
724.88	0.438
725.06	0.437
725.24	0.436
725.43	0.435
725.61	0.437
725.80	0.440
725.98	0.442
726.16	0.443
726.35	0.442
726.53	0.442
726.72	0.438
726.90	0.433
727.09	0.433
727.27	0.429
727.45	0.427
727.64	0.418
727.82	0.413
728.01	0.407
728.19	0.407
728.37	0.404
728.56	0.400
728.74	0.398
728.92	0.399
729.11	0.398
729.29	0.396
729.48	0.393
729.66	0.395
729.84	0.394
730.03	0.392
730.21	0.388
730.40	0.387
730.58	0.388
730.76	0.386
730.95	0.383
731.13	0.379
731.31	0.373
731.50	0.368
731.68	0.365
731.86	0.364
732.05	0.359
732.23	0.357
732.42	0.356
732.60	0.350
732.78	0.346
732.97	0.339
733.15	0.335
733.33	0.335
733.52	0.331
733.70	0.328
733.88	0.322
734.07	0.322
734.25	0.316
734.43	0.314
734.62	0.313
734.80	0.313
734.98	0.314
735.17	0.311
735.35	0.310
735.53	0.311
735.72	0.306
735.90	0.303
736.08	0.300
736.27	0.301
736.45	0.298
736.63	0.299
736.82	0.293
737.00	0.291
737.18	0.291
737.37	0.285
737.55	0.281
737.73	0.280
737.92	0.279
738.10	0.283
738.28	0.280
738.46	0.276
738.65	0.271
738.83	0.272
739.01	0.268
739.20	0.266
739.38	0.267
739.56	0.271
739.75	0.274
739.93	0.280
740.11	0.273
740.29	0.273
740.48	0.276
740.66	0.280
740.84	0.283
741.03	0.288
741.21	0.289
741.39	0.296
741.57	0.296
741.76	0.297
741.94	0.295
742.12	0.302
742.31	0.305
742.49	0.308
742.67	0.306
742.85	0.302
743.04	0.308
743.22	0.309
743.40	0.300
743.58	0.304
743.77	0.305
743.95	0.311
744.13	0.303
744.31	0.304
744.50	0.297
744.68	0.295
744.86	0.297
745.04	0.289
745.23	0.288
745.41	0.292
745.59	0.289
745.77	0.293
745.96	0.293
746.14	0.294
746.32	0.302
746.50	0.304
746.69	0.312
746.87	0.317
747.05	0.318
747.23	0.331
747.42	0.338
747.60	0.334
747.78	0.329
747.96	0.316
748.14	0.319
748.33	0.314
748.51	0.314
748.69	0.317
748.87	0.310
749.06	0.313
749.24	0.301
749.42	0.294
749.60	0.297
749.78	0.296
749.97	0.304
750.15	0.309
750.33	0.303
750.51	0.303
750.69	0.294
750.88	0.292
751.06	0.293
751.24	0.293
751.42	0.299
751.60	0.295
751.79	0.288
751.97	0.291
752.15	0.286
752.33	0.289
752.51	0.284
752.69	0.291
752.88	0.293
753.06	0.285
753.24	0.288
753.42	0.284
753.60	0.278
753.78	0.286
753.97	0.277
754.15	0.280
754.33	0.276
754.51	0.281
754.69	0.276
754.87	0.273
755.06	0.278
755.24	0.271
755.42	0.274
755.60	0.282
755.78	0.275
755.96	0.276
756.15	0.274
756.33	0.272
756.51	0.266
756.69	0.268
756.87	0.272
757.05	0.269
757.23	0.270
757.42	0.268
757.60	0.267
757.78	0.269
757.96	0.270
758.14	0.265
758.32	0.267
758.50	0.266
758.69	0.263
758.87	0.264
759.05	0.262
759.23	0.261
759.41	0.260
759.59	0.261
759.77	0.259
759.95	0.259
760.13	0.256
760.32	0.254
760.50	0.255
760.68	0.252
760.86	0.252
761.04	0.252
761.22	0.256
761.40	0.250
761.58	0.244
761.76	0.244
761.95	0.240
762.13	0.246
762.31	0.246
762.49	0.249
762.67	0.246
762.85	0.247
763.03	0.252
763.21	0.253
763.39	0.255
763.57	0.259
763.75	0.261
763.94	0.265
764.12	0.261
764.30	0.261
764.48	0.260
764.66	0.265
764.84	0.263
765.02	0.256
765.20	0.252
765.38	0.254
765.56	0.255
765.74	0.252
765.92	0.251
766.10	0.252
766.28	0.252
766.46	0.250
766.65	0.250
766.83	0.249
767.01	0.252
767.19	0.253
767.37	0.254
767.55	0.254
767.73	0.256
767.91	0.257
768.09	0.261
768.27	0.260
768.45	0.263
768.63	0.262
768.81	0.262
768.99	0.265
769.17	0.263
769.35	0.261
769.53	0.260
769.71	0.261
769.89	0.260
770.07	0.261
770.25	0.267
770.43	0.272
770.61	0.270
770.79	0.269
770.97	0.267
771.15	0.269
771.33	0.271
771.51	0.273
771.69	0.272
771.87	0.271
772.05	0.270
772.24	0.269
772.42	0.264
772.60	0.266
772.78	0.265
772.96	0.264
773.14	0.271
773.32	0.275
773.49	0.274
773.67	0.275
773.85	0.278
774.03	0.280
774.21	0.278
774.39	0.286
774.57	0.285
774.75	0.291
774.93	0.293
775.11	0.287
775.29	0.285
775.47	0.283
775.65	0.286
775.83	0.290
776.01	0.288
776.19	0.295
776.37	0.292
776.55	0.297
776.73	0.297
776.91	0.297
777.09	0.304
777.27	0.310
777.45	0.318
777.63	0.323
777.81	0.322
777.99	0.325
778.17	0.326
778.35	0.328
778.53	0.332
778.71	0.333
778.89	0.333
779.07	0.333
779.24	0.331
779.42	0.324
779.60	0.318
779.78	0.311
779.96	0.310
780.14	0.308
780.32	0.301
780.50	0.298
780.68	0.296
780.86	0.299
781.04	0.294
781.22	0.288
781.40	0.286
781.58	0.291
781.75	0.294
781.93	0.298
782.11	0.296
782.29	0.299
782.47	0.301
782.65	0.306
782.83	0.304
783.01	0.309
783.19	0.311
783.37	0.314
783.55	0.312
783.72	0.313
783.90	0.308
784.08	0.308
784.26	0.313
784.44	0.309
784.62	0.310
784.80	0.313
784.98	0.311
785.16	0.316
785.33	0.314
785.51	0.321
785.69	0.325
785.87	0.333
786.05	0.333
786.23	0.327
786.41	0.335
786.59	0.334
786.77	0.334
786.94	0.335
787.12	0.331
787.30	0.330
787.48	0.326
787.66	0.327
787.84	0.323
788.02	0.328
788.19	0.330
788.37	0.328
788.55	0.325
788.73	0.326
788.91	0.329
789.09	0.333
789.27	0.341
789.44	0.346
789.62	0.343
789.80	0.341
789.98	0.338
790.16	0.342
790.34	0.344
790.51	0.352
790.69	0.351
790.87	0.355
791.05	0.360
791.23	0.357
791.41	0.354
791.58	0.353
791.76	0.361
791.94	0.362
792.12	0.361
792.30	0.357
792.48	0.355
792.65	0.353
792.83	0.348
793.01	0.344
793.19	0.348
793.37	0.348
793.54	0.353
793.72	0.348
793.90	0.350
794.08	0.351
794.26	0.357
794.43	0.359
794.61	0.368
794.79	0.369
794.97	0.375
795.15	0.372
795.32	0.372
795.50	0.375
795.68	0.380
795.86	0.380
796.04	0.382
796.21	0.384
796.39	0.384
796.57	0.378
796.75	0.381
796.92	0.375
797.10	0.377
797.28	0.384
797.46	0.382
797.64	0.380
797.81	0.382
797.99	0.380
798.17	0.379
798.35	0.379
798.52	0.381
798.70	0.382
798.88	0.383
799.06	0.382
799.23	0.377
799.41	0.377
799.59	0.379
799.77	0.381
799.94	0.381
800.12	0.381
800.30	0.378
800.48	0.377
800.65	0.382
800.83	0.388
801.01	0.393
801.19	0.394
801.36	0.395
801.54	0.400
801.72	0.396
801.90	0.401
802.07	0.401
802.25	0.407
802.43	0.417
802.60	0.414
802.78	0.411
802.96	0.416
803.14	0.421
803.31	0.420
803.49	0.420
803.67	0.424
803.84	0.421
804.02	0.423
804.20	0.422
804.38	0.415
804.55	0.416
804.73	0.419
804.91	0.417
805.08	0.411
805.26	0.412
805.44	0.400
805.61	0.400
805.79	0.405
805.97	0.405
806.15	0.405
806.32	0.410
806.50	0.414
806.68	0.412
806.85	0.406
807.03	0.411
807.21	0.407
807.38	0.417
807.56	0.421
807.74	0.416
807.91	0.421
808.09	0.422
808.27	0.414
808.44	0.407
808.62	0.407
808.80	0.415
808.97	0.414
809.15	0.416
809.33	0.414
809.50	0.409
809.68	0.415
809.86	0.411
810.03	0.404
810.21	0.410
810.39	0.410
810.56	0.409
810.74	0.402
810.91	0.396
811.09	0.401
811.27	0.399
811.44	0.401
811.62	0.403
811.80	0.403
811.97	0.411
812.15	0.413
812.33	0.415
812.50	0.423
812.68	0.426
812.85	0.434
813.03	0.434
813.21	0.441
813.38	0.447
813.56	0.443
813.74	0.438
813.91	0.433
814.09	0.428
814.26	0.432
814.44	0.423
814.62	0.423
814.79	0.422
814.97	0.421
815.14	0.419
815.32	0.408
815.50	0.406
815.67	0.410
815.85	0.415
816.02	0.413
816.20	0.410
816.38	0.416
816.55	0.415
816.73	0.413
816.90	0.411
817.08	0.408
817.26	0.410
817.43	0.419
817.61	0.412
817.78	0.408
817.96	0.416
818.13	0.419
818.31	0.415
818.49	0.413
818.66	0.420
818.84	0.421
819.01	0.426
819.19	0.428
819.36	0.427
819.54	0.435
819.71	0.433
819.89	0.427
820.07	0.424
820.24	0.418
820.42	0.424
820.59	0.420
820.77	0.417
820.94	0.414
821.12	0.410
821.29	0.404
821.47	0.409
821.64	0.416
821.82	0.417
822.00	0.416
822.17	0.426
822.35	0.424
822.52	0.423
822.70	0.429
822.87	0.431
823.05	0.434
823.22	0.436
823.40	0.435
823.57	0.428
823.75	0.437
823.92	0.439
824.10	0.431
824.27	0.423
824.45	0.430
824.62	0.421
824.80	0.418
824.97	0.421
825.15	0.416
825.32	0.410
825.50	0.411
825.67	0.401
825.85	0.397
826.02	0.399
826.20	0.399
826.37	0.380
826.55	0.393
826.72	0.384
826.90	0.376
827.07	0.373
827.25	0.372
827.42	0.367
827.60	0.363
827.77	0.363
827.95	0.366
828.12	0.371
828.30	0.384
828.47	0.369
828.65	0.379
828.82	0.390
829.00	0.396
829.17	0.399
829.34	0.402
829.52	0.410
829.69	0.395
829.87	0.394
830.04	0.385
830.22	0.376
830.39	0.376
830.57	0.381
830.74	0.371
830.92	0.362
831.09	0.341
831.26	0.355
831.44	0.349
831.61	0.368
831.79	0.354
831.96	0.351
832.14	0.374
832.31	0.368
832.49	0.359
832.66	0.367
832.83	0.395
833.01	0.426
833.18	0.445
833.36	0.433
833.53	0.418
833.70	0.418
833.88	0.442
834.05	0.410
834.23	0.447
834.40	0.447
834.58	0.426
834.75	0.398
834.92	0.376
835.10	0.358
835.27	0.376
835.45	0.389
835.62	0.405
835.79	0.390
835.97	0.405
836.14	0.401
836.32	0.411
836.49	0.445
836.66	0.438
836.84	0.436
837.01	0.428
837.18	0.420
837.36	0.449
837.53	0.444
837.71	0.476
837.88	0.489
838.05	0.449
838.23	0.455
838.40	0.452
838.58	0.470
838.75	0.483
838.92	0.516
839.10	0.533
839.27	0.492
839.44	0.495
839.62	0.469
839.79	0.433
839.96	0.451
840.14	0.429
840.31	0.436
840.48	0.460
840.66	0.477
840.83	0.436
841.01	0.440
841.18	0.484
841.35	0.447
841.53	0.463
841.70	0.468
841.87	0.478
842.05	0.507
842.22	0.472
842.39	0.436
842.57	0.472
842.74	0.473
842.91	0.447
843.09	0.418
843.26	0.432
843.43	0.447
843.60	0.462
843.78	0.451
843.95	0.450
844.12	0.481
844.30	0.486
844.47	0.464
844.64	0.479
844.82	0.498
844.99	0.479
845.16	0.479
845.34	0.506
845.51	0.510
845.68	0.528
845.85	0.501
846.03	0.473
846.20	0.523
846.37	0.547
846.55	0.543
846.72	0.531
846.89	0.560
847.06	0.552
847.24	0.552
847.41	0.544
847.58	0.543
847.76	0.550
847.93	0.523
848.10	0.512
848.27	0.500
848.45	0.591
848.62	0.587
848.79	0.650
848.97	0.788
849.14	0.645
849.31	0.694
849.48	0.846
849.66	1.058
849.83	1.064
850.00	0.912
850.17	0.755
850.35	0.625
850.52	0.674
850.69	0.637
850.86	0.570
851.04	0.591
851.21	0.633
851.38	0.549
851.55	0.564
851.72	0.561
851.90	0.567
852.07	0.572
852.24	0.657
852.41	0.597
852.59	0.563
852.76	0.555
852.93	0.552
853.10	0.474
853.28	0.547
853.45	0.476
853.62	0.507
853.79	0.507
853.96	0.563
854.14	0.522
854.31	0.591
854.48	0.624
854.65	0.634
854.82	0.675
855.00	0.816
855.17	0.690
855.34	0.716
855.51	0.726
855.68	0.822
855.86	0.715
856.03	0.731
856.20	0.675
856.37	0.663
856.54	0.717
856.72	0.670
856.89	0.723
857.06	0.816
857.23	0.806
857.40	0.770
857.57	0.923
857.75	1.164
857.92	1.069
858.09	1.491
858.26	2.275
858.43	1.596
858.60	-0.000
858.78	-0.000
858.95	1.998
859.12	-0.000
859.29	-0.000
859.46	-0.000
859.63	-0.000
859.81	-0.000
859.98	-0.000
860.15	-0.000
860.32	-0.000
860.49	-0.000
860.66	-0.000
860.83	-0.000
861.01	-0.000
861.18	-0.000
861.35	-0.000
861.52	-0.000
861.69	-0.000
861.86	-0.000
862.03	-0.000
862.21	-0.000
862.38	-0.000
862.55	-0.000
862.72	-0.000
862.89	-0.000
863.06	-0.000
863.23	-0.000
863.40	-0.000
863.58	-0.000
863.75	-0.000
863.92	-0.000
864.09	-0.000
864.26	-0.000
864.43	-0.000
864.60	-0.000
864.77	-0.000
864.94	-0.000
865.11	-0.000
865.29	-0.000
865.46	-0.000
865.63	-0.000
865.80	-0.000
865.97	-0.000
866.14	-0.000
866.31	-0.000
866.48	-0.000
866.65	-0.000
866.82	-0.000
866.99	-0.000
867.16	-0.000
867.34	-0.000
867.51	-0.000
867.68	-0.000
867.85	-0.000
868.02	-0.000
868.19	-0.000
868.36	-0.000
868.53	-0.000
868.70	-0.000
868.87	-0.000
869.04	-0.000
869.21	-0.000
869.38	-0.000
869.55	-0.000
869.72	-0.000
869.89	-0.000
870.06	-0.000
870.24	-0.000
870.41	-0.000
870.58	-0.000
870.75	-0.000
870.92	-0.000
871.09	-0.000
871.26	-0.000
871.43	-0.000
871.60	-0.000
871.77	-0.000
871.94	-0.000
872.11	-0.000
872.28	-0.000
872.45	-0.000
872.62	-0.000
872.79	-0.000
872.96	-0.000
873.13	-0.000
873.30	-0.000
873.47	-0.000
873.64	-0.000
873.81	-0.000
873.98	-0.000
874.15	-0.000
874.32	-0.000
874.49	-0.000
874.66	-0.000
874.83	-0.000
875.00	-0.000
875.17	-0.000
875.34	-0.000
875.51	-0.000
875.68	-0.000
875.85	-0.000
876.02	-0.000
876.19	-0.000
876.36	-0.000
876.53	-0.000
876.70	-0.000
876.87	-0.000
877.04	-0.000
877.21	-0.000
877.38	-0.000
877.55	-0.000
877.72	-0.000
877.89	-0.000
878.06	-0.000
878.23	-0.000
878.39	-0.000
878.56	-0.000
878.73	-0.000
878.90	-0.000
879.07	-0.000
879.24	-0.000
879.41	-0.000
879.58	-0.000
879.75	-0.000
879.92	-0.000
880.09	-0.000
880.26	-0.000
880.43	-0.000
880.60	-0.000
880.77	-0.000
880.94	-0.000
881.11	-0.000
881.27	-0.000
881.44	-0.000
881.61	-0.000
881.78	-0.000
881.95	-0.000
882.12	-0.000
882.29	-0.000
882.46	-0.000
882.63	-0.000
882.80	-0.000
882.97	-0.000
883.14	-0.000
883.30	-0.000
883.47	-0.000
883.64	-0.000
883.81	-0.000
883.98	-0.000
884.15	-0.000
884.32	-0.000
884.49	-0.000
884.66	-0.000
884.82	-0.000
884.99	-0.000
885.16	-0.000
885.33	-0.000
885.50	-0.000
885.67	-0.000
885.84	-0.000
886.01	-0.000
886.17	-0.000
886.34	-0.000
886.51	-0.000
886.68	-0.000
886.85	-0.000
887.02	-0.000
887.19	-0.000
887.36	-0.000
887.52	-0.000
887.69	-0.000
887.86	-0.000
888.03	-0.000
888.20	-0.000
888.37	-0.000
888.54	-0.000
888.70	-0.000
888.87	-0.000
889.04	-0.000
889.21	-0.000
889.38	-0.000
889.55	-0.000
889.71	-0.000
889.88	-0.000
890.05	-0.000
890.22	-0.000
890.39	-0.000
>>>>>End Processed Spectral Data<<<<<
