SpectraSuite Data File
++++++++++++++++++++++++++++++++++++
Date: Fri Jun 19 13:11:43 CEST 2015
User: introlabs
Dark Spectrum Present: Yes
Reference Spectrum Present: Yes
Number of Sampled Component Spectra: 1
Spectrometers: USB4H08886
Integration Time (usec): 745692 (USB4H08886)
Spectra Averaged: 5 (USB4H08886)
Boxcar Smoothing: 5 (USB4H08886)
Correct for Electrical Dark: Yes (USB4H08886)
Strobe/Lamp Enabled: No (USB4H08886)
Correct for Detector Non-linearity: Yes (USB4H08886)
Correct for Stray Light: Yes (USB4H08886)
Number of Pixels in Processed Spectrum: 3648
>>>>>Begin Processed Spectral Data<<<<<
178.14	-0.000
178.36	-0.000
178.57	-0.000
178.79	-0.000
179.01	-0.000
179.22	-0.000
179.44	-0.000
179.65	-0.000
179.87	-0.000
180.08	-0.000
180.30	-0.000
180.52	-0.000
180.73	-0.000
180.95	-0.000
181.16	-0.000
181.38	-0.000
181.59	-0.000
181.81	-0.000
182.03	-0.000
182.24	-0.000
182.46	-0.000
182.67	-0.000
182.89	-0.000
183.10	-0.000
183.32	-0.000
183.54	-0.000
183.75	-0.000
183.97	-0.000
184.18	-0.000
184.40	-0.000
184.61	-0.000
184.83	-0.000
185.04	-0.000
185.26	-0.000
185.48	-0.000
185.69	-0.000
185.91	-0.000
186.12	-0.000
186.34	-0.000
186.55	-0.000
186.77	-0.000
186.98	-0.000
187.20	-0.000
187.42	-0.000
187.63	-0.000
187.85	-0.000
188.06	-0.000
188.28	-0.000
188.49	-0.000
188.71	-0.000
188.92	-0.000
189.14	-0.000
189.36	-0.000
189.57	-0.000
189.79	-0.000
190.00	-0.000
190.22	-0.000
190.43	-0.000
190.65	-0.000
190.86	-0.000
191.08	-0.000
191.29	-0.000
191.51	-0.000
191.72	-0.000
191.94	-0.000
192.16	-0.000
192.37	-0.000
192.59	-0.000
192.80	-0.000
193.02	-0.000
193.23	-0.000
193.45	-0.000
193.66	-0.000
193.88	-0.000
194.09	-0.000
194.31	-0.000
194.52	-0.000
194.74	-0.000
194.95	-0.000
195.17	-0.000
195.38	-0.000
195.60	-0.000
195.81	-0.000
196.03	-0.000
196.25	-0.000
196.46	-0.000
196.68	-0.000
196.89	-0.000
197.11	-0.000
197.32	-0.000
197.54	-0.000
197.75	-0.000
197.97	-0.000
198.18	-0.000
198.40	-0.000
198.61	-0.000
198.83	-0.000
199.04	-0.000
199.26	-0.000
199.47	-0.000
199.69	-0.000
199.90	-0.000
200.12	-0.000
200.33	-0.000
200.55	-0.000
200.76	-0.000
200.98	-0.000
201.19	-0.000
201.41	-0.000
201.62	-0.000
201.84	-0.000
202.05	-0.000
202.27	-0.000
202.48	-0.000
202.70	-0.000
202.91	-0.000
203.13	-0.000
203.34	-0.000
203.56	-0.000
203.77	-0.000
203.99	-0.000
204.20	-0.000
204.42	-0.000
204.63	-0.000
204.85	-0.000
205.06	-0.000
205.28	-0.000
205.49	-0.000
205.71	-0.000
205.92	-0.000
206.14	-0.000
206.35	-0.000
206.56	-0.000
206.78	-0.000
206.99	-0.000
207.21	-0.000
207.42	-0.000
207.64	-0.000
207.85	-0.000
208.07	-0.000
208.28	-0.000
208.50	-0.000
208.71	-0.000
208.93	-0.000
209.14	-0.000
209.36	-0.000
209.57	-0.000
209.79	-0.000
210.00	-0.000
210.22	-0.000
210.43	-0.000
210.64	-0.000
210.86	-0.000
211.07	-0.000
211.29	-0.000
211.50	-0.000
211.72	-0.000
211.93	-0.000
212.15	-0.000
212.36	-0.000
212.58	-0.000
212.79	-0.000
213.01	-0.000
213.22	-0.000
213.43	-0.000
213.65	-0.000
213.86	-0.000
214.08	-0.000
214.29	-0.000
214.51	-0.000
214.72	-0.000
214.94	-0.000
215.15	-0.000
215.36	-0.000
215.58	-0.000
215.79	-0.000
216.01	-0.000
216.22	-0.000
216.44	-0.000
216.65	-0.000
216.87	-0.000
217.08	-0.000
217.29	-0.000
217.51	-0.000
217.72	-0.000
217.94	-0.000
218.15	-0.000
218.37	-0.000
218.58	-0.000
218.80	-0.000
219.01	-0.000
219.22	-0.000
219.44	-0.000
219.65	-0.000
219.87	-0.000
220.08	-0.000
220.30	-0.000
220.51	-0.000
220.72	-0.000
220.94	-0.000
221.15	-0.000
221.37	-0.000
221.58	-0.000
221.79	-0.000
222.01	-0.000
222.22	-0.000
222.44	-0.000
222.65	-0.000
222.87	-0.000
223.08	-0.000
223.29	-0.000
223.51	-0.000
223.72	-0.000
223.94	-0.000
224.15	-0.000
224.36	-0.000
224.58	-0.000
224.79	-0.000
225.01	-0.000
225.22	-0.000
225.44	-0.000
225.65	-0.000
225.86	-0.000
226.08	-0.000
226.29	-0.000
226.51	-0.000
226.72	-0.000
226.93	-0.000
227.15	-0.000
227.36	-0.000
227.58	-0.000
227.79	-0.000
228.00	-0.000
228.22	-0.000
228.43	-0.000
228.65	-0.000
228.86	-0.000
229.07	-0.000
229.29	-0.000
229.50	-0.000
229.72	-0.000
229.93	-0.000
230.14	-0.000
230.36	-0.000
230.57	-0.000
230.78	-0.000
231.00	-0.000
231.21	-0.000
231.43	-0.000
231.64	-0.000
231.85	-0.000
232.07	-0.000
232.28	-0.000
232.50	-0.000
232.71	-0.000
232.92	-0.000
233.14	-0.000
233.35	-0.000
233.56	-0.000
233.78	-0.000
233.99	-0.000
234.21	-0.000
234.42	-0.000
234.63	-0.000
234.85	-0.000
235.06	-0.000
235.27	-0.000
235.49	-0.000
235.70	-0.000
235.91	-0.000
236.13	-0.000
236.34	-0.000
236.56	-0.000
236.77	-0.000
236.98	-0.000
237.20	-0.000
237.41	-0.000
237.62	-0.000
237.84	-0.000
238.05	-0.000
238.26	-0.000
238.48	-0.000
238.69	-0.000
238.91	-0.000
239.12	-0.000
239.33	-0.000
239.55	-0.000
239.76	-0.000
239.97	-0.000
240.19	-0.000
240.40	-0.000
240.61	-0.000
240.83	-0.000
241.04	-0.000
241.25	-0.000
241.47	-0.000
241.68	-0.000
241.89	-0.000
242.11	-0.000
242.32	-0.000
242.53	-0.000
242.75	-0.000
242.96	-0.000
243.17	-0.000
243.39	-0.000
243.60	-0.000
243.81	-0.000
244.03	-0.000
244.24	-0.000
244.45	-0.000
244.67	-0.000
244.88	-0.000
245.09	-0.000
245.31	-0.000
245.52	-0.000
245.73	-0.000
245.95	-0.000
246.16	-0.000
246.37	-0.000
246.59	-0.000
246.80	-0.000
247.01	-0.000
247.23	-0.000
247.44	-0.000
247.65	-0.000
247.87	-0.000
248.08	-0.000
248.29	-0.000
248.51	-0.000
248.72	-0.000
248.93	-0.000
249.15	-0.000
249.36	-0.000
249.57	-0.000
249.78	-0.000
250.00	-0.000
250.21	-0.000
250.42	-0.000
250.64	-0.000
250.85	-0.000
251.06	-0.000
251.28	-0.000
251.49	-0.000
251.70	-0.000
251.92	-0.000
252.13	-0.000
252.34	-0.000
252.55	-0.000
252.77	-0.000
252.98	-0.000
253.19	-0.000
253.41	-0.000
253.62	-0.000
253.83	-0.000
254.05	-0.000
254.26	-0.000
254.47	-0.000
254.68	-0.000
254.90	-0.000
255.11	-0.000
255.32	-0.000
255.54	-0.000
255.75	-0.000
255.96	-0.000
256.17	-0.000
256.39	-0.000
256.60	-0.000
256.81	-0.000
257.03	-0.000
257.24	-0.000
257.45	-0.000
257.66	-0.000
257.88	-0.000
258.09	-0.000
258.30	-0.000
258.51	-0.000
258.73	-0.000
258.94	-0.000
259.15	-0.000
259.37	-0.000
259.58	-0.000
259.79	-0.000
260.00	-0.000
260.22	-0.000
260.43	-0.000
260.64	-0.000
260.85	-0.000
261.07	-0.000
261.28	-0.000
261.49	-0.000
261.71	-0.000
261.92	-0.000
262.13	-0.000
262.34	-0.000
262.56	-0.000
262.77	-0.000
262.98	-0.000
263.19	-0.000
263.41	-0.000
263.62	-0.000
263.83	-0.000
264.04	-0.000
264.26	-0.000
264.47	-0.000
264.68	-0.000
264.89	-0.000
265.11	-0.000
265.32	-0.000
265.53	-0.000
265.74	-0.000
265.96	-0.000
266.17	-0.000
266.38	-0.000
266.59	-0.000
266.81	-0.000
267.02	-0.000
267.23	-0.000
267.44	-0.000
267.65	-0.000
267.87	-0.000
268.08	-0.000
268.29	-0.000
268.50	-0.000
268.72	-0.000
268.93	-0.000
269.14	-0.000
269.35	-0.000
269.57	-0.000
269.78	-0.000
269.99	-0.000
270.20	-0.000
270.41	-0.000
270.63	-0.000
270.84	-0.000
271.05	-0.000
271.26	-0.000
271.48	-0.000
271.69	-0.000
271.90	-0.000
272.11	-0.000
272.32	-0.000
272.54	-0.000
272.75	-0.000
272.96	-0.000
273.17	-0.000
273.39	-0.000
273.60	-0.000
273.81	-0.000
274.02	-0.000
274.23	-0.000
274.45	-0.000
274.66	-0.000
274.87	-0.000
275.08	-0.000
275.29	-0.000
275.51	-0.000
275.72	-0.000
275.93	-0.000
276.14	-0.000
276.35	-0.000
276.57	-0.000
276.78	-0.000
276.99	-0.000
277.20	-0.000
277.41	-0.000
277.63	-0.000
277.84	-0.000
278.05	-0.000
278.26	-0.000
278.47	-0.000
278.69	-0.000
278.90	-0.000
279.11	-0.000
279.32	-0.000
279.53	-0.000
279.74	-0.000
279.96	-0.000
280.17	-0.000
280.38	-0.000
280.59	-0.000
280.80	-0.000
281.02	-0.000
281.23	-0.000
281.44	-0.000
281.65	-0.000
281.86	-0.000
282.07	-0.000
282.29	-0.000
282.50	-0.000
282.71	-0.000
282.92	-0.000
283.13	-0.000
283.35	-0.000
283.56	-0.000
283.77	-0.000
283.98	-0.000
284.19	-0.000
284.40	-0.000
284.62	-0.000
284.83	-0.000
285.04	-0.000
285.25	-0.000
285.46	-0.000
285.67	-0.000
285.88	-0.000
286.10	-0.000
286.31	-0.000
286.52	-0.000
286.73	-0.000
286.94	-0.000
287.15	-0.000
287.37	-0.000
287.58	-0.000
287.79	-0.000
288.00	-0.000
288.21	-0.000
288.42	-0.000
288.63	-0.000
288.85	-0.000
289.06	-0.000
289.27	-0.000
289.48	-0.000
289.69	-0.000
289.90	-0.000
290.11	-0.000
290.33	-0.000
290.54	-0.000
290.75	-0.000
290.96	-0.000
291.17	-0.000
291.38	-0.000
291.59	-0.000
291.81	-0.000
292.02	-0.000
292.23	-0.000
292.44	-0.000
292.65	-0.000
292.86	-0.000
293.07	-0.000
293.28	-0.000
293.50	-0.000
293.71	-0.000
293.92	-0.000
294.13	-0.000
294.34	-0.000
294.55	-0.000
294.76	-0.000
294.97	-0.000
295.19	-0.000
295.40	-0.000
295.61	-0.000
295.82	-0.000
296.03	-0.000
296.24	-0.000
296.45	-0.000
296.66	-0.000
296.87	-0.000
297.09	-0.000
297.30	-0.000
297.51	3.565
297.72	2.659
297.93	-0.000
298.14	-0.000
298.35	2.686
298.56	2.406
298.77	-0.000
298.99	-0.000
299.20	2.847
299.41	2.572
299.62	2.290
299.83	2.259
300.04	2.018
300.25	1.982
300.46	2.103
300.67	1.997
300.88	1.862
301.10	1.859
301.31	2.035
301.52	1.884
301.73	1.759
301.94	1.766
302.15	1.790
302.36	1.708
302.57	1.601
302.78	1.620
302.99	1.704
303.20	1.733
303.41	1.578
303.63	1.553
303.84	1.573
304.05	1.562
304.26	1.472
304.47	1.476
304.68	1.486
304.89	1.468
305.10	1.402
305.31	1.387
305.52	1.444
305.73	1.436
305.94	1.379
306.15	1.362
306.37	1.393
306.58	1.400
306.79	1.357
307.00	1.379
307.21	1.434
307.42	1.428
307.63	1.373
307.84	1.332
308.05	1.376
308.26	1.372
308.47	1.344
308.68	1.340
308.89	1.338
309.10	1.333
309.31	1.285
309.52	1.272
309.73	1.290
309.95	1.283
310.16	1.248
310.37	1.237
310.58	1.261
310.79	1.256
311.00	1.251
311.21	1.257
311.42	1.262
311.63	1.252
311.84	1.228
312.05	1.225
312.26	1.253
312.47	1.263
312.68	1.233
312.89	1.211
313.10	1.225
313.31	1.190
313.52	1.190
313.73	1.190
313.94	1.197
314.15	1.177
314.36	1.151
314.57	1.141
314.78	1.127
314.99	1.119
315.21	1.106
315.42	1.105
315.63	1.121
315.84	1.097
316.05	1.082
316.26	1.089
316.47	1.110
316.68	1.106
316.89	1.084
317.10	1.109
317.31	1.118
317.52	1.118
317.73	1.098
317.94	1.098
318.15	1.144
318.36	1.142
318.57	1.122
318.78	1.110
318.99	1.152
319.20	1.149
319.41	1.108
319.62	1.110
319.83	1.125
320.04	1.117
320.25	1.098
320.46	1.061
320.67	1.064
320.88	1.059
321.09	1.043
321.30	1.025
321.51	1.041
321.72	1.040
321.93	1.021
322.14	1.013
322.35	1.042
322.56	1.044
322.77	1.028
322.98	1.040
323.19	1.047
323.40	1.054
323.61	1.031
323.82	1.025
324.03	1.031
324.24	1.027
324.45	1.013
324.66	0.994
324.87	0.993
325.08	0.994
325.29	0.974
325.50	0.967
325.71	0.973
325.92	0.981
326.13	0.966
326.34	0.966
326.55	0.977
326.76	0.976
326.97	0.964
327.18	0.956
327.39	0.981
327.60	0.982
327.80	0.982
328.01	0.980
328.22	0.980
328.43	0.983
328.64	0.970
328.85	0.972
329.06	0.972
329.27	0.970
329.48	0.964
329.69	0.946
329.90	0.956
330.11	0.947
330.32	0.939
330.53	0.933
330.74	0.933
330.95	0.931
331.16	0.915
331.37	0.924
331.58	0.925
331.79	0.925
332.00	0.916
332.21	0.910
332.42	0.915
332.63	0.906
332.83	0.900
333.04	0.903
333.25	0.916
333.46	0.914
333.67	0.900
333.88	0.904
334.09	0.915
334.30	0.910
334.51	0.899
334.72	0.896
334.93	0.899
335.14	0.897
335.35	0.888
335.56	0.884
335.77	0.894
335.98	0.893
336.18	0.885
336.39	0.877
336.60	0.883
336.81	0.881
337.02	0.879
337.23	0.884
337.44	0.889
337.65	0.891
337.86	0.881
338.07	0.875
338.28	0.880
338.49	0.877
338.70	0.870
338.91	0.877
339.11	0.885
339.32	0.882
339.53	0.868
339.74	0.865
339.95	0.862
340.16	0.860
340.37	0.853
340.58	0.850
340.79	0.856
341.00	0.856
341.21	0.843
341.41	0.842
341.62	0.844
341.83	0.846
342.04	0.840
342.25	0.851
342.46	0.857
342.67	0.856
342.88	0.847
343.09	0.846
343.30	0.854
343.50	0.857
343.71	0.847
343.92	0.845
344.13	0.849
344.34	0.849
344.55	0.833
344.76	0.829
344.97	0.833
345.18	0.832
345.38	0.828
345.59	0.823
345.80	0.823
346.01	0.821
346.22	0.816
346.43	0.811
346.64	0.819
346.85	0.818
347.06	0.812
347.26	0.812
347.47	0.817
347.68	0.812
347.89	0.807
348.10	0.802
348.31	0.810
348.52	0.809
348.73	0.807
348.93	0.803
349.14	0.806
349.35	0.805
349.56	0.799
349.77	0.795
349.98	0.802
350.19	0.799
350.39	0.794
350.60	0.789
350.81	0.806
351.02	0.804
351.23	0.798
351.44	0.801
351.65	0.805
351.86	0.803
352.06	0.801
352.27	0.801
352.48	0.803
352.69	0.802
352.90	0.797
353.11	0.784
353.31	0.790
353.52	0.788
353.73	0.779
353.94	0.780
354.15	0.785
354.36	0.785
354.57	0.776
354.77	0.778
354.98	0.778
355.19	0.777
355.40	0.776
355.61	0.783
355.82	0.787
356.02	0.786
356.23	0.780
356.44	0.781
356.65	0.785
356.86	0.786
357.07	0.779
357.27	0.784
357.48	0.786
357.69	0.782
357.90	0.766
358.11	0.762
358.32	0.766
358.52	0.769
358.73	0.759
358.94	0.762
359.15	0.766
359.36	0.767
359.56	0.760
359.77	0.758
359.98	0.765
360.19	0.765
360.40	0.762
360.61	0.762
360.81	0.761
361.02	0.761
361.23	0.753
361.44	0.751
361.65	0.752
361.85	0.752
362.06	0.749
362.27	0.752
362.48	0.752
362.69	0.754
362.89	0.747
363.10	0.748
363.31	0.753
363.52	0.756
363.73	0.751
363.93	0.752
364.14	0.755
364.35	0.757
364.56	0.746
364.77	0.748
364.97	0.751
365.18	0.752
365.39	0.746
365.60	0.742
365.81	0.743
366.01	0.743
366.22	0.739
366.43	0.738
366.64	0.740
366.84	0.747
367.05	0.742
367.26	0.742
367.47	0.744
367.68	0.744
367.88	0.741
368.09	0.738
368.30	0.741
368.51	0.741
368.71	0.740
368.92	0.744
369.13	0.742
369.34	0.741
369.55	0.740
369.75	0.740
369.96	0.747
370.17	0.747
370.38	0.744
370.58	0.744
370.79	0.749
371.00	0.747
371.21	0.738
371.41	0.744
371.62	0.749
371.83	0.744
372.04	0.742
372.24	0.735
372.45	0.736
372.66	0.737
372.87	0.733
373.07	0.730
373.28	0.731
373.49	0.734
373.70	0.723
373.90	0.723
374.11	0.732
374.32	0.732
374.53	0.731
374.73	0.732
374.94	0.733
375.15	0.734
375.36	0.731
375.56	0.739
375.77	0.740
375.98	0.741
376.19	0.737
376.39	0.730
376.60	0.734
376.81	0.734
377.02	0.732
377.22	0.731
377.43	0.730
377.64	0.730
377.84	0.721
378.05	0.725
378.26	0.731
378.47	0.730
378.67	0.726
378.88	0.722
379.09	0.723
379.30	0.723
379.50	0.720
379.71	0.722
379.92	0.725
380.12	0.724
380.33	0.715
380.54	0.712
380.75	0.719
380.95	0.719
381.16	0.717
381.37	0.717
381.57	0.719
381.78	0.720
381.99	0.719
382.20	0.719
382.40	0.722
382.61	0.723
382.82	0.719
383.02	0.713
383.23	0.717
383.44	0.717
383.64	0.715
383.85	0.717
384.06	0.719
384.27	0.717
384.47	0.715
384.68	0.715
384.89	0.721
385.09	0.721
385.30	0.720
385.51	0.719
385.71	0.722
385.92	0.722
386.13	0.720
386.33	0.722
386.54	0.723
386.75	0.721
386.95	0.717
387.16	0.712
387.37	0.715
387.58	0.715
387.78	0.712
387.99	0.710
388.20	0.712
388.40	0.709
388.61	0.705
388.82	0.708
389.02	0.711
389.23	0.711
389.44	0.709
389.64	0.708
389.85	0.719
390.06	0.719
390.26	0.719
390.47	0.718
390.68	0.720
390.88	0.719
391.09	0.714
391.30	0.713
391.50	0.713
391.71	0.712
391.92	0.710
392.12	0.702
392.33	0.703
392.53	0.703
392.74	0.703
392.95	0.702
393.15	0.705
393.36	0.707
393.57	0.704
393.77	0.707
393.98	0.710
394.19	0.709
394.39	0.708
394.60	0.709
394.81	0.711
395.01	0.709
395.22	0.707
395.43	0.707
395.63	0.712
395.84	0.713
396.04	0.708
396.25	0.710
396.46	0.712
396.66	0.710
396.87	0.707
397.08	0.704
397.28	0.706
397.49	0.707
397.69	0.703
397.90	0.698
398.11	0.700
398.31	0.701
398.52	0.696
398.73	0.697
398.93	0.697
399.14	0.696
399.34	0.694
399.55	0.696
399.76	0.696
399.96	0.697
400.17	0.695
400.37	0.693
400.58	0.700
400.79	0.702
400.99	0.699
401.20	0.704
401.41	0.707
401.61	0.708
401.82	0.713
402.02	0.712
402.23	0.713
402.44	0.712
402.64	0.712
402.85	0.706
403.05	0.705
403.26	0.705
403.47	0.698
403.67	0.697
403.88	0.697
404.08	0.691
404.29	0.689
404.50	0.688
404.70	0.689
404.91	0.689
405.11	0.686
405.32	0.686
405.52	0.686
405.73	0.685
405.94	0.684
406.14	0.686
406.35	0.688
406.55	0.688
406.76	0.686
406.97	0.687
407.17	0.689
407.38	0.689
407.58	0.687
407.79	0.689
407.99	0.692
408.20	0.693
408.41	0.689
408.61	0.687
408.82	0.688
409.02	0.688
409.23	0.684
409.43	0.683
409.64	0.685
409.84	0.685
410.05	0.681
410.26	0.680
410.46	0.679
410.67	0.679
410.87	0.680
411.08	0.681
411.28	0.683
411.49	0.684
411.69	0.681
411.90	0.683
412.11	0.684
412.31	0.685
412.52	0.683
412.72	0.684
412.93	0.685
413.13	0.684
413.34	0.681
413.54	0.682
413.75	0.684
413.95	0.683
414.16	0.680
414.37	0.683
414.57	0.683
414.78	0.685
414.98	0.683
415.19	0.685
415.39	0.683
415.60	0.684
415.80	0.684
416.01	0.683
416.21	0.685
416.42	0.685
416.62	0.679
416.83	0.681
417.03	0.680
417.24	0.680
417.44	0.678
417.65	0.677
417.86	0.678
418.06	0.676
418.27	0.673
418.47	0.675
418.68	0.677
418.88	0.677
419.09	0.675
419.29	0.675
419.50	0.676
419.70	0.675
419.91	0.674
420.11	0.672
420.32	0.674
420.52	0.673
420.73	0.672
420.93	0.672
421.14	0.674
421.34	0.673
421.55	0.670
421.75	0.670
421.96	0.671
422.16	0.671
422.37	0.671
422.57	0.668
422.78	0.671
422.98	0.667
423.19	0.664
423.39	0.663
423.60	0.668
423.80	0.669
424.01	0.667
424.21	0.670
424.42	0.671
424.62	0.671
424.83	0.669
425.03	0.669
425.23	0.672
425.44	0.672
425.64	0.672
425.85	0.671
426.05	0.672
426.26	0.672
426.46	0.668
426.67	0.668
426.87	0.674
427.08	0.675
427.28	0.672
427.49	0.673
427.69	0.674
427.90	0.673
428.10	0.670
428.31	0.670
428.51	0.672
428.71	0.671
428.92	0.672
429.12	0.669
429.33	0.670
429.53	0.673
429.74	0.677
429.94	0.678
430.15	0.678
430.35	0.678
430.56	0.674
430.76	0.673
430.96	0.675
431.17	0.671
431.37	0.669
431.58	0.667
431.78	0.665
431.99	0.658
432.19	0.660
432.40	0.661
432.60	0.662
432.80	0.664
433.01	0.662
433.21	0.663
433.42	0.665
433.62	0.666
433.83	0.665
434.03	0.667
434.23	0.670
434.44	0.669
434.64	0.667
434.85	0.672
435.05	0.674
435.26	0.675
435.46	0.673
435.66	0.673
435.87	0.673
436.07	0.673
436.28	0.668
436.48	0.665
436.69	0.665
436.89	0.665
437.09	0.659
437.30	0.657
437.50	0.658
437.71	0.670
437.91	0.669
438.11	0.670
438.32	0.674
438.52	0.675
438.73	0.674
438.93	0.672
439.13	0.673
439.34	0.676
439.54	0.674
439.75	0.674
439.95	0.664
440.15	0.668
440.36	0.667
440.56	0.665
440.77	0.666
440.97	0.666
441.17	0.665
441.38	0.666
441.58	0.664
441.79	0.663
441.99	0.662
442.19	0.661
442.40	0.659
442.60	0.659
442.81	0.656
443.01	0.656
443.21	0.658
443.42	0.658
443.62	0.656
443.82	0.656
444.03	0.657
444.23	0.657
444.44	0.656
444.64	0.656
444.84	0.658
445.05	0.657
445.25	0.655
445.45	0.655
445.66	0.657
445.86	0.657
446.06	0.658
446.27	0.658
446.47	0.661
446.68	0.660
446.88	0.659
447.08	0.658
447.29	0.661
447.49	0.661
447.69	0.660
447.90	0.659
448.10	0.663
448.30	0.660
448.51	0.661
448.71	0.658
448.91	0.660
449.12	0.658
449.32	0.659
449.52	0.658
449.73	0.662
449.93	0.660
450.14	0.661
450.34	0.660
450.54	0.663
450.75	0.661
450.95	0.660
451.15	0.660
451.36	0.663
451.56	0.660
451.76	0.660
451.97	0.657
452.17	0.658
452.37	0.656
452.58	0.653
452.78	0.653
452.98	0.655
453.19	0.655
453.39	0.655
453.59	0.654
453.79	0.655
454.00	0.656
454.20	0.654
454.40	0.655
454.61	0.657
454.81	0.658
455.01	0.657
455.22	0.657
455.42	0.659
455.62	0.657
455.83	0.656
456.03	0.659
456.23	0.660
456.44	0.661
456.64	0.660
456.84	0.660
457.04	0.661
457.25	0.660
457.45	0.656
457.65	0.655
457.86	0.656
458.06	0.654
458.26	0.650
458.47	0.650
458.67	0.651
458.87	0.651
459.07	0.649
459.28	0.651
459.48	0.654
459.68	0.655
459.89	0.654
460.09	0.653
460.29	0.655
460.49	0.656
460.70	0.654
460.90	0.654
461.10	0.655
461.31	0.654
461.51	0.652
461.71	0.653
461.91	0.654
462.12	0.654
462.32	0.653
462.52	0.654
462.72	0.657
462.93	0.658
463.13	0.656
463.33	0.657
463.53	0.658
463.74	0.658
463.94	0.653
464.14	0.653
464.35	0.655
464.55	0.655
464.75	0.653
464.95	0.651
465.16	0.653
465.36	0.652
465.56	0.650
465.76	0.650
465.97	0.650
466.17	0.652
466.37	0.649
466.57	0.651
466.78	0.652
466.98	0.652
467.18	0.650
467.38	0.649
467.59	0.651
467.79	0.652
467.99	0.650
468.19	0.652
468.39	0.655
468.60	0.655
468.80	0.653
469.00	0.655
469.20	0.656
469.41	0.657
469.61	0.656
469.81	0.656
470.01	0.655
470.22	0.656
470.42	0.653
470.62	0.651
470.82	0.653
471.02	0.652
471.23	0.649
471.43	0.649
471.63	0.651
471.83	0.650
472.04	0.649
472.24	0.648
472.44	0.654
472.64	0.654
472.84	0.652
473.05	0.652
473.25	0.655
473.45	0.655
473.65	0.653
473.85	0.653
474.06	0.655
474.26	0.654
474.46	0.655
474.66	0.651
474.86	0.653
475.07	0.653
475.27	0.650
475.47	0.648
475.67	0.648
475.87	0.651
476.08	0.648
476.28	0.648
476.48	0.651
476.68	0.650
476.88	0.647
477.09	0.648
477.29	0.649
477.49	0.650
477.69	0.649
477.89	0.649
478.09	0.648
478.30	0.651
478.50	0.648
478.70	0.647
478.90	0.647
479.10	0.651
479.31	0.651
479.51	0.649
479.71	0.650
479.91	0.650
480.11	0.649
480.31	0.649
480.52	0.648
480.72	0.648
480.92	0.646
481.12	0.645
481.32	0.643
481.52	0.641
481.72	0.641
481.93	0.644
482.13	0.645
482.33	0.645
482.53	0.643
482.73	0.644
482.93	0.645
483.14	0.645
483.34	0.643
483.54	0.644
483.74	0.643
483.94	0.642
484.14	0.638
484.34	0.638
484.55	0.639
484.75	0.638
484.95	0.637
485.15	0.636
485.35	0.636
485.55	0.636
485.75	0.634
485.96	0.634
486.16	0.636
486.36	0.635
486.56	0.633
486.76	0.633
486.96	0.634
487.16	0.633
487.36	0.631
487.57	0.631
487.77	0.633
487.97	0.633
488.17	0.631
488.37	0.630
488.57	0.631
488.77	0.631
488.97	0.630
489.18	0.629
489.38	0.632
489.58	0.633
489.78	0.632
489.98	0.631
490.18	0.631
490.38	0.632
490.58	0.631
490.78	0.631
490.98	0.633
491.19	0.633
491.39	0.632
491.59	0.630
491.79	0.633
491.99	0.634
492.19	0.633
492.39	0.636
492.59	0.636
492.79	0.639
492.99	0.639
493.20	0.639
493.40	0.639
493.60	0.641
493.80	0.639
494.00	0.637
494.20	0.638
494.40	0.638
494.60	0.635
494.80	0.639
495.00	0.639
495.20	0.637
495.40	0.636
495.61	0.638
495.81	0.638
496.01	0.642
496.21	0.642
496.41	0.641
496.61	0.642
496.81	0.641
497.01	0.636
497.21	0.636
497.41	0.637
497.61	0.636
497.81	0.633
498.01	0.633
498.21	0.631
498.41	0.629
498.61	0.630
498.82	0.631
499.02	0.633
499.22	0.634
499.42	0.633
499.62	0.634
499.82	0.635
500.02	0.637
500.22	0.636
500.42	0.637
500.62	0.638
500.82	0.638
501.02	0.636
501.22	0.636
501.42	0.635
501.62	0.638
501.82	0.637
502.02	0.637
502.22	0.636
502.42	0.638
502.62	0.635
502.82	0.636
503.02	0.636
503.22	0.636
503.42	0.634
503.63	0.635
503.83	0.633
504.03	0.632
504.23	0.630
504.43	0.631
504.63	0.632
504.83	0.632
505.03	0.631
505.23	0.632
505.43	0.634
505.63	0.635
505.83	0.634
506.03	0.636
506.23	0.638
506.43	0.639
506.63	0.637
506.83	0.635
507.03	0.637
507.23	0.638
507.43	0.635
507.63	0.636
507.83	0.637
508.03	0.637
508.23	0.636
508.43	0.635
508.63	0.637
508.83	0.637
509.03	0.638
509.23	0.637
509.43	0.639
509.63	0.638
509.83	0.636
510.03	0.639
510.23	0.641
510.43	0.642
510.63	0.642
510.83	0.642
511.03	0.644
511.23	0.641
511.43	0.641
511.63	0.643
511.83	0.646
512.03	0.645
512.22	0.642
512.42	0.642
512.62	0.643
512.82	0.643
513.02	0.642
513.22	0.641
513.42	0.643
513.62	0.646
513.82	0.644
514.02	0.642
514.22	0.644
514.42	0.644
514.62	0.643
514.82	0.644
515.02	0.646
515.22	0.649
515.42	0.647
515.62	0.649
515.82	0.648
516.02	0.650
516.22	0.650
516.42	0.652
516.62	0.653
516.82	0.655
517.01	0.653
517.21	0.653
517.41	0.657
517.61	0.658
517.81	0.654
518.01	0.653
518.21	0.653
518.41	0.652
518.61	0.650
518.81	0.651
519.01	0.651
519.21	0.652
519.41	0.650
519.61	0.644
519.81	0.647
520.00	0.647
520.20	0.648
520.40	0.651
520.60	0.651
520.80	0.651
521.00	0.651
521.20	0.652
521.40	0.657
521.60	0.658
521.80	0.656
522.00	0.656
522.20	0.659
522.39	0.658
522.59	0.655
522.79	0.657
522.99	0.659
523.19	0.657
523.39	0.654
523.59	0.653
523.79	0.656
523.99	0.658
524.19	0.658
524.38	0.656
524.58	0.658
524.78	0.659
524.98	0.657
525.18	0.660
525.38	0.661
525.58	0.661
525.78	0.658
525.98	0.657
526.18	0.657
526.37	0.655
526.57	0.657
526.77	0.657
526.97	0.657
527.17	0.657
527.37	0.653
527.57	0.655
527.77	0.658
527.96	0.658
528.16	0.657
528.36	0.658
528.56	0.660
528.76	0.658
528.96	0.657
529.16	0.658
529.36	0.662
529.55	0.662
529.75	0.659
529.95	0.659
530.15	0.660
530.35	0.663
530.55	0.660
530.75	0.661
530.94	0.663
531.14	0.663
531.34	0.661
531.54	0.658
531.74	0.662
531.94	0.664
532.13	0.661
532.33	0.663
532.53	0.662
532.73	0.662
532.93	0.659
533.13	0.661
533.33	0.661
533.52	0.662
533.72	0.665
533.92	0.663
534.12	0.662
534.32	0.663
534.52	0.661
534.71	0.663
534.91	0.666
535.11	0.668
535.31	0.665
535.51	0.667
535.71	0.669
535.90	0.666
536.10	0.667
536.30	0.668
536.50	0.669
536.70	0.670
536.89	0.667
537.09	0.667
537.29	0.668
537.49	0.669
537.69	0.667
537.89	0.667
538.08	0.667
538.28	0.665
538.48	0.666
538.68	0.668
538.88	0.669
539.07	0.669
539.27	0.667
539.47	0.666
539.67	0.667
539.87	0.668
540.06	0.665
540.26	0.666
540.46	0.668
540.66	0.666
540.86	0.663
541.05	0.663
541.25	0.665
541.45	0.665
541.65	0.663
541.84	0.666
542.04	0.666
542.24	0.667
542.44	0.666
542.64	0.667
542.83	0.670
543.03	0.671
543.23	0.668
543.43	0.669
543.62	0.670
543.82	0.670
544.02	0.668
544.22	0.669
544.42	0.672
544.61	0.672
544.81	0.670
545.01	0.669
545.21	0.671
545.40	0.672
545.60	0.669
545.80	0.673
546.00	0.674
546.19	0.672
546.39	0.671
546.59	0.669
546.79	0.671
546.98	0.671
547.18	0.670
547.38	0.671
547.58	0.674
547.77	0.674
547.97	0.670
548.17	0.672
548.37	0.672
548.56	0.673
548.76	0.672
548.96	0.674
549.16	0.676
549.35	0.676
549.55	0.673
549.75	0.674
549.95	0.678
550.14	0.677
550.34	0.675
550.54	0.681
550.73	0.685
550.93	0.685
551.13	0.681
551.33	0.679
551.52	0.681
551.72	0.680
551.92	0.679
552.12	0.679
552.31	0.680
552.51	0.680
552.71	0.674
552.90	0.675
553.10	0.676
553.30	0.676
553.50	0.676
553.69	0.677
553.89	0.678
554.09	0.678
554.28	0.675
554.48	0.677
554.68	0.680
554.87	0.680
555.07	0.677
555.27	0.677
555.47	0.679
555.66	0.680
555.86	0.678
556.06	0.680
556.25	0.682
556.45	0.689
556.65	0.687
556.84	0.690
557.04	0.693
557.24	0.695
557.43	0.694
557.63	0.697
557.83	0.698
558.02	0.699
558.22	0.703
558.42	0.704
558.61	0.697
558.81	0.697
559.01	0.693
559.21	0.693
559.40	0.694
559.60	0.694
559.80	0.689
559.99	0.691
560.19	0.694
560.39	0.687
560.58	0.684
560.78	0.685
560.97	0.688
561.17	0.687
561.37	0.685
561.56	0.685
561.76	0.687
561.96	0.688
562.15	0.684
562.35	0.687
562.55	0.688
562.74	0.689
562.94	0.687
563.14	0.685
563.33	0.687
563.53	0.687
563.73	0.683
563.92	0.685
564.12	0.688
564.31	0.690
564.51	0.688
564.71	0.690
564.90	0.693
565.10	0.694
565.30	0.696
565.49	0.697
565.69	0.700
565.89	0.701
566.08	0.697
566.28	0.698
566.47	0.700
566.67	0.697
566.87	0.694
567.06	0.695
567.26	0.701
567.46	0.697
567.65	0.695
567.85	0.696
568.04	0.700
568.24	0.699
568.44	0.695
568.63	0.694
568.83	0.696
569.02	0.695
569.22	0.691
569.42	0.686
569.61	0.689
569.81	0.688
570.00	0.685
570.20	0.687
570.40	0.688
570.59	0.688
570.79	0.685
570.98	0.683
571.18	0.685
571.38	0.685
571.57	0.682
571.77	0.679
571.96	0.683
572.16	0.680
572.35	0.674
572.55	0.675
572.75	0.674
572.94	0.673
573.14	0.672
573.33	0.672
573.53	0.672
573.73	0.672
573.92	0.670
574.12	0.668
574.31	0.671
574.51	0.672
574.70	0.669
574.90	0.671
575.09	0.674
575.29	0.673
575.49	0.670
575.68	0.671
575.88	0.672
576.07	0.674
576.27	0.672
576.46	0.670
576.66	0.669
576.86	0.669
577.05	0.666
577.25	0.664
577.44	0.666
577.64	0.666
577.83	0.664
578.03	0.666
578.22	0.665
578.42	0.664
578.61	0.662
578.81	0.663
579.00	0.664
579.20	0.663
579.40	0.662
579.59	0.661
579.79	0.661
579.98	0.661
580.18	0.660
580.37	0.660
580.57	0.663
580.76	0.668
580.96	0.666
581.15	0.666
581.35	0.669
581.54	0.668
581.74	0.667
581.93	0.669
582.13	0.671
582.32	0.668
582.52	0.666
582.71	0.666
582.91	0.662
583.10	0.662
583.30	0.661
583.49	0.660
583.69	0.664
583.88	0.665
584.08	0.664
584.27	0.666
584.47	0.669
584.66	0.669
584.86	0.667
585.05	0.669
585.25	0.672
585.44	0.671
585.64	0.670
585.83	0.666
586.03	0.667
586.22	0.666
586.42	0.662
586.61	0.664
586.81	0.666
587.00	0.666
587.20	0.664
587.39	0.665
587.59	0.667
587.78	0.669
587.98	0.669
588.17	0.670
588.37	0.673
588.56	0.675
588.76	0.671
588.95	0.671
589.15	0.675
589.34	0.678
589.54	0.676
589.73	0.676
589.92	0.680
590.12	0.679
590.31	0.676
590.51	0.682
590.70	0.683
590.90	0.684
591.09	0.681
591.29	0.680
591.48	0.680
591.68	0.681
591.87	0.679
592.06	0.678
592.26	0.681
592.45	0.680
592.65	0.673
592.84	0.673
593.04	0.676
593.23	0.678
593.43	0.676
593.62	0.675
593.81	0.677
594.01	0.676
594.20	0.674
594.40	0.673
594.59	0.676
594.79	0.677
594.98	0.675
595.17	0.674
595.37	0.675
595.56	0.677
595.76	0.676
595.95	0.677
596.14	0.680
596.34	0.680
596.53	0.678
596.73	0.679
596.92	0.681
597.12	0.683
597.31	0.683
597.50	0.682
597.70	0.684
597.89	0.683
598.09	0.680
598.28	0.682
598.47	0.685
598.67	0.683
598.86	0.680
599.06	0.681
599.25	0.683
599.44	0.681
599.64	0.678
599.83	0.676
600.03	0.680
600.22	0.680
600.41	0.680
600.61	0.678
600.80	0.681
601.00	0.682
601.19	0.677
601.38	0.675
601.58	0.678
601.77	0.679
601.96	0.681
602.16	0.680
602.35	0.690
602.55	0.687
602.74	0.687
602.93	0.688
603.13	0.693
603.32	0.694
603.51	0.694
603.71	0.697
603.90	0.699
604.09	0.700
604.29	0.697
604.48	0.690
604.68	0.692
604.87	0.690
605.06	0.687
605.26	0.684
605.45	0.685
605.64	0.684
605.84	0.679
606.03	0.678
606.22	0.678
606.42	0.677
606.61	0.674
606.80	0.674
607.00	0.676
607.19	0.676
607.38	0.675
607.58	0.676
607.77	0.679
607.96	0.679
608.16	0.677
608.35	0.682
608.54	0.685
608.74	0.688
608.93	0.693
609.12	0.696
609.32	0.698
609.51	0.702
609.70	0.701
609.90	0.702
610.09	0.707
610.28	0.712
610.48	0.705
610.67	0.708
610.86	0.708
611.06	0.702
611.25	0.700
611.44	0.702
611.64	0.702
611.83	0.704
612.02	0.701
612.21	0.700
612.41	0.698
612.60	0.697
612.79	0.693
612.99	0.693
613.18	0.695
613.37	0.693
613.57	0.689
613.76	0.691
613.95	0.689
614.14	0.688
614.34	0.686
614.53	0.687
614.72	0.691
614.92	0.690
615.11	0.686
615.30	0.684
615.49	0.685
615.69	0.689
615.88	0.685
616.07	0.686
616.26	0.689
616.46	0.690
616.65	0.686
616.84	0.685
617.04	0.688
617.23	0.691
617.42	0.691
617.61	0.695
617.81	0.695
618.00	0.697
618.19	0.696
618.38	0.698
618.58	0.702
618.77	0.704
618.96	0.703
619.15	0.705
619.35	0.707
619.54	0.708
619.73	0.703
619.92	0.706
620.12	0.710
620.31	0.710
620.50	0.705
620.69	0.705
620.89	0.708
621.08	0.708
621.27	0.707
621.46	0.706
621.66	0.710
621.85	0.709
622.04	0.706
622.23	0.707
622.43	0.708
622.62	0.708
622.81	0.707
623.00	0.706
623.19	0.711
623.39	0.710
623.58	0.707
623.77	0.706
623.96	0.710
624.16	0.709
624.35	0.703
624.54	0.707
624.73	0.711
624.92	0.708
625.12	0.705
625.31	0.705
625.50	0.709
625.69	0.710
625.88	0.706
626.08	0.706
626.27	0.709
626.46	0.709
626.65	0.705
626.84	0.705
627.04	0.711
627.23	0.712
627.42	0.707
627.61	0.709
627.80	0.713
628.00	0.713
628.19	0.710
628.38	0.714
628.57	0.718
628.76	0.717
628.96	0.713
629.15	0.714
629.34	0.717
629.53	0.717
629.72	0.711
629.91	0.711
630.11	0.716
630.30	0.717
630.49	0.719
630.68	0.719
630.87	0.723
631.06	0.726
631.26	0.720
631.45	0.722
631.64	0.731
631.83	0.732
632.02	0.730
632.21	0.729
632.41	0.737
632.60	0.731
632.79	0.729
632.98	0.729
633.17	0.730
633.36	0.732
633.55	0.727
633.75	0.723
633.94	0.726
634.13	0.725
634.32	0.722
634.51	0.716
634.70	0.719
634.89	0.719
635.09	0.715
635.28	0.716
635.47	0.718
635.66	0.722
635.85	0.716
636.04	0.717
636.23	0.724
636.43	0.726
636.62	0.724
636.81	0.723
637.00	0.726
637.19	0.728
637.38	0.725
637.57	0.725
637.76	0.726
637.95	0.728
638.15	0.724
638.34	0.720
638.53	0.724
638.72	0.726
638.91	0.722
639.10	0.719
639.29	0.720
639.48	0.720
639.67	0.720
639.87	0.719
640.06	0.725
640.25	0.724
640.44	0.724
640.63	0.723
640.82	0.725
641.01	0.726
641.20	0.726
641.39	0.728
641.58	0.732
641.78	0.729
641.97	0.725
642.16	0.740
642.35	0.741
642.54	0.741
642.73	0.735
642.92	0.735
643.11	0.739
643.30	0.739
643.49	0.732
643.68	0.734
643.87	0.736
644.06	0.737
644.25	0.716
644.45	0.718
644.64	0.720
644.83	0.721
645.02	0.716
645.21	0.715
645.40	0.717
645.59	0.717
645.78	0.711
645.97	0.713
646.16	0.713
646.35	0.712
646.54	0.710
646.73	0.712
646.92	0.714
647.11	0.714
647.30	0.710
647.49	0.712
647.68	0.711
647.88	0.710
648.07	0.703
648.26	0.706
648.45	0.708
648.64	0.704
648.83	0.701
649.02	0.704
649.21	0.715
649.40	0.714
649.59	0.709
649.78	0.710
649.97	0.725
650.16	0.724
650.35	0.718
650.54	0.721
650.73	0.729
650.92	0.726
651.11	0.718
651.30	0.715
651.49	0.720
651.68	0.721
651.87	0.718
652.06	0.707
652.25	0.711
652.44	0.713
652.63	0.708
652.82	0.706
653.01	0.707
653.20	0.704
653.39	0.692
653.58	0.689
653.77	0.688
653.96	0.684
654.15	0.675
654.34	0.673
654.53	0.669
654.72	0.664
654.91	0.655
655.10	0.651
655.29	0.649
655.48	0.648
655.67	0.642
655.86	0.640
656.05	0.638
656.24	0.638
656.43	0.633
656.62	0.632
656.81	0.633
657.00	0.631
657.19	0.629
657.38	0.629
657.57	0.629
657.76	0.632
657.95	0.629
658.14	0.633
658.33	0.636
658.51	0.642
658.70	0.642
658.89	0.644
659.08	0.652
659.27	0.659
659.46	0.658
659.65	0.665
659.84	0.669
660.03	0.672
660.22	0.673
660.41	0.677
660.60	0.676
660.79	0.677
660.98	0.684
661.17	0.684
661.36	0.683
661.55	0.683
661.74	0.680
661.92	0.683
662.11	0.686
662.30	0.685
662.49	0.678
662.68	0.678
662.87	0.682
663.06	0.675
663.25	0.676
663.44	0.676
663.63	0.678
663.82	0.677
664.01	0.671
664.20	0.669
664.38	0.670
664.57	0.671
664.76	0.671
664.95	0.671
665.14	0.676
665.33	0.671
665.52	0.678
665.71	0.682
665.90	0.682
666.09	0.684
666.28	0.681
666.46	0.682
666.65	0.683
666.84	0.681
667.03	0.675
667.22	0.673
667.41	0.675
667.60	0.665
667.79	0.658
667.98	0.659
668.16	0.661
668.35	0.660
668.54	0.654
668.73	0.655
668.92	0.656
669.11	0.656
669.30	0.650
669.49	0.647
669.67	0.648
669.86	0.651
670.05	0.648
670.24	0.645
670.43	0.643
670.62	0.642
670.81	0.637
671.00	0.638
671.18	0.638
671.37	0.637
671.56	0.634
671.75	0.633
671.94	0.630
672.13	0.628
672.32	0.623
672.50	0.623
672.69	0.623
672.88	0.625
673.07	0.619
673.26	0.621
673.45	0.623
673.63	0.623
673.82	0.619
674.01	0.621
674.20	0.620
674.39	0.620
674.58	0.619
674.76	0.618
674.95	0.616
675.14	0.616
675.33	0.611
675.52	0.609
675.71	0.609
675.89	0.609
676.08	0.604
676.27	0.605
676.46	0.605
676.65	0.605
676.84	0.604
677.02	0.606
677.21	0.608
677.40	0.607
677.59	0.604
677.78	0.605
677.96	0.608
678.15	0.607
678.34	0.605
678.53	0.605
678.72	0.605
678.90	0.602
679.09	0.597
679.28	0.594
679.47	0.595
679.66	0.595
679.84	0.591
680.03	0.589
680.22	0.588
680.41	0.589
680.60	0.586
680.78	0.586
680.97	0.589
681.16	0.589
681.35	0.588
681.53	0.587
681.72	0.588
681.91	0.589
682.10	0.587
682.29	0.590
682.47	0.588
682.66	0.588
682.85	0.586
683.04	0.584
683.22	0.585
683.41	0.586
683.60	0.585
683.79	0.586
683.97	0.585
684.16	0.585
684.35	0.580
684.54	0.582
684.72	0.582
684.91	0.582
685.10	0.580
685.29	0.581
685.47	0.578
685.66	0.578
685.85	0.574
686.04	0.573
686.22	0.576
686.41	0.578
686.60	0.574
686.79	0.578
686.97	0.579
687.16	0.580
687.35	0.577
687.54	0.581
687.72	0.584
687.91	0.584
688.10	0.586
688.29	0.585
688.47	0.583
688.66	0.584
688.85	0.579
689.03	0.576
689.22	0.582
689.41	0.582
689.60	0.577
689.78	0.575
689.97	0.575
690.16	0.572
690.34	0.569
690.53	0.569
690.72	0.569
690.91	0.567
691.09	0.565
691.28	0.558
691.47	0.557
691.65	0.556
691.84	0.553
692.03	0.552
692.21	0.550
692.40	0.550
692.59	0.548
692.77	0.546
692.96	0.549
693.15	0.550
693.34	0.548
693.52	0.548
693.71	0.549
693.90	0.550
694.08	0.551
694.27	0.552
694.46	0.562
694.64	0.563
694.83	0.562
695.02	0.560
695.20	0.560
695.39	0.559
695.58	0.559
695.76	0.559
695.95	0.559
696.14	0.558
696.32	0.555
696.51	0.546
696.70	0.546
696.88	0.547
697.07	0.546
697.26	0.548
697.44	0.549
697.63	0.547
697.81	0.545
698.00	0.545
698.19	0.545
698.37	0.545
698.56	0.544
698.75	0.544
698.93	0.543
699.12	0.543
699.31	0.542
699.49	0.541
699.68	0.542
699.87	0.544
700.05	0.544
700.24	0.543
700.42	0.545
700.61	0.544
700.80	0.542
700.98	0.543
701.17	0.545
701.36	0.544
701.54	0.543
701.73	0.544
701.91	0.542
702.10	0.541
702.29	0.539
702.47	0.538
702.66	0.540
702.84	0.541
703.03	0.539
703.22	0.540
703.40	0.540
703.59	0.542
703.77	0.541
703.96	0.541
704.15	0.542
704.33	0.543
704.52	0.541
704.70	0.540
704.89	0.540
705.08	0.539
705.26	0.535
705.45	0.535
705.63	0.535
705.82	0.532
706.00	0.530
706.19	0.530
706.38	0.529
706.56	0.528
706.75	0.526
706.93	0.524
707.12	0.526
707.30	0.526
707.49	0.523
707.68	0.521
707.86	0.521
708.05	0.521
708.23	0.517
708.42	0.518
708.60	0.521
708.79	0.521
708.98	0.520
709.16	0.520
709.35	0.522
709.53	0.527
709.72	0.525
709.90	0.527
710.09	0.529
710.27	0.532
710.46	0.535
710.64	0.534
710.83	0.536
711.02	0.537
711.20	0.535
711.39	0.533
711.57	0.530
711.76	0.531
711.94	0.529
712.13	0.529
712.31	0.530
712.50	0.524
712.68	0.521
712.87	0.522
713.05	0.523
713.24	0.523
713.42	0.522
713.61	0.523
713.79	0.525
713.98	0.525
714.16	0.526
714.35	0.526
714.54	0.528
714.72	0.528
714.91	0.525
715.09	0.531
715.28	0.535
715.46	0.535
715.65	0.533
715.83	0.532
716.02	0.536
716.20	0.532
716.39	0.531
716.57	0.532
716.76	0.535
716.94	0.534
717.12	0.526
717.31	0.527
717.49	0.530
717.68	0.533
717.86	0.532
718.05	0.533
718.23	0.535
718.42	0.537
718.60	0.539
718.79	0.547
718.97	0.550
719.16	0.551
719.34	0.548
719.53	0.548
719.71	0.548
719.90	0.551
720.08	0.547
720.27	0.548
720.45	0.549
720.63	0.547
720.82	0.541
721.00	0.543
721.19	0.547
721.37	0.546
721.56	0.546
721.74	0.549
721.93	0.557
722.11	0.566
722.30	0.564
722.48	0.569
722.66	0.571
722.85	0.571
723.03	0.572
723.22	0.571
723.40	0.574
723.59	0.575
723.77	0.578
723.95	0.572
724.14	0.573
724.32	0.575
724.51	0.573
724.69	0.574
724.88	0.574
725.06	0.571
725.24	0.572
725.43	0.573
725.61	0.575
725.80	0.569
725.98	0.566
726.16	0.563
726.35	0.569
726.53	0.568
726.72	0.567
726.90	0.578
727.09	0.579
727.27	0.585
727.45	0.581
727.64	0.591
727.82	0.600
728.01	0.606
728.19	0.603
728.37	0.608
728.56	0.613
728.74	0.619
728.92	0.606
729.11	0.610
729.29	0.609
729.48	0.612
729.66	0.600
729.84	0.599
730.03	0.601
730.21	0.603
730.40	0.593
730.58	0.594
730.76	0.595
730.95	0.597
731.13	0.596
731.31	0.609
731.50	0.620
731.68	0.623
731.86	0.620
732.05	0.636
732.23	0.640
732.42	0.643
732.60	0.645
732.78	0.651
732.97	0.672
733.15	0.679
733.33	0.666
733.52	0.672
733.70	0.684
733.88	0.693
734.07	0.677
734.25	0.704
734.43	0.715
734.62	0.720
734.80	0.713
734.98	0.703
735.17	0.713
735.35	0.720
735.53	0.708
735.72	0.711
735.90	0.735
736.08	0.755
736.27	0.730
736.45	0.741
736.63	0.756
736.82	0.766
737.00	0.767
737.18	0.779
737.37	0.815
737.55	0.838
737.73	0.832
737.92	0.839
738.10	0.837
738.28	0.860
738.46	0.842
738.65	0.857
738.83	0.883
739.01	0.942
739.20	0.924
739.38	0.907
739.56	0.902
739.75	0.908
739.93	0.865
740.11	0.896
740.29	0.895
740.48	0.903
740.66	0.877
740.84	0.869
741.03	0.836
741.21	0.853
741.39	0.831
741.57	0.845
741.76	0.866
741.94	0.876
742.12	0.834
742.31	0.845
742.49	0.867
742.67	0.892
742.85	0.905
743.04	0.907
743.22	0.919
743.40	0.979
743.58	0.955
743.77	0.973
743.95	1.020
744.13	1.078
744.31	1.057
744.50	1.051
744.68	1.056
744.86	1.032
745.04	1.042
745.23	1.125
745.41	1.108
745.59	1.118
745.77	1.071
745.96	1.050
746.14	1.070
746.32	1.066
746.50	1.054
746.69	1.038
746.87	1.055
747.05	1.037
747.23	0.945
747.42	0.929
747.60	0.968
747.78	0.973
747.96	1.009
748.14	0.951
748.33	0.989
748.51	0.986
748.69	0.976
748.87	1.007
749.06	1.004
749.24	1.000
749.42	0.977
749.60	0.950
749.78	0.964
749.97	0.910
750.15	0.900
750.33	0.900
750.51	0.932
750.69	0.933
750.88	0.935
751.06	0.948
751.24	0.983
751.42	0.972
751.60	0.956
751.79	1.042
751.97	1.099
752.15	1.102
752.33	1.055
752.51	1.133
752.69	1.160
752.88	1.119
753.06	1.178
753.24	1.134
753.42	1.184
753.60	1.436
753.78	1.214
753.97	1.236
754.15	1.264
754.33	1.307
754.51	1.134
754.69	1.118
754.87	1.158
755.06	1.061
755.24	1.064
755.42	1.076
755.60	0.961
755.78	0.973
755.96	0.908
756.15	0.911
756.33	0.922
756.51	0.942
756.69	0.923
756.87	0.884
757.05	0.909
757.23	0.891
757.42	0.849
757.60	0.849
757.78	0.832
757.96	0.833
758.14	0.812
758.32	0.795
758.50	0.810
758.69	0.803
758.87	0.794
759.05	0.798
759.23	0.809
759.41	0.811
759.59	0.799
759.77	0.829
759.95	0.860
760.13	0.913
760.32	0.904
760.50	0.900
760.68	0.935
760.86	0.937
761.04	0.907
761.22	0.917
761.40	0.974
761.58	0.975
761.76	0.937
761.95	0.915
762.13	0.867
762.31	0.872
762.49	0.830
762.67	0.853
762.85	0.867
763.03	0.860
763.21	0.837
763.39	0.818
763.57	0.823
763.75	0.817
763.94	0.799
764.12	0.798
764.30	0.826
764.48	0.834
764.66	0.792
764.84	0.790
765.02	0.834
765.20	0.841
765.38	0.815
765.56	0.821
765.74	0.869
765.92	0.870
766.10	0.876
766.28	0.867
766.46	0.901
766.65	0.900
766.83	0.885
767.01	0.868
767.19	0.875
767.37	0.876
767.55	0.858
767.73	0.836
767.91	0.842
768.09	0.827
768.27	0.812
768.45	0.800
768.63	0.807
768.81	0.810
768.99	0.780
769.17	0.806
769.35	0.824
769.53	0.823
769.71	0.797
769.89	0.808
770.07	0.819
770.25	0.801
770.43	0.777
770.61	0.801
770.79	0.807
770.97	0.818
771.15	0.785
771.33	0.789
771.51	0.794
771.69	0.808
771.87	0.810
772.05	0.821
772.24	0.834
772.42	0.844
772.60	0.820
772.78	0.889
772.96	0.923
773.14	0.916
773.32	0.886
773.49	0.891
773.67	0.888
773.85	0.871
774.03	0.850
774.21	0.882
774.39	0.898
774.57	0.921
774.75	0.837
774.93	0.833
775.11	0.859
775.29	0.868
775.47	0.870
775.65	0.884
775.83	0.904
776.01	0.929
776.19	0.871
776.37	0.875
776.55	0.875
776.73	0.873
776.91	0.864
777.09	0.843
777.27	0.843
777.45	0.833
777.63	0.808
777.81	0.803
777.99	0.790
778.17	0.792
778.35	0.765
778.53	0.755
778.71	0.762
778.89	0.748
779.07	0.737
779.24	0.744
779.42	0.744
779.60	0.763
779.78	0.757
779.96	0.764
780.14	0.774
780.32	0.795
780.50	0.774
780.68	0.773
780.86	0.766
781.04	0.784
781.22	0.788
781.40	0.799
781.58	0.792
781.75	0.783
781.93	0.762
782.11	0.760
782.29	0.750
782.47	0.749
782.65	0.736
782.83	0.769
783.01	0.765
783.19	0.756
783.37	0.740
783.55	0.743
783.72	0.767
783.90	0.780
784.08	0.771
784.26	0.782
784.44	0.804
784.62	0.808
784.80	0.767
784.98	0.772
785.16	0.778
785.33	0.794
785.51	0.777
785.69	0.761
785.87	0.761
786.05	0.772
786.23	0.761
786.41	0.761
786.59	0.766
786.77	0.767
786.94	0.752
787.12	0.758
787.30	0.760
787.48	0.754
787.66	0.740
787.84	0.741
788.02	0.732
788.19	0.732
788.37	0.714
788.55	0.716
788.73	0.717
788.91	0.710
789.09	0.687
789.27	0.676
789.44	0.690
789.62	0.696
789.80	0.705
789.98	0.731
790.16	0.719
790.34	0.716
790.51	0.703
790.69	0.724
790.87	0.732
791.05	0.732
791.23	0.723
791.41	0.723
791.58	0.732
791.76	0.708
791.94	0.676
792.12	0.686
792.30	0.688
792.48	0.684
792.65	0.676
792.83	0.684
793.01	0.695
793.19	0.693
793.37	0.676
793.54	0.673
793.72	0.688
793.90	0.686
794.08	0.673
794.26	0.676
794.43	0.688
794.61	0.673
794.79	0.657
794.97	0.657
795.15	0.665
795.32	0.672
795.50	0.659
795.68	0.654
795.86	0.658
796.04	0.659
796.21	0.651
796.39	0.650
796.57	0.665
796.75	0.676
796.92	0.674
797.10	0.679
797.28	0.679
797.46	0.681
797.64	0.681
797.81	0.692
797.99	0.697
798.17	0.701
798.35	0.692
798.52	0.693
798.70	0.686
798.88	0.695
799.06	0.692
799.23	0.696
799.41	0.707
799.59	0.700
799.77	0.688
799.94	0.697
800.12	0.708
800.30	0.728
800.48	0.726
800.65	0.726
800.83	0.717
801.01	0.707
801.19	0.708
801.36	0.703
801.54	0.707
801.72	0.715
801.90	0.701
802.07	0.695
802.25	0.679
802.43	0.663
802.60	0.659
802.78	0.665
802.96	0.673
803.14	0.665
803.31	0.664
803.49	0.664
803.67	0.662
803.84	0.667
804.02	0.658
804.20	0.661
804.38	0.667
804.55	0.666
804.73	0.651
804.91	0.650
805.08	0.664
805.26	0.659
805.44	0.720
805.61	0.721
805.79	0.721
805.97	0.721
806.15	0.711
806.32	0.707
806.50	0.716
806.68	0.717
806.85	0.709
807.03	0.699
807.21	0.717
807.38	0.652
807.56	0.641
807.74	0.652
807.91	0.659
808.09	0.663
808.27	0.680
808.44	0.707
808.62	0.718
808.80	0.720
808.97	0.714
809.15	0.710
809.33	0.729
809.50	0.737
809.68	0.719
809.86	0.729
810.03	0.766
810.21	0.745
810.39	0.724
810.56	0.730
810.74	0.755
810.91	0.833
811.09	0.818
811.27	0.843
811.44	0.851
811.62	0.855
811.80	0.834
811.97	0.799
812.15	0.801
812.33	0.795
812.50	0.777
812.68	0.768
812.85	0.708
813.03	0.710
813.21	0.674
813.38	0.668
813.56	0.672
813.74	0.682
813.91	0.689
814.09	0.720
814.26	0.716
814.44	0.717
814.62	0.703
814.79	0.707
814.97	0.712
815.14	0.716
815.32	0.718
815.50	0.737
815.67	0.744
815.85	0.735
816.02	0.721
816.20	0.727
816.38	0.750
816.55	0.757
816.73	0.757
816.90	0.768
817.08	0.805
817.26	0.812
817.43	0.787
817.61	0.814
817.78	0.840
817.96	0.816
818.13	0.803
818.31	0.802
818.49	0.817
818.66	0.807
818.84	0.790
819.01	0.766
819.19	0.775
819.36	0.778
819.54	0.742
819.71	0.789
819.89	0.809
820.07	0.825
820.24	0.818
820.42	0.821
820.59	0.845
820.77	0.873
820.94	0.861
821.12	0.882
821.29	0.901
821.47	0.906
821.64	0.825
821.82	0.838
822.00	0.838
822.17	0.834
822.35	0.826
822.52	0.829
822.70	0.817
822.87	0.825
823.05	0.802
823.22	0.816
823.40	0.847
823.57	0.877
823.75	0.853
823.92	0.884
824.10	0.909
824.27	0.957
824.45	0.946
824.62	1.025
824.80	1.059
824.97	1.079
825.15	1.061
825.32	1.080
825.50	1.084
825.67	1.096
825.85	1.060
826.02	1.084
826.20	1.114
826.37	1.309
826.55	1.192
826.72	1.536
826.90	1.777
827.07	2.082
827.25	1.817
827.42	-0.000
827.60	-0.000
827.77	-0.000
827.95	-0.000
828.12	-0.000
828.30	-0.000
828.47	-0.000
828.65	1.909
828.82	2.437
829.00	-0.000
829.17	-0.000
829.34	-0.000
829.52	-0.000
829.69	-0.000
829.87	-0.000
830.04	-0.000
830.22	-0.000
830.39	-0.000
830.57	-0.000
830.74	-0.000
830.92	-0.000
831.09	-0.000
831.26	-0.000
831.44	-0.000
831.61	-0.000
831.79	-0.000
831.96	-0.000
832.14	-0.000
832.31	-0.000
832.49	-0.000
832.66	-0.000
832.83	-0.000
833.01	-0.000
833.18	-0.000
833.36	-0.000
833.53	-0.000
833.70	-0.000
833.88	-0.000
834.05	-0.000
834.23	-0.000
834.40	-0.000
834.58	-0.000
834.75	-0.000
834.92	-0.000
835.10	-0.000
835.27	-0.000
835.45	-0.000
835.62	-0.000
835.79	-0.000
835.97	-0.000
836.14	-0.000
836.32	-0.000
836.49	-0.000
836.66	-0.000
836.84	-0.000
837.01	-0.000
837.18	-0.000
837.36	-0.000
837.53	-0.000
837.71	-0.000
837.88	-0.000
838.05	-0.000
838.23	-0.000
838.40	-0.000
838.58	-0.000
838.75	-0.000
838.92	-0.000
839.10	-0.000
839.27	-0.000
839.44	-0.000
839.62	-0.000
839.79	-0.000
839.96	-0.000
840.14	-0.000
840.31	-0.000
840.48	-0.000
840.66	-0.000
840.83	-0.000
841.01	-0.000
841.18	-0.000
841.35	-0.000
841.53	-0.000
841.70	-0.000
841.87	-0.000
842.05	-0.000
842.22	-0.000
842.39	-0.000
842.57	-0.000
842.74	-0.000
842.91	-0.000
843.09	-0.000
843.26	-0.000
843.43	-0.000
843.60	-0.000
843.78	-0.000
843.95	-0.000
844.12	-0.000
844.30	-0.000
844.47	-0.000
844.64	-0.000
844.82	-0.000
844.99	-0.000
845.16	-0.000
845.34	-0.000
845.51	-0.000
845.68	-0.000
845.85	-0.000
846.03	-0.000
846.20	-0.000
846.37	-0.000
846.55	-0.000
846.72	-0.000
846.89	-0.000
847.06	-0.000
847.24	-0.000
847.41	-0.000
847.58	-0.000
847.76	-0.000
847.93	-0.000
848.10	-0.000
848.27	-0.000
848.45	-0.000
848.62	-0.000
848.79	-0.000
848.97	-0.000
849.14	-0.000
849.31	-0.000
849.48	-0.000
849.66	-0.000
849.83	-0.000
850.00	-0.000
850.17	-0.000
850.35	-0.000
850.52	-0.000
850.69	-0.000
850.86	-0.000
851.04	-0.000
851.21	-0.000
851.38	-0.000
851.55	-0.000
851.72	-0.000
851.90	-0.000
852.07	-0.000
852.24	-0.000
852.41	-0.000
852.59	-0.000
852.76	-0.000
852.93	-0.000
853.10	-0.000
853.28	-0.000
853.45	-0.000
853.62	-0.000
853.79	-0.000
853.96	-0.000
854.14	-0.000
854.31	-0.000
854.48	-0.000
854.65	-0.000
854.82	-0.000
855.00	-0.000
855.17	-0.000
855.34	-0.000
855.51	-0.000
855.68	-0.000
855.86	-0.000
856.03	-0.000
856.20	-0.000
856.37	-0.000
856.54	-0.000
856.72	-0.000
856.89	-0.000
857.06	-0.000
857.23	-0.000
857.40	-0.000
857.57	-0.000
857.75	-0.000
857.92	-0.000
858.09	-0.000
858.26	-0.000
858.43	-0.000
858.60	-0.000
858.78	-0.000
858.95	-0.000
859.12	-0.000
859.29	-0.000
859.46	-0.000
859.63	-0.000
859.81	-0.000
859.98	-0.000
860.15	-0.000
860.32	-0.000
860.49	-0.000
860.66	-0.000
860.83	-0.000
861.01	-0.000
861.18	-0.000
861.35	-0.000
861.52	-0.000
861.69	-0.000
861.86	-0.000
862.03	-0.000
862.21	-0.000
862.38	-0.000
862.55	-0.000
862.72	-0.000
862.89	-0.000
863.06	-0.000
863.23	-0.000
863.40	-0.000
863.58	-0.000
863.75	-0.000
863.92	-0.000
864.09	-0.000
864.26	-0.000
864.43	-0.000
864.60	-0.000
864.77	-0.000
864.94	-0.000
865.11	-0.000
865.29	-0.000
865.46	-0.000
865.63	-0.000
865.80	-0.000
865.97	-0.000
866.14	-0.000
866.31	-0.000
866.48	-0.000
866.65	-0.000
866.82	-0.000
866.99	-0.000
867.16	-0.000
867.34	-0.000
867.51	-0.000
867.68	-0.000
867.85	-0.000
868.02	-0.000
868.19	-0.000
868.36	-0.000
868.53	-0.000
868.70	-0.000
868.87	-0.000
869.04	-0.000
869.21	-0.000
869.38	-0.000
869.55	-0.000
869.72	-0.000
869.89	-0.000
870.06	-0.000
870.24	-0.000
870.41	-0.000
870.58	-0.000
870.75	-0.000
870.92	-0.000
871.09	-0.000
871.26	-0.000
871.43	-0.000
871.60	-0.000
871.77	-0.000
871.94	-0.000
872.11	-0.000
872.28	-0.000
872.45	-0.000
872.62	-0.000
872.79	-0.000
872.96	-0.000
873.13	-0.000
873.30	-0.000
873.47	-0.000
873.64	-0.000
873.81	-0.000
873.98	-0.000
874.15	-0.000
874.32	-0.000
874.49	-0.000
874.66	-0.000
874.83	-0.000
875.00	-0.000
875.17	-0.000
875.34	-0.000
875.51	-0.000
875.68	-0.000
875.85	-0.000
876.02	-0.000
876.19	-0.000
876.36	-0.000
876.53	-0.000
876.70	-0.000
876.87	-0.000
877.04	-0.000
877.21	-0.000
877.38	-0.000
877.55	-0.000
877.72	-0.000
877.89	-0.000
878.06	-0.000
878.23	-0.000
878.39	-0.000
878.56	-0.000
878.73	-0.000
878.90	-0.000
879.07	-0.000
879.24	-0.000
879.41	-0.000
879.58	-0.000
879.75	-0.000
879.92	-0.000
880.09	-0.000
880.26	-0.000
880.43	-0.000
880.60	-0.000
880.77	-0.000
880.94	-0.000
881.11	-0.000
881.27	-0.000
881.44	-0.000
881.61	-0.000
881.78	-0.000
881.95	-0.000
882.12	-0.000
882.29	-0.000
882.46	-0.000
882.63	-0.000
882.80	-0.000
882.97	-0.000
883.14	-0.000
883.30	-0.000
883.47	-0.000
883.64	-0.000
883.81	-0.000
883.98	-0.000
884.15	-0.000
884.32	-0.000
884.49	-0.000
884.66	-0.000
884.82	-0.000
884.99	-0.000
885.16	-0.000
885.33	-0.000
885.50	-0.000
885.67	-0.000
885.84	-0.000
886.01	-0.000
886.17	-0.000
886.34	-0.000
886.51	-0.000
886.68	-0.000
886.85	-0.000
887.02	-0.000
887.19	-0.000
887.36	-0.000
887.52	-0.000
887.69	-0.000
887.86	-0.000
888.03	-0.000
888.20	-0.000
888.37	-0.000
888.54	-0.000
888.70	-0.000
888.87	-0.000
889.04	-0.000
889.21	-0.000
889.38	-0.000
889.55	-0.000
889.71	-0.000
889.88	-0.000
890.05	-0.000
890.22	-0.000
890.39	-0.000
>>>>>End Processed Spectral Data<<<<<
