SpectraSuite Data File
++++++++++++++++++++++++++++++++++++
Date: Fri Jun 19 15:38:53 CEST 2015
User: introlabs
Dark Spectrum Present: Yes
Reference Spectrum Present: Yes
Number of Sampled Component Spectra: 1
Spectrometers: USB4H08886
Integration Time (usec): 745692 (USB4H08886)
Spectra Averaged: 5 (USB4H08886)
Boxcar Smoothing: 5 (USB4H08886)
Correct for Electrical Dark: Yes (USB4H08886)
Strobe/Lamp Enabled: No (USB4H08886)
Correct for Detector Non-linearity: Yes (USB4H08886)
Correct for Stray Light: Yes (USB4H08886)
Number of Pixels in Processed Spectrum: 3648
>>>>>Begin Processed Spectral Data<<<<<
178.14	-0.000
178.36	-0.000
178.57	-0.000
178.79	-0.000
179.01	-0.000
179.22	-0.000
179.44	-0.000
179.65	-0.000
179.87	-0.000
180.08	-0.000
180.30	-0.000
180.52	-0.000
180.73	-0.000
180.95	-0.000
181.16	-0.000
181.38	-0.000
181.59	-0.000
181.81	-0.000
182.03	-0.000
182.24	-0.000
182.46	-0.000
182.67	-0.000
182.89	-0.000
183.10	-0.000
183.32	-0.000
183.54	-0.000
183.75	-0.000
183.97	-0.000
184.18	-0.000
184.40	-0.000
184.61	-0.000
184.83	-0.000
185.04	-0.000
185.26	-0.000
185.48	-0.000
185.69	-0.000
185.91	-0.000
186.12	-0.000
186.34	-0.000
186.55	-0.000
186.77	-0.000
186.98	-0.000
187.20	-0.000
187.42	-0.000
187.63	-0.000
187.85	-0.000
188.06	-0.000
188.28	-0.000
188.49	-0.000
188.71	-0.000
188.92	-0.000
189.14	-0.000
189.36	-0.000
189.57	-0.000
189.79	-0.000
190.00	-0.000
190.22	-0.000
190.43	-0.000
190.65	-0.000
190.86	-0.000
191.08	-0.000
191.29	-0.000
191.51	-0.000
191.72	-0.000
191.94	-0.000
192.16	-0.000
192.37	-0.000
192.59	-0.000
192.80	-0.000
193.02	-0.000
193.23	-0.000
193.45	-0.000
193.66	-0.000
193.88	-0.000
194.09	-0.000
194.31	-0.000
194.52	-0.000
194.74	-0.000
194.95	-0.000
195.17	-0.000
195.38	-0.000
195.60	-0.000
195.81	-0.000
196.03	-0.000
196.25	-0.000
196.46	-0.000
196.68	-0.000
196.89	-0.000
197.11	-0.000
197.32	-0.000
197.54	-0.000
197.75	-0.000
197.97	-0.000
198.18	-0.000
198.40	-0.000
198.61	-0.000
198.83	-0.000
199.04	-0.000
199.26	-0.000
199.47	-0.000
199.69	-0.000
199.90	-0.000
200.12	-0.000
200.33	-0.000
200.55	-0.000
200.76	-0.000
200.98	-0.000
201.19	-0.000
201.41	-0.000
201.62	-0.000
201.84	-0.000
202.05	-0.000
202.27	-0.000
202.48	-0.000
202.70	-0.000
202.91	-0.000
203.13	-0.000
203.34	-0.000
203.56	-0.000
203.77	-0.000
203.99	-0.000
204.20	-0.000
204.42	-0.000
204.63	-0.000
204.85	-0.000
205.06	-0.000
205.28	-0.000
205.49	-0.000
205.71	-0.000
205.92	-0.000
206.14	-0.000
206.35	-0.000
206.56	-0.000
206.78	-0.000
206.99	-0.000
207.21	-0.000
207.42	-0.000
207.64	-0.000
207.85	-0.000
208.07	-0.000
208.28	-0.000
208.50	-0.000
208.71	-0.000
208.93	-0.000
209.14	-0.000
209.36	-0.000
209.57	-0.000
209.79	-0.000
210.00	-0.000
210.22	-0.000
210.43	-0.000
210.64	-0.000
210.86	-0.000
211.07	-0.000
211.29	-0.000
211.50	-0.000
211.72	-0.000
211.93	-0.000
212.15	-0.000
212.36	-0.000
212.58	-0.000
212.79	-0.000
213.01	-0.000
213.22	-0.000
213.43	-0.000
213.65	-0.000
213.86	-0.000
214.08	-0.000
214.29	-0.000
214.51	-0.000
214.72	-0.000
214.94	-0.000
215.15	-0.000
215.36	-0.000
215.58	-0.000
215.79	-0.000
216.01	-0.000
216.22	-0.000
216.44	-0.000
216.65	-0.000
216.87	-0.000
217.08	-0.000
217.29	-0.000
217.51	-0.000
217.72	-0.000
217.94	-0.000
218.15	-0.000
218.37	-0.000
218.58	-0.000
218.80	-0.000
219.01	-0.000
219.22	-0.000
219.44	-0.000
219.65	-0.000
219.87	-0.000
220.08	-0.000
220.30	-0.000
220.51	-0.000
220.72	-0.000
220.94	-0.000
221.15	-0.000
221.37	-0.000
221.58	-0.000
221.79	-0.000
222.01	-0.000
222.22	-0.000
222.44	-0.000
222.65	-0.000
222.87	-0.000
223.08	-0.000
223.29	-0.000
223.51	-0.000
223.72	-0.000
223.94	-0.000
224.15	-0.000
224.36	-0.000
224.58	-0.000
224.79	-0.000
225.01	-0.000
225.22	-0.000
225.44	-0.000
225.65	-0.000
225.86	-0.000
226.08	-0.000
226.29	-0.000
226.51	-0.000
226.72	-0.000
226.93	-0.000
227.15	-0.000
227.36	-0.000
227.58	-0.000
227.79	-0.000
228.00	-0.000
228.22	-0.000
228.43	-0.000
228.65	-0.000
228.86	-0.000
229.07	-0.000
229.29	-0.000
229.50	-0.000
229.72	-0.000
229.93	-0.000
230.14	-0.000
230.36	-0.000
230.57	-0.000
230.78	-0.000
231.00	-0.000
231.21	-0.000
231.43	-0.000
231.64	-0.000
231.85	-0.000
232.07	-0.000
232.28	-0.000
232.50	-0.000
232.71	-0.000
232.92	-0.000
233.14	-0.000
233.35	-0.000
233.56	-0.000
233.78	-0.000
233.99	-0.000
234.21	-0.000
234.42	-0.000
234.63	-0.000
234.85	-0.000
235.06	-0.000
235.27	-0.000
235.49	-0.000
235.70	-0.000
235.91	-0.000
236.13	-0.000
236.34	-0.000
236.56	-0.000
236.77	-0.000
236.98	-0.000
237.20	-0.000
237.41	-0.000
237.62	-0.000
237.84	-0.000
238.05	-0.000
238.26	-0.000
238.48	-0.000
238.69	-0.000
238.91	-0.000
239.12	-0.000
239.33	-0.000
239.55	-0.000
239.76	-0.000
239.97	-0.000
240.19	-0.000
240.40	-0.000
240.61	-0.000
240.83	-0.000
241.04	-0.000
241.25	-0.000
241.47	-0.000
241.68	-0.000
241.89	-0.000
242.11	-0.000
242.32	-0.000
242.53	-0.000
242.75	-0.000
242.96	-0.000
243.17	-0.000
243.39	-0.000
243.60	-0.000
243.81	-0.000
244.03	-0.000
244.24	-0.000
244.45	-0.000
244.67	-0.000
244.88	-0.000
245.09	-0.000
245.31	-0.000
245.52	-0.000
245.73	-0.000
245.95	-0.000
246.16	-0.000
246.37	-0.000
246.59	-0.000
246.80	-0.000
247.01	-0.000
247.23	-0.000
247.44	-0.000
247.65	-0.000
247.87	-0.000
248.08	-0.000
248.29	-0.000
248.51	-0.000
248.72	-0.000
248.93	-0.000
249.15	-0.000
249.36	-0.000
249.57	-0.000
249.78	-0.000
250.00	-0.000
250.21	-0.000
250.42	-0.000
250.64	-0.000
250.85	-0.000
251.06	-0.000
251.28	-0.000
251.49	-0.000
251.70	-0.000
251.92	-0.000
252.13	-0.000
252.34	-0.000
252.55	-0.000
252.77	-0.000
252.98	-0.000
253.19	-0.000
253.41	-0.000
253.62	-0.000
253.83	-0.000
254.05	-0.000
254.26	-0.000
254.47	-0.000
254.68	-0.000
254.90	-0.000
255.11	-0.000
255.32	-0.000
255.54	-0.000
255.75	-0.000
255.96	-0.000
256.17	-0.000
256.39	-0.000
256.60	-0.000
256.81	-0.000
257.03	-0.000
257.24	-0.000
257.45	-0.000
257.66	-0.000
257.88	-0.000
258.09	-0.000
258.30	-0.000
258.51	-0.000
258.73	-0.000
258.94	-0.000
259.15	-0.000
259.37	-0.000
259.58	-0.000
259.79	-0.000
260.00	-0.000
260.22	-0.000
260.43	-0.000
260.64	-0.000
260.85	-0.000
261.07	-0.000
261.28	-0.000
261.49	-0.000
261.71	-0.000
261.92	-0.000
262.13	-0.000
262.34	-0.000
262.56	-0.000
262.77	-0.000
262.98	-0.000
263.19	-0.000
263.41	-0.000
263.62	-0.000
263.83	-0.000
264.04	-0.000
264.26	-0.000
264.47	-0.000
264.68	-0.000
264.89	-0.000
265.11	-0.000
265.32	-0.000
265.53	-0.000
265.74	-0.000
265.96	-0.000
266.17	-0.000
266.38	-0.000
266.59	-0.000
266.81	-0.000
267.02	-0.000
267.23	-0.000
267.44	-0.000
267.65	-0.000
267.87	-0.000
268.08	-0.000
268.29	-0.000
268.50	-0.000
268.72	-0.000
268.93	-0.000
269.14	-0.000
269.35	-0.000
269.57	-0.000
269.78	-0.000
269.99	-0.000
270.20	-0.000
270.41	-0.000
270.63	-0.000
270.84	-0.000
271.05	-0.000
271.26	-0.000
271.48	-0.000
271.69	-0.000
271.90	-0.000
272.11	-0.000
272.32	-0.000
272.54	-0.000
272.75	-0.000
272.96	-0.000
273.17	-0.000
273.39	-0.000
273.60	-0.000
273.81	-0.000
274.02	-0.000
274.23	-0.000
274.45	-0.000
274.66	-0.000
274.87	-0.000
275.08	-0.000
275.29	-0.000
275.51	-0.000
275.72	-0.000
275.93	-0.000
276.14	-0.000
276.35	-0.000
276.57	-0.000
276.78	-0.000
276.99	-0.000
277.20	-0.000
277.41	-0.000
277.63	-0.000
277.84	-0.000
278.05	-0.000
278.26	-0.000
278.47	-0.000
278.69	-0.000
278.90	-0.000
279.11	-0.000
279.32	-0.000
279.53	-0.000
279.74	-0.000
279.96	-0.000
280.17	-0.000
280.38	-0.000
280.59	-0.000
280.80	-0.000
281.02	-0.000
281.23	-0.000
281.44	-0.000
281.65	-0.000
281.86	-0.000
282.07	-0.000
282.29	-0.000
282.50	-0.000
282.71	-0.000
282.92	-0.000
283.13	-0.000
283.35	-0.000
283.56	-0.000
283.77	-0.000
283.98	-0.000
284.19	-0.000
284.40	-0.000
284.62	-0.000
284.83	-0.000
285.04	-0.000
285.25	-0.000
285.46	-0.000
285.67	-0.000
285.88	-0.000
286.10	-0.000
286.31	-0.000
286.52	-0.000
286.73	-0.000
286.94	-0.000
287.15	-0.000
287.37	-0.000
287.58	-0.000
287.79	-0.000
288.00	-0.000
288.21	-0.000
288.42	-0.000
288.63	-0.000
288.85	-0.000
289.06	-0.000
289.27	-0.000
289.48	-0.000
289.69	-0.000
289.90	-0.000
290.11	-0.000
290.33	-0.000
290.54	-0.000
290.75	-0.000
290.96	-0.000
291.17	-0.000
291.38	-0.000
291.59	-0.000
291.81	-0.000
292.02	-0.000
292.23	-0.000
292.44	-0.000
292.65	-0.000
292.86	-0.000
293.07	-0.000
293.28	3.292
293.50	-0.000
293.71	-0.000
293.92	-0.000
294.13	-0.000
294.34	-0.000
294.55	-0.000
294.76	-0.000
294.97	-0.000
295.19	-0.000
295.40	-0.000
295.61	-0.000
295.82	-0.000
296.03	2.820
296.24	3.241
296.45	1.985
296.66	1.720
296.87	1.740
297.09	1.789
297.30	1.973
297.51	1.665
297.72	1.650
297.93	1.718
298.14	1.686
298.35	1.646
298.56	1.618
298.77	1.712
298.99	1.687
299.20	1.665
299.41	1.650
299.62	1.605
299.83	1.596
300.04	1.544
300.25	1.540
300.46	1.569
300.67	1.553
300.88	1.514
301.10	1.522
301.31	1.587
301.52	1.528
301.73	1.481
301.94	1.484
302.15	1.495
302.36	1.455
302.57	1.398
302.78	1.405
302.99	1.436
303.20	1.452
303.41	1.368
303.63	1.351
303.84	1.357
304.05	1.351
304.26	1.300
304.47	1.302
304.68	1.305
304.89	1.297
305.10	1.264
305.31	1.252
305.52	1.292
305.73	1.290
305.94	1.253
306.15	1.244
306.37	1.265
306.58	1.270
306.79	1.246
307.00	1.267
307.21	1.306
307.42	1.299
307.63	1.268
307.84	1.239
308.05	1.271
308.26	1.276
308.47	1.258
308.68	1.251
308.89	1.251
309.10	1.249
309.31	1.210
309.52	1.201
309.73	1.211
309.95	1.208
310.16	1.181
310.37	1.169
310.58	1.181
310.79	1.181
311.00	1.182
311.21	1.183
311.42	1.182
311.63	1.179
311.84	1.162
312.05	1.162
312.26	1.182
312.47	1.193
312.68	1.171
312.89	1.156
313.10	1.161
313.31	1.133
313.52	1.139
313.73	1.139
313.94	1.141
314.15	1.125
314.36	1.106
314.57	1.100
314.78	1.088
314.99	1.083
315.21	1.072
315.42	1.077
315.63	1.089
315.84	1.066
316.05	1.054
316.26	1.060
316.47	1.075
316.68	1.073
316.89	1.054
317.10	1.070
317.31	1.074
317.52	1.078
317.73	1.058
317.94	1.058
318.15	1.097
318.36	1.097
318.57	1.081
318.78	1.071
318.99	1.102
319.20	1.099
319.41	1.069
319.62	1.073
319.83	1.083
320.04	1.079
320.25	1.068
320.46	1.035
320.67	1.037
320.88	1.034
321.09	1.021
321.30	1.007
321.51	1.024
321.72	1.022
321.93	1.006
322.14	0.997
322.35	1.021
322.56	1.024
322.77	1.012
322.98	1.022
323.19	1.028
323.40	1.035
323.61	1.016
323.82	1.008
324.03	1.013
324.24	1.012
324.45	1.000
324.66	0.983
324.87	0.977
325.08	0.978
325.29	0.961
325.50	0.955
325.71	0.960
325.92	0.967
326.13	0.954
326.34	0.956
326.55	0.962
326.76	0.962
326.97	0.951
327.18	0.947
327.39	0.970
327.60	0.971
327.80	0.970
328.01	0.967
328.22	0.967
328.43	0.971
328.64	0.959
328.85	0.964
329.06	0.965
329.27	0.965
329.48	0.961
329.69	0.942
329.90	0.952
330.11	0.945
330.32	0.941
330.53	0.934
330.74	0.933
330.95	0.932
331.16	0.918
331.37	0.926
331.58	0.926
331.79	0.927
332.00	0.919
332.21	0.912
332.42	0.916
332.63	0.907
332.83	0.904
333.04	0.906
333.25	0.918
333.46	0.918
333.67	0.905
333.88	0.907
334.09	0.915
334.30	0.913
334.51	0.905
334.72	0.901
334.93	0.904
335.14	0.902
335.35	0.895
335.56	0.890
335.77	0.898
335.98	0.897
336.18	0.891
336.39	0.883
336.60	0.887
336.81	0.885
337.02	0.884
337.23	0.889
337.44	0.891
337.65	0.892
337.86	0.882
338.07	0.876
338.28	0.879
338.49	0.877
338.70	0.871
338.91	0.877
339.11	0.883
339.32	0.881
339.53	0.869
339.74	0.867
339.95	0.863
340.16	0.862
340.37	0.857
340.58	0.855
340.79	0.857
341.00	0.857
341.21	0.847
341.41	0.847
341.62	0.847
341.83	0.848
342.04	0.844
342.25	0.854
342.46	0.858
342.67	0.856
342.88	0.850
343.09	0.850
343.30	0.857
343.50	0.860
343.71	0.851
343.92	0.849
344.13	0.853
344.34	0.852
344.55	0.837
344.76	0.835
344.97	0.840
345.18	0.840
345.38	0.837
345.59	0.832
345.80	0.831
346.01	0.829
346.22	0.826
346.43	0.820
346.64	0.828
346.85	0.827
347.06	0.821
347.26	0.820
347.47	0.823
347.68	0.819
347.89	0.815
348.10	0.810
348.31	0.815
348.52	0.814
348.73	0.812
348.93	0.809
349.14	0.812
349.35	0.810
349.56	0.804
349.77	0.799
349.98	0.804
350.19	0.802
350.39	0.798
350.60	0.794
350.81	0.808
351.02	0.807
351.23	0.803
351.44	0.805
351.65	0.808
351.86	0.806
352.06	0.805
352.27	0.805
352.48	0.806
352.69	0.806
352.90	0.801
353.11	0.789
353.31	0.795
353.52	0.792
353.73	0.785
353.94	0.787
354.15	0.791
354.36	0.790
354.57	0.781
354.77	0.783
354.98	0.783
355.19	0.781
355.40	0.781
355.61	0.786
355.82	0.790
356.02	0.789
356.23	0.782
356.44	0.785
356.65	0.788
356.86	0.789
357.07	0.784
357.27	0.787
357.48	0.789
357.69	0.785
357.90	0.771
358.11	0.767
358.32	0.770
358.52	0.773
358.73	0.763
358.94	0.765
359.15	0.770
359.36	0.770
359.56	0.766
359.77	0.763
359.98	0.769
360.19	0.769
360.40	0.767
360.61	0.768
360.81	0.766
361.02	0.767
361.23	0.759
361.44	0.757
361.65	0.758
361.85	0.757
362.06	0.755
362.27	0.757
362.48	0.757
362.69	0.759
362.89	0.752
363.10	0.754
363.31	0.758
363.52	0.761
363.73	0.757
363.93	0.757
364.14	0.759
364.35	0.760
364.56	0.751
364.77	0.752
364.97	0.754
365.18	0.756
365.39	0.751
365.60	0.747
365.81	0.749
366.01	0.748
366.22	0.744
366.43	0.743
366.64	0.745
366.84	0.751
367.05	0.748
367.26	0.747
367.47	0.748
367.68	0.747
367.88	0.744
368.09	0.741
368.30	0.744
368.51	0.744
368.71	0.743
368.92	0.748
369.13	0.745
369.34	0.745
369.55	0.745
369.75	0.745
369.96	0.751
370.17	0.751
370.38	0.749
370.58	0.748
370.79	0.753
371.00	0.751
371.21	0.743
371.41	0.748
371.62	0.751
371.83	0.746
372.04	0.744
372.24	0.739
372.45	0.740
372.66	0.740
372.87	0.738
373.07	0.735
373.28	0.735
373.49	0.738
373.70	0.729
373.90	0.728
374.11	0.738
374.32	0.737
374.53	0.737
374.73	0.737
374.94	0.739
375.15	0.738
375.36	0.736
375.56	0.745
375.77	0.746
375.98	0.746
376.19	0.743
376.39	0.737
376.60	0.740
376.81	0.739
377.02	0.737
377.22	0.737
377.43	0.737
377.64	0.737
377.84	0.728
378.05	0.733
378.26	0.738
378.47	0.738
378.67	0.735
378.88	0.732
379.09	0.733
379.30	0.733
379.50	0.731
379.71	0.733
379.92	0.736
380.12	0.735
380.33	0.727
380.54	0.724
380.75	0.730
380.95	0.730
381.16	0.729
381.37	0.729
381.57	0.731
381.78	0.731
381.99	0.732
382.20	0.731
382.40	0.734
382.61	0.734
382.82	0.732
383.02	0.726
383.23	0.729
383.44	0.728
383.64	0.727
383.85	0.729
384.06	0.732
384.27	0.729
384.47	0.728
384.68	0.729
384.89	0.735
385.09	0.735
385.30	0.734
385.51	0.733
385.71	0.736
385.92	0.737
386.13	0.736
386.33	0.738
386.54	0.739
386.75	0.738
386.95	0.734
387.16	0.729
387.37	0.731
387.58	0.730
387.78	0.729
387.99	0.727
388.20	0.728
388.40	0.725
388.61	0.721
388.82	0.724
389.02	0.726
389.23	0.727
389.44	0.726
389.64	0.726
389.85	0.737
390.06	0.737
390.26	0.738
390.47	0.738
390.68	0.741
390.88	0.739
391.09	0.735
391.30	0.735
391.50	0.734
391.71	0.734
391.92	0.731
392.12	0.723
392.33	0.723
392.53	0.722
392.74	0.722
392.95	0.722
393.15	0.724
393.36	0.726
393.57	0.725
393.77	0.728
393.98	0.730
394.19	0.731
394.39	0.730
394.60	0.732
394.81	0.734
395.01	0.732
395.22	0.730
395.43	0.730
395.63	0.734
395.84	0.735
396.04	0.731
396.25	0.732
396.46	0.734
396.66	0.733
396.87	0.731
397.08	0.728
397.28	0.731
397.49	0.732
397.69	0.729
397.90	0.725
398.11	0.726
398.31	0.727
398.52	0.724
398.73	0.725
398.93	0.724
399.14	0.723
399.34	0.722
399.55	0.723
399.76	0.723
399.96	0.725
400.17	0.724
400.37	0.722
400.58	0.728
400.79	0.730
400.99	0.728
401.20	0.733
401.41	0.735
401.61	0.735
401.82	0.741
402.02	0.741
402.23	0.741
402.44	0.741
402.64	0.741
402.85	0.736
403.05	0.735
403.26	0.734
403.47	0.729
403.67	0.728
403.88	0.729
404.08	0.723
404.29	0.722
404.50	0.721
404.70	0.721
404.91	0.721
405.11	0.718
405.32	0.718
405.52	0.718
405.73	0.718
405.94	0.716
406.14	0.719
406.35	0.721
406.55	0.721
406.76	0.719
406.97	0.720
407.17	0.722
407.38	0.722
407.58	0.720
407.79	0.723
407.99	0.725
408.20	0.726
408.41	0.722
408.61	0.720
408.82	0.720
409.02	0.721
409.23	0.719
409.43	0.718
409.64	0.719
409.84	0.719
410.05	0.715
410.26	0.714
410.46	0.713
410.67	0.713
410.87	0.714
411.08	0.716
411.28	0.717
411.49	0.719
411.69	0.717
411.90	0.719
412.11	0.720
412.31	0.721
412.52	0.720
412.72	0.721
412.93	0.721
413.13	0.720
413.34	0.716
413.54	0.718
413.75	0.720
413.95	0.720
414.16	0.717
414.37	0.719
414.57	0.719
414.78	0.722
414.98	0.720
415.19	0.722
415.39	0.718
415.60	0.720
415.80	0.719
416.01	0.716
416.21	0.718
416.42	0.718
416.62	0.714
416.83	0.714
417.03	0.714
417.24	0.714
417.44	0.711
417.65	0.710
417.86	0.711
418.06	0.709
418.27	0.708
418.47	0.709
418.68	0.709
418.88	0.709
419.09	0.708
419.29	0.708
419.50	0.709
419.70	0.709
419.91	0.707
420.11	0.705
420.32	0.707
420.52	0.707
420.73	0.706
420.93	0.708
421.14	0.710
421.34	0.708
421.55	0.705
421.75	0.705
421.96	0.706
422.16	0.706
422.37	0.705
422.57	0.702
422.78	0.703
422.98	0.700
423.19	0.697
423.39	0.695
423.60	0.699
423.80	0.700
424.01	0.699
424.21	0.701
424.42	0.702
424.62	0.702
424.83	0.701
425.03	0.701
425.23	0.703
425.44	0.703
425.64	0.703
425.85	0.702
426.05	0.702
426.26	0.703
426.46	0.699
426.67	0.698
426.87	0.703
427.08	0.703
427.28	0.701
427.49	0.703
427.69	0.704
427.90	0.703
428.10	0.700
428.31	0.700
428.51	0.701
428.71	0.701
428.92	0.702
429.12	0.699
429.33	0.700
429.53	0.704
429.74	0.708
429.94	0.708
430.15	0.706
430.35	0.706
430.56	0.703
430.76	0.702
430.96	0.703
431.17	0.700
431.37	0.697
431.58	0.696
431.78	0.692
431.99	0.685
432.19	0.687
432.40	0.689
432.60	0.689
432.80	0.692
433.01	0.691
433.21	0.691
433.42	0.693
433.62	0.694
433.83	0.693
434.03	0.695
434.23	0.697
434.44	0.696
434.64	0.693
434.85	0.698
435.05	0.699
435.26	0.699
435.46	0.698
435.66	0.697
435.87	0.698
436.07	0.698
436.28	0.694
436.48	0.692
436.69	0.691
436.89	0.691
437.09	0.685
437.30	0.684
437.50	0.684
437.71	0.696
437.91	0.695
438.11	0.695
438.32	0.699
438.52	0.699
438.73	0.699
438.93	0.697
439.13	0.696
439.34	0.699
439.54	0.697
439.75	0.697
439.95	0.687
440.15	0.692
440.36	0.691
440.56	0.688
440.77	0.689
440.97	0.689
441.17	0.688
441.38	0.689
441.58	0.687
441.79	0.686
441.99	0.685
442.19	0.683
442.40	0.680
442.60	0.680
442.81	0.678
443.01	0.678
443.21	0.678
443.42	0.678
443.62	0.676
443.82	0.676
444.03	0.677
444.23	0.677
444.44	0.677
444.64	0.676
444.84	0.677
445.05	0.677
445.25	0.675
445.45	0.675
445.66	0.677
445.86	0.677
446.06	0.679
446.27	0.677
446.47	0.680
446.68	0.678
446.88	0.677
447.08	0.676
447.29	0.678
447.49	0.678
447.69	0.678
447.90	0.677
448.10	0.680
448.30	0.677
448.51	0.679
448.71	0.676
448.91	0.678
449.12	0.677
449.32	0.679
449.52	0.677
449.73	0.681
449.93	0.679
450.14	0.680
450.34	0.679
450.54	0.681
450.75	0.678
450.95	0.677
451.15	0.676
451.36	0.679
451.56	0.675
451.76	0.675
451.97	0.671
452.17	0.672
452.37	0.671
452.58	0.667
452.78	0.667
452.98	0.669
453.19	0.669
453.39	0.670
453.59	0.668
453.79	0.669
454.00	0.668
454.20	0.667
454.40	0.668
454.61	0.670
454.81	0.671
455.01	0.669
455.22	0.669
455.42	0.671
455.62	0.669
455.83	0.669
456.03	0.672
456.23	0.673
456.44	0.675
456.64	0.673
456.84	0.673
457.04	0.674
457.25	0.673
457.45	0.671
457.65	0.669
457.86	0.670
458.06	0.669
458.26	0.664
458.47	0.664
458.67	0.664
458.87	0.664
459.07	0.662
459.28	0.664
459.48	0.666
459.68	0.665
459.89	0.665
460.09	0.663
460.29	0.664
460.49	0.665
460.70	0.664
460.90	0.664
461.10	0.665
461.31	0.664
461.51	0.662
461.71	0.663
461.91	0.664
462.12	0.665
462.32	0.663
462.52	0.663
462.72	0.667
462.93	0.667
463.13	0.665
463.33	0.667
463.53	0.669
463.74	0.668
463.94	0.664
464.14	0.664
464.35	0.666
464.55	0.666
464.75	0.665
464.95	0.663
465.16	0.664
465.36	0.663
465.56	0.662
465.76	0.661
465.97	0.661
466.17	0.661
466.37	0.659
466.57	0.660
466.78	0.660
466.98	0.660
467.18	0.659
467.38	0.657
467.59	0.659
467.79	0.660
467.99	0.659
468.19	0.660
468.39	0.663
468.60	0.663
468.80	0.661
469.00	0.662
469.20	0.663
469.41	0.663
469.61	0.663
469.81	0.663
470.01	0.663
470.22	0.663
470.42	0.662
470.62	0.659
470.82	0.661
471.02	0.660
471.23	0.659
471.43	0.659
471.63	0.661
471.83	0.660
472.04	0.659
472.24	0.658
472.44	0.664
472.64	0.664
472.84	0.662
473.05	0.662
473.25	0.665
473.45	0.664
473.65	0.662
473.85	0.662
474.06	0.664
474.26	0.664
474.46	0.665
474.66	0.661
474.86	0.661
475.07	0.662
475.27	0.660
475.47	0.657
475.67	0.657
475.87	0.659
476.08	0.655
476.28	0.656
476.48	0.657
476.68	0.655
476.88	0.653
477.09	0.654
477.29	0.655
477.49	0.656
477.69	0.655
477.89	0.656
478.09	0.655
478.30	0.658
478.50	0.655
478.70	0.654
478.90	0.654
479.10	0.658
479.31	0.659
479.51	0.657
479.71	0.658
479.91	0.657
480.11	0.656
480.31	0.656
480.52	0.654
480.72	0.654
480.92	0.653
481.12	0.652
481.32	0.649
481.52	0.647
481.72	0.647
481.93	0.650
482.13	0.651
482.33	0.651
482.53	0.649
482.73	0.650
482.93	0.651
483.14	0.651
483.34	0.651
483.54	0.652
483.74	0.652
483.94	0.651
484.14	0.647
484.34	0.647
484.55	0.647
484.75	0.648
484.95	0.646
485.15	0.646
485.35	0.645
485.55	0.644
485.75	0.642
485.96	0.643
486.16	0.644
486.36	0.643
486.56	0.641
486.76	0.642
486.96	0.641
487.16	0.640
487.36	0.639
487.57	0.639
487.77	0.640
487.97	0.640
488.17	0.638
488.37	0.637
488.57	0.637
488.77	0.637
488.97	0.636
489.18	0.636
489.38	0.638
489.58	0.638
489.78	0.638
489.98	0.637
490.18	0.638
490.38	0.638
490.58	0.637
490.78	0.638
490.98	0.639
491.19	0.640
491.39	0.639
491.59	0.638
491.79	0.641
491.99	0.641
492.19	0.641
492.39	0.644
492.59	0.643
492.79	0.645
492.99	0.646
493.20	0.646
493.40	0.646
493.60	0.648
493.80	0.646
494.00	0.644
494.20	0.645
494.40	0.644
494.60	0.642
494.80	0.646
495.00	0.645
495.20	0.643
495.40	0.642
495.61	0.643
495.81	0.642
496.01	0.646
496.21	0.647
496.41	0.647
496.61	0.647
496.81	0.646
497.01	0.641
497.21	0.640
497.41	0.641
497.61	0.640
497.81	0.638
498.01	0.639
498.21	0.637
498.41	0.635
498.61	0.635
498.82	0.636
499.02	0.638
499.22	0.639
499.42	0.639
499.62	0.640
499.82	0.641
500.02	0.642
500.22	0.640
500.42	0.642
500.62	0.642
500.82	0.643
501.02	0.640
501.22	0.640
501.42	0.640
501.62	0.642
501.82	0.642
502.02	0.642
502.22	0.641
502.42	0.643
502.62	0.641
502.82	0.641
503.02	0.641
503.22	0.641
503.42	0.640
503.63	0.640
503.83	0.638
504.03	0.636
504.23	0.636
504.43	0.636
504.63	0.636
504.83	0.636
505.03	0.635
505.23	0.636
505.43	0.637
505.63	0.638
505.83	0.638
506.03	0.640
506.23	0.641
506.43	0.642
506.63	0.641
506.83	0.640
507.03	0.641
507.23	0.642
507.43	0.640
507.63	0.641
507.83	0.641
508.03	0.640
508.23	0.640
508.43	0.638
508.63	0.639
508.83	0.640
509.03	0.641
509.23	0.641
509.43	0.642
509.63	0.641
509.83	0.640
510.03	0.642
510.23	0.644
510.43	0.644
510.63	0.645
510.83	0.644
511.03	0.646
511.23	0.643
511.43	0.643
511.63	0.645
511.83	0.647
512.03	0.647
512.22	0.644
512.42	0.644
512.62	0.645
512.82	0.645
513.02	0.644
513.22	0.644
513.42	0.646
513.62	0.648
513.82	0.647
514.02	0.646
514.22	0.647
514.42	0.648
514.62	0.648
514.82	0.648
515.02	0.650
515.22	0.653
515.42	0.652
515.62	0.654
515.82	0.653
516.02	0.654
516.22	0.655
516.42	0.656
516.62	0.658
516.82	0.659
517.01	0.657
517.21	0.656
517.41	0.660
517.61	0.660
517.81	0.657
518.01	0.656
518.21	0.655
518.41	0.654
518.61	0.653
518.81	0.653
519.01	0.653
519.21	0.653
519.41	0.652
519.61	0.647
519.81	0.649
520.00	0.650
520.20	0.651
520.40	0.654
520.60	0.654
520.80	0.654
521.00	0.654
521.20	0.655
521.40	0.659
521.60	0.660
521.80	0.659
522.00	0.658
522.20	0.661
522.39	0.660
522.59	0.657
522.79	0.660
522.99	0.662
523.19	0.660
523.39	0.658
523.59	0.656
523.79	0.658
523.99	0.661
524.19	0.660
524.38	0.659
524.58	0.660
524.78	0.660
524.98	0.659
525.18	0.660
525.38	0.661
525.58	0.662
525.78	0.660
525.98	0.659
526.18	0.659
526.37	0.657
526.57	0.659
526.77	0.659
526.97	0.660
527.17	0.659
527.37	0.656
527.57	0.658
527.77	0.659
527.96	0.659
528.16	0.659
528.36	0.660
528.56	0.662
528.76	0.660
528.96	0.659
529.16	0.661
529.36	0.663
529.55	0.663
529.75	0.660
529.95	0.660
530.15	0.661
530.35	0.663
530.55	0.661
530.75	0.661
530.94	0.662
531.14	0.662
531.34	0.660
531.54	0.659
531.74	0.662
531.94	0.665
532.13	0.664
532.33	0.666
532.53	0.664
532.73	0.664
532.93	0.663
533.13	0.664
533.33	0.664
533.52	0.665
533.72	0.668
533.92	0.667
534.12	0.664
534.32	0.665
534.52	0.663
534.71	0.664
534.91	0.668
535.11	0.669
535.31	0.667
535.51	0.669
535.71	0.670
535.90	0.668
536.10	0.669
536.30	0.670
536.50	0.670
536.70	0.671
536.89	0.669
537.09	0.668
537.29	0.669
537.49	0.670
537.69	0.668
537.89	0.668
538.08	0.668
538.28	0.666
538.48	0.666
538.68	0.668
538.88	0.669
539.07	0.669
539.27	0.667
539.47	0.666
539.67	0.666
539.87	0.667
540.06	0.665
540.26	0.665
540.46	0.667
540.66	0.665
540.86	0.663
541.05	0.663
541.25	0.664
541.45	0.665
541.65	0.663
541.84	0.666
542.04	0.666
542.24	0.668
542.44	0.667
542.64	0.668
542.83	0.670
543.03	0.671
543.23	0.669
543.43	0.670
543.62	0.671
543.82	0.672
544.02	0.670
544.22	0.670
544.42	0.673
544.61	0.674
544.81	0.671
545.01	0.670
545.21	0.672
545.40	0.672
545.60	0.670
545.80	0.673
546.00	0.674
546.19	0.673
546.39	0.672
546.59	0.670
546.79	0.671
546.98	0.672
547.18	0.671
547.38	0.671
547.58	0.673
547.77	0.673
547.97	0.670
548.17	0.672
548.37	0.672
548.56	0.672
548.76	0.672
548.96	0.673
549.16	0.676
549.35	0.676
549.55	0.674
549.75	0.674
549.95	0.678
550.14	0.677
550.34	0.675
550.54	0.681
550.73	0.684
550.93	0.684
551.13	0.682
551.33	0.681
551.52	0.681
551.72	0.681
551.92	0.680
552.12	0.681
552.31	0.681
552.51	0.682
552.71	0.677
552.90	0.677
553.10	0.678
553.30	0.677
553.50	0.676
553.69	0.677
553.89	0.678
554.09	0.678
554.28	0.676
554.48	0.677
554.68	0.679
554.87	0.679
555.07	0.675
555.27	0.676
555.47	0.677
555.66	0.678
555.86	0.677
556.06	0.678
556.25	0.679
556.45	0.687
556.65	0.685
556.84	0.688
557.04	0.691
557.24	0.692
557.43	0.691
557.63	0.694
557.83	0.697
558.02	0.697
558.22	0.701
558.42	0.701
558.61	0.694
558.81	0.695
559.01	0.691
559.21	0.691
559.40	0.692
559.60	0.693
559.80	0.690
559.99	0.690
560.19	0.692
560.39	0.686
560.58	0.684
560.78	0.685
560.97	0.688
561.17	0.687
561.37	0.685
561.56	0.686
561.76	0.687
561.96	0.686
562.15	0.684
562.35	0.686
562.55	0.687
562.74	0.686
562.94	0.684
563.14	0.682
563.33	0.683
563.53	0.682
563.73	0.679
563.92	0.681
564.12	0.683
564.31	0.685
564.51	0.683
564.71	0.686
564.90	0.688
565.10	0.689
565.30	0.692
565.49	0.693
565.69	0.696
565.89	0.696
566.08	0.694
566.28	0.696
566.47	0.698
566.67	0.696
566.87	0.694
567.06	0.695
567.26	0.702
567.46	0.698
567.65	0.697
567.85	0.698
568.04	0.701
568.24	0.700
568.44	0.698
568.63	0.696
568.83	0.698
569.02	0.696
569.22	0.692
569.42	0.688
569.61	0.690
569.81	0.688
570.00	0.687
570.20	0.688
570.40	0.689
570.59	0.688
570.79	0.686
570.98	0.685
571.18	0.686
571.38	0.685
571.57	0.683
571.77	0.680
571.96	0.684
572.16	0.682
572.35	0.677
572.55	0.678
572.75	0.676
572.94	0.676
573.14	0.674
573.33	0.675
573.53	0.675
573.73	0.675
573.92	0.673
574.12	0.672
574.31	0.674
574.51	0.674
574.70	0.672
574.90	0.674
575.09	0.676
575.29	0.676
575.49	0.674
575.68	0.674
575.88	0.675
576.07	0.676
576.27	0.673
576.46	0.672
576.66	0.671
576.86	0.670
577.05	0.668
577.25	0.666
577.44	0.667
577.64	0.667
577.83	0.665
578.03	0.667
578.22	0.667
578.42	0.666
578.61	0.665
578.81	0.666
579.00	0.665
579.20	0.665
579.40	0.665
579.59	0.663
579.79	0.663
579.98	0.663
580.18	0.662
580.37	0.662
580.57	0.664
580.76	0.668
580.96	0.666
581.15	0.667
581.35	0.669
581.54	0.669
581.74	0.668
581.93	0.670
582.13	0.671
582.32	0.668
582.52	0.666
582.71	0.665
582.91	0.662
583.10	0.662
583.30	0.660
583.49	0.659
583.69	0.663
583.88	0.664
584.08	0.663
584.27	0.665
584.47	0.669
584.66	0.670
584.86	0.669
585.05	0.671
585.25	0.674
585.44	0.674
585.64	0.672
585.83	0.669
586.03	0.669
586.22	0.667
586.42	0.663
586.61	0.664
586.81	0.666
587.00	0.665
587.20	0.663
587.39	0.663
587.59	0.665
587.78	0.666
587.98	0.667
588.17	0.668
588.37	0.671
588.56	0.673
588.76	0.669
588.95	0.669
589.15	0.673
589.34	0.676
589.54	0.674
589.73	0.675
589.92	0.677
590.12	0.677
590.31	0.676
590.51	0.681
590.70	0.683
590.90	0.684
591.09	0.683
591.29	0.681
591.48	0.680
591.68	0.681
591.87	0.680
592.06	0.680
592.26	0.682
592.45	0.681
592.65	0.675
592.84	0.674
593.04	0.676
593.23	0.678
593.43	0.675
593.62	0.675
593.81	0.675
594.01	0.674
594.20	0.672
594.40	0.670
594.59	0.671
594.79	0.673
594.98	0.671
595.17	0.671
595.37	0.672
595.56	0.674
595.76	0.674
595.95	0.675
596.14	0.678
596.34	0.680
596.53	0.679
596.73	0.681
596.92	0.682
597.12	0.684
597.31	0.684
597.50	0.683
597.70	0.685
597.89	0.685
598.09	0.682
598.28	0.683
598.47	0.685
598.67	0.683
598.86	0.679
599.06	0.681
599.25	0.681
599.44	0.679
599.64	0.677
599.83	0.674
600.03	0.677
600.22	0.677
600.41	0.677
600.61	0.675
600.80	0.677
601.00	0.678
601.19	0.674
601.38	0.672
601.58	0.675
601.77	0.676
601.96	0.679
602.16	0.679
602.35	0.688
602.55	0.685
602.74	0.686
602.93	0.688
603.13	0.693
603.32	0.695
603.51	0.695
603.71	0.697
603.90	0.699
604.09	0.699
604.29	0.697
604.48	0.691
604.68	0.693
604.87	0.691
605.06	0.688
605.26	0.684
605.45	0.684
605.64	0.683
605.84	0.678
606.03	0.678
606.22	0.676
606.42	0.675
606.61	0.672
606.80	0.672
607.00	0.674
607.19	0.674
607.38	0.672
607.58	0.673
607.77	0.676
607.96	0.676
608.16	0.674
608.35	0.679
608.54	0.682
608.74	0.684
608.93	0.689
609.12	0.692
609.32	0.695
609.51	0.698
609.70	0.698
609.90	0.699
610.09	0.704
610.28	0.710
610.48	0.703
610.67	0.705
610.86	0.706
611.06	0.701
611.25	0.699
611.44	0.700
611.64	0.699
611.83	0.702
612.02	0.699
612.21	0.698
612.41	0.695
612.60	0.694
612.79	0.690
612.99	0.690
613.18	0.691
613.37	0.689
613.57	0.686
613.76	0.688
613.95	0.685
614.14	0.684
614.34	0.681
614.53	0.682
614.72	0.685
614.92	0.685
615.11	0.682
615.30	0.679
615.49	0.680
615.69	0.682
615.88	0.678
616.07	0.679
616.26	0.681
616.46	0.682
616.65	0.679
616.84	0.678
617.04	0.679
617.23	0.682
617.42	0.683
617.61	0.686
617.81	0.687
618.00	0.688
618.19	0.688
618.38	0.692
618.58	0.696
618.77	0.697
618.96	0.698
619.15	0.700
619.35	0.701
619.54	0.703
619.73	0.699
619.92	0.701
620.12	0.705
620.31	0.706
620.50	0.702
620.69	0.701
620.89	0.704
621.08	0.704
621.27	0.704
621.46	0.703
621.66	0.706
621.85	0.706
622.04	0.703
622.23	0.705
622.43	0.705
622.62	0.704
622.81	0.703
623.00	0.702
623.19	0.705
623.39	0.703
623.58	0.700
623.77	0.698
623.96	0.701
624.16	0.700
624.35	0.695
624.54	0.699
624.73	0.702
624.92	0.699
625.12	0.698
625.31	0.698
625.50	0.701
625.69	0.703
625.88	0.700
626.08	0.699
626.27	0.700
626.46	0.700
626.65	0.697
626.84	0.696
627.04	0.701
627.23	0.701
627.42	0.698
627.61	0.699
627.80	0.701
628.00	0.701
628.19	0.700
628.38	0.705
628.57	0.707
628.76	0.705
628.96	0.702
629.15	0.702
629.34	0.705
629.53	0.706
629.72	0.700
629.91	0.701
630.11	0.705
630.30	0.704
630.49	0.707
630.68	0.708
630.87	0.712
631.06	0.714
631.26	0.710
631.45	0.711
631.64	0.719
631.83	0.722
632.02	0.720
632.21	0.718
632.41	0.725
632.60	0.720
632.79	0.718
632.98	0.718
633.17	0.719
633.36	0.721
633.55	0.717
633.75	0.713
633.94	0.714
634.13	0.713
634.32	0.712
634.51	0.707
634.70	0.708
634.89	0.708
635.09	0.705
635.28	0.705
635.47	0.706
635.66	0.709
635.85	0.705
636.04	0.707
636.23	0.711
636.43	0.712
636.62	0.710
636.81	0.709
637.00	0.711
637.19	0.715
637.38	0.712
637.57	0.711
637.76	0.712
637.95	0.713
638.15	0.710
638.34	0.707
638.53	0.710
638.72	0.712
638.91	0.709
639.10	0.708
639.29	0.707
639.48	0.708
639.67	0.709
639.87	0.708
640.06	0.713
640.25	0.713
640.44	0.714
640.63	0.715
640.82	0.717
641.01	0.717
641.20	0.716
641.39	0.718
641.58	0.720
641.78	0.719
641.97	0.715
642.16	0.729
642.35	0.729
642.54	0.728
642.73	0.722
642.92	0.721
643.11	0.723
643.30	0.723
643.49	0.718
643.68	0.720
643.87	0.722
644.06	0.722
644.25	0.703
644.45	0.706
644.64	0.707
644.83	0.708
645.02	0.705
645.21	0.705
645.40	0.705
645.59	0.706
645.78	0.701
645.97	0.703
646.16	0.704
646.35	0.703
646.54	0.701
646.73	0.702
646.92	0.704
647.11	0.704
647.30	0.701
647.49	0.703
647.68	0.703
647.88	0.700
648.07	0.694
648.26	0.697
648.45	0.699
648.64	0.696
648.83	0.693
649.02	0.695
649.21	0.704
649.40	0.702
649.59	0.698
649.78	0.699
649.97	0.713
650.16	0.712
650.35	0.706
650.54	0.709
650.73	0.717
650.92	0.714
651.11	0.709
651.30	0.705
651.49	0.709
651.68	0.709
651.87	0.707
652.06	0.696
652.25	0.699
652.44	0.703
652.63	0.702
652.82	0.704
653.01	0.704
653.20	0.702
653.39	0.691
653.58	0.689
653.77	0.689
653.96	0.684
654.15	0.677
654.34	0.675
654.53	0.670
654.72	0.663
654.91	0.653
655.10	0.649
655.29	0.647
655.48	0.645
655.67	0.639
655.86	0.636
656.05	0.635
656.24	0.634
656.43	0.629
656.62	0.628
656.81	0.627
657.00	0.624
657.19	0.620
657.38	0.620
657.57	0.618
657.76	0.619
657.95	0.617
658.14	0.620
658.33	0.622
658.51	0.627
658.70	0.626
658.89	0.628
659.08	0.638
659.27	0.647
659.46	0.647
659.65	0.654
659.84	0.658
660.03	0.662
660.22	0.662
660.41	0.667
660.60	0.666
660.79	0.667
660.98	0.673
661.17	0.671
661.36	0.670
661.55	0.672
661.74	0.670
661.92	0.673
662.11	0.675
662.30	0.674
662.49	0.667
662.68	0.667
662.87	0.670
663.06	0.664
663.25	0.665
663.44	0.666
663.63	0.666
663.82	0.664
664.01	0.659
664.20	0.657
664.38	0.658
664.57	0.659
664.76	0.658
664.95	0.659
665.14	0.664
665.33	0.660
665.52	0.667
665.71	0.671
665.90	0.671
666.09	0.673
666.28	0.670
666.46	0.669
666.65	0.669
666.84	0.667
667.03	0.662
667.22	0.659
667.41	0.662
667.60	0.652
667.79	0.645
667.98	0.647
668.16	0.647
668.35	0.648
668.54	0.645
668.73	0.647
668.92	0.647
669.11	0.646
669.30	0.641
669.49	0.638
669.67	0.640
669.86	0.642
670.05	0.639
670.24	0.637
670.43	0.634
670.62	0.633
670.81	0.628
671.00	0.629
671.18	0.628
671.37	0.627
671.56	0.624
671.75	0.623
671.94	0.620
672.13	0.618
672.32	0.614
672.50	0.613
672.69	0.614
672.88	0.614
673.07	0.611
673.26	0.613
673.45	0.614
673.63	0.614
673.82	0.611
674.01	0.611
674.20	0.611
674.39	0.611
674.58	0.611
674.76	0.610
674.95	0.609
675.14	0.608
675.33	0.605
675.52	0.603
675.71	0.603
675.89	0.602
676.08	0.598
676.27	0.598
676.46	0.598
676.65	0.597
676.84	0.597
677.02	0.599
677.21	0.601
677.40	0.600
677.59	0.598
677.78	0.599
677.96	0.602
678.15	0.602
678.34	0.600
678.53	0.601
678.72	0.600
678.90	0.597
679.09	0.593
679.28	0.590
679.47	0.589
679.66	0.590
679.84	0.586
680.03	0.583
680.22	0.582
680.41	0.582
680.60	0.579
680.78	0.578
680.97	0.580
681.16	0.580
681.35	0.579
681.53	0.577
681.72	0.578
681.91	0.579
682.10	0.579
682.29	0.581
682.47	0.580
682.66	0.578
682.85	0.577
683.04	0.575
683.22	0.576
683.41	0.578
683.60	0.577
683.79	0.578
683.97	0.576
684.16	0.575
684.35	0.571
684.54	0.572
684.72	0.573
684.91	0.574
685.10	0.572
685.29	0.573
685.47	0.571
685.66	0.569
685.85	0.566
686.04	0.565
686.22	0.568
686.41	0.570
686.60	0.568
686.79	0.571
686.97	0.571
687.16	0.572
687.35	0.570
687.54	0.573
687.72	0.577
687.91	0.577
688.10	0.579
688.29	0.579
688.47	0.576
688.66	0.576
688.85	0.573
689.03	0.570
689.22	0.575
689.41	0.575
689.60	0.571
689.78	0.568
689.97	0.568
690.16	0.565
690.34	0.562
690.53	0.561
690.72	0.562
690.91	0.560
691.09	0.558
691.28	0.552
691.47	0.550
691.65	0.549
691.84	0.546
692.03	0.545
692.21	0.543
692.40	0.543
692.59	0.540
692.77	0.539
692.96	0.540
693.15	0.541
693.34	0.538
693.52	0.538
693.71	0.538
693.90	0.539
694.08	0.540
694.27	0.541
694.46	0.550
694.64	0.551
694.83	0.551
695.02	0.550
695.20	0.550
695.39	0.550
695.58	0.551
695.76	0.551
695.95	0.550
696.14	0.549
696.32	0.547
696.51	0.538
696.70	0.538
696.88	0.539
697.07	0.538
697.26	0.539
697.44	0.540
697.63	0.540
697.81	0.538
698.00	0.538
698.19	0.537
698.37	0.537
698.56	0.536
698.75	0.536
698.93	0.535
699.12	0.534
699.31	0.534
699.49	0.533
699.68	0.533
699.87	0.536
700.05	0.537
700.24	0.536
700.42	0.537
700.61	0.537
700.80	0.535
700.98	0.536
701.17	0.537
701.36	0.536
701.54	0.535
701.73	0.536
701.91	0.534
702.10	0.532
702.29	0.531
702.47	0.530
702.66	0.531
702.84	0.532
703.03	0.530
703.22	0.531
703.40	0.531
703.59	0.532
703.77	0.532
703.96	0.532
704.15	0.533
704.33	0.533
704.52	0.532
704.70	0.532
704.89	0.532
705.08	0.530
705.26	0.526
705.45	0.526
705.63	0.526
705.82	0.523
706.00	0.521
706.19	0.521
706.38	0.520
706.56	0.521
706.75	0.519
706.93	0.517
707.12	0.519
707.30	0.520
707.49	0.517
707.68	0.515
707.86	0.515
708.05	0.515
708.23	0.512
708.42	0.512
708.60	0.514
708.79	0.514
708.98	0.512
709.16	0.511
709.35	0.513
709.53	0.516
709.72	0.515
709.90	0.516
710.09	0.519
710.27	0.521
710.46	0.525
710.64	0.524
710.83	0.526
711.02	0.528
711.20	0.527
711.39	0.526
711.57	0.524
711.76	0.525
711.94	0.524
712.13	0.525
712.31	0.524
712.50	0.519
712.68	0.517
712.87	0.517
713.05	0.517
713.24	0.517
713.42	0.517
713.61	0.517
713.79	0.518
713.98	0.517
714.16	0.518
714.35	0.518
714.54	0.519
714.72	0.519
714.91	0.517
715.09	0.524
715.28	0.527
715.46	0.526
715.65	0.524
715.83	0.524
716.02	0.526
716.20	0.522
716.39	0.522
716.57	0.523
716.76	0.525
716.94	0.525
717.12	0.517
717.31	0.519
717.49	0.522
717.68	0.524
717.86	0.524
718.05	0.526
718.23	0.527
718.42	0.529
718.60	0.529
718.79	0.537
718.97	0.539
719.16	0.539
719.34	0.537
719.53	0.536
719.71	0.536
719.90	0.538
720.08	0.536
720.27	0.536
720.45	0.537
720.63	0.536
720.82	0.530
721.00	0.532
721.19	0.536
721.37	0.535
721.56	0.535
721.74	0.537
721.93	0.545
722.11	0.551
722.30	0.551
722.48	0.554
722.66	0.555
722.85	0.555
723.03	0.556
723.22	0.554
723.40	0.557
723.59	0.557
723.77	0.563
723.95	0.557
724.14	0.559
724.32	0.561
724.51	0.561
724.69	0.562
724.88	0.562
725.06	0.560
725.24	0.562
725.43	0.563
725.61	0.565
725.80	0.558
725.98	0.557
726.16	0.553
726.35	0.557
726.53	0.556
726.72	0.555
726.90	0.565
727.09	0.565
727.27	0.571
727.45	0.568
727.64	0.577
727.82	0.584
728.01	0.588
728.19	0.586
728.37	0.592
728.56	0.595
728.74	0.601
728.92	0.590
729.11	0.592
729.29	0.589
729.48	0.592
729.66	0.583
729.84	0.584
730.03	0.586
730.21	0.589
730.40	0.579
730.58	0.581
730.76	0.580
730.95	0.582
731.13	0.583
731.31	0.598
731.50	0.605
731.68	0.607
731.86	0.604
732.05	0.617
732.23	0.619
732.42	0.624
732.60	0.627
732.78	0.632
732.97	0.650
733.15	0.655
733.33	0.643
733.52	0.650
733.70	0.658
733.88	0.666
734.07	0.654
734.25	0.679
734.43	0.686
734.62	0.689
734.80	0.686
734.98	0.675
735.17	0.682
735.35	0.690
735.53	0.679
735.72	0.683
735.90	0.703
736.08	0.722
736.27	0.700
736.45	0.709
736.63	0.718
736.82	0.727
737.00	0.728
737.18	0.738
737.37	0.764
737.55	0.785
737.73	0.779
737.92	0.782
738.10	0.778
738.28	0.798
738.46	0.785
738.65	0.799
738.83	0.817
739.01	0.867
739.20	0.859
739.38	0.845
739.56	0.837
739.75	0.845
739.93	0.813
740.11	0.834
740.29	0.830
740.48	0.840
740.66	0.818
740.84	0.816
741.03	0.782
741.21	0.793
741.39	0.777
741.57	0.790
741.76	0.802
741.94	0.810
742.12	0.777
742.31	0.784
742.49	0.799
742.67	0.822
742.85	0.835
743.04	0.840
743.22	0.844
743.40	0.889
743.58	0.873
743.77	0.892
743.95	0.913
744.13	0.965
744.31	0.950
744.50	0.940
744.68	0.937
744.86	0.908
745.04	0.921
745.23	0.978
745.41	0.961
745.59	0.964
745.77	0.934
745.96	0.931
746.14	0.931
746.32	0.927
746.50	0.928
746.69	0.913
746.87	0.920
747.05	0.903
747.23	0.838
747.42	0.821
747.60	0.843
747.78	0.843
747.96	0.869
748.14	0.833
748.33	0.860
748.51	0.856
748.69	0.852
748.87	0.878
749.06	0.875
749.24	0.875
749.42	0.867
749.60	0.852
749.78	0.859
749.97	0.819
750.15	0.813
750.33	0.812
750.51	0.827
750.69	0.829
750.88	0.834
751.06	0.840
751.24	0.859
751.42	0.856
751.60	0.851
751.79	0.909
751.97	0.945
752.15	0.944
752.33	0.913
752.51	0.972
752.69	0.984
752.88	0.958
753.06	1.002
753.24	0.979
753.42	1.007
753.60	1.146
753.78	1.034
753.97	1.056
754.15	1.064
754.33	1.094
754.51	0.992
754.69	0.979
754.87	1.002
755.06	0.938
755.24	0.945
755.42	0.950
755.60	0.860
755.78	0.867
755.96	0.821
756.15	0.824
756.33	0.828
756.51	0.841
756.69	0.834
756.87	0.802
757.05	0.818
757.23	0.804
757.42	0.774
757.60	0.772
757.78	0.763
757.96	0.759
758.14	0.745
758.32	0.730
758.50	0.739
758.69	0.734
758.87	0.730
759.05	0.732
759.23	0.737
759.41	0.739
759.59	0.733
759.77	0.752
759.95	0.776
760.13	0.820
760.32	0.823
760.50	0.819
760.68	0.840
760.86	0.839
761.04	0.818
761.22	0.824
761.40	0.865
761.58	0.867
761.76	0.842
761.95	0.824
762.13	0.782
762.31	0.780
762.49	0.754
762.67	0.770
762.85	0.778
763.03	0.775
763.21	0.760
763.39	0.745
763.57	0.746
763.75	0.742
763.94	0.728
764.12	0.732
764.30	0.750
764.48	0.755
764.66	0.724
764.84	0.724
765.02	0.757
765.20	0.764
765.38	0.745
765.56	0.749
765.74	0.785
765.92	0.788
766.10	0.791
766.28	0.786
766.46	0.809
766.65	0.808
766.83	0.798
767.01	0.780
767.19	0.784
767.37	0.783
767.55	0.774
767.73	0.752
767.91	0.753
768.09	0.746
768.27	0.740
768.45	0.730
768.63	0.735
768.81	0.736
768.99	0.713
769.17	0.735
769.35	0.745
769.53	0.743
769.71	0.728
769.89	0.736
770.07	0.738
770.25	0.720
770.43	0.701
770.61	0.721
770.79	0.725
770.97	0.737
771.15	0.711
771.33	0.716
771.51	0.714
771.69	0.722
771.87	0.727
772.05	0.732
772.24	0.740
772.42	0.749
772.60	0.732
772.78	0.785
772.96	0.807
773.14	0.804
773.32	0.785
773.49	0.795
773.67	0.793
773.85	0.777
774.03	0.768
774.21	0.797
774.39	0.807
774.57	0.825
774.75	0.763
774.93	0.759
775.11	0.778
775.29	0.782
775.47	0.784
775.65	0.793
775.83	0.809
776.01	0.827
776.19	0.785
776.37	0.784
776.55	0.783
776.73	0.778
776.91	0.775
777.09	0.761
777.27	0.760
777.45	0.748
777.63	0.731
777.81	0.726
777.99	0.714
778.17	0.712
778.35	0.695
778.53	0.686
778.71	0.692
778.89	0.679
779.07	0.669
779.24	0.673
779.42	0.674
779.60	0.689
779.78	0.688
779.96	0.694
780.14	0.700
780.32	0.721
780.50	0.703
780.68	0.700
780.86	0.693
781.04	0.707
781.22	0.713
781.40	0.721
781.58	0.711
781.75	0.703
781.93	0.688
782.11	0.688
782.29	0.674
782.47	0.672
782.65	0.664
782.83	0.689
783.01	0.683
783.19	0.676
783.37	0.664
783.55	0.667
783.72	0.684
783.90	0.693
784.08	0.689
784.26	0.699
784.44	0.723
784.62	0.725
784.80	0.696
784.98	0.703
785.16	0.709
785.33	0.721
785.51	0.710
785.69	0.696
785.87	0.696
786.05	0.706
786.23	0.704
786.41	0.695
786.59	0.701
786.77	0.701
786.94	0.687
787.12	0.689
787.30	0.691
787.48	0.691
787.66	0.682
787.84	0.681
788.02	0.670
788.19	0.668
788.37	0.657
788.55	0.659
788.73	0.657
788.91	0.654
789.09	0.642
789.27	0.629
789.44	0.638
789.62	0.643
789.80	0.653
789.98	0.677
790.16	0.663
790.34	0.660
790.51	0.650
790.69	0.667
790.87	0.672
791.05	0.668
791.23	0.664
791.41	0.663
791.58	0.669
791.76	0.648
791.94	0.621
792.12	0.630
792.30	0.631
792.48	0.629
792.65	0.625
792.83	0.632
793.01	0.637
793.19	0.636
793.37	0.624
793.54	0.620
793.72	0.631
793.90	0.630
794.08	0.619
794.26	0.620
794.43	0.628
794.61	0.611
794.79	0.601
794.97	0.599
795.15	0.603
795.32	0.606
795.50	0.596
795.68	0.589
795.86	0.592
796.04	0.595
796.21	0.589
796.39	0.587
796.57	0.600
796.75	0.607
796.92	0.609
797.10	0.612
797.28	0.615
797.46	0.617
797.64	0.619
797.81	0.626
797.99	0.629
798.17	0.633
798.35	0.628
798.52	0.631
798.70	0.627
798.88	0.634
799.06	0.635
799.23	0.636
799.41	0.645
799.59	0.640
799.77	0.632
799.94	0.639
800.12	0.646
800.30	0.663
800.48	0.662
800.65	0.660
800.83	0.651
801.01	0.644
801.19	0.644
801.36	0.640
801.54	0.642
801.72	0.650
801.90	0.638
802.07	0.634
802.25	0.621
802.43	0.606
802.60	0.606
802.78	0.611
802.96	0.616
803.14	0.612
803.31	0.611
803.49	0.611
803.67	0.607
803.84	0.612
804.02	0.606
804.20	0.609
804.38	0.613
804.55	0.611
804.73	0.600
804.91	0.599
805.08	0.611
805.26	0.607
805.44	0.669
805.61	0.672
805.79	0.672
805.97	0.671
806.15	0.664
806.32	0.659
806.50	0.665
806.68	0.664
806.85	0.658
807.03	0.647
807.21	0.662
807.38	0.598
807.56	0.590
807.74	0.598
807.91	0.601
808.09	0.604
808.27	0.624
808.44	0.647
808.62	0.657
808.80	0.658
808.97	0.654
809.15	0.649
809.33	0.666
809.50	0.670
809.68	0.657
809.86	0.666
810.03	0.695
810.21	0.675
810.39	0.659
810.56	0.662
810.74	0.682
810.91	0.751
811.09	0.741
811.27	0.760
811.44	0.766
811.62	0.770
811.80	0.758
811.97	0.728
812.15	0.729
812.33	0.724
812.50	0.714
812.68	0.701
812.85	0.647
813.03	0.648
813.21	0.619
813.38	0.613
813.56	0.615
813.74	0.623
813.91	0.630
814.09	0.656
814.26	0.650
814.44	0.653
814.62	0.647
814.79	0.650
814.97	0.653
815.14	0.657
815.32	0.658
815.50	0.672
815.67	0.671
815.85	0.662
816.02	0.652
816.20	0.658
816.38	0.668
816.55	0.673
816.73	0.674
816.90	0.682
817.08	0.706
817.26	0.713
817.43	0.697
817.61	0.723
817.78	0.741
817.96	0.721
818.13	0.714
818.31	0.716
818.49	0.724
818.66	0.716
818.84	0.705
819.01	0.688
819.19	0.692
819.36	0.694
819.54	0.666
819.71	0.703
819.89	0.716
820.07	0.725
820.24	0.722
820.42	0.722
820.59	0.736
820.77	0.760
820.94	0.753
821.12	0.771
821.29	0.784
821.47	0.788
821.64	0.730
821.82	0.739
822.00	0.734
822.17	0.729
822.35	0.727
822.52	0.733
822.70	0.721
822.87	0.730
823.05	0.713
823.22	0.722
823.40	0.741
823.57	0.763
823.75	0.748
823.92	0.775
824.10	0.791
824.27	0.827
824.45	0.816
824.62	0.865
824.80	0.878
824.97	0.890
825.15	0.881
825.32	0.893
825.50	0.888
825.67	0.895
825.85	0.878
826.02	0.896
826.20	0.908
826.37	1.017
826.55	0.953
826.72	1.110
826.90	1.158
827.07	1.197
827.25	1.156
827.42	1.285
827.60	1.393
827.77	1.505
827.95	1.496
828.12	1.537
828.30	1.284
828.47	1.379
828.65	1.110
828.82	1.152
829.00	1.194
829.17	1.262
829.34	1.257
829.52	1.285
829.69	-0.000
829.87	-0.000
830.04	-0.000
830.22	-0.000
830.39	-0.000
830.57	-0.000
830.74	-0.000
830.92	-0.000
831.09	-0.000
831.26	-0.000
831.44	-0.000
831.61	-0.000
831.79	-0.000
831.96	-0.000
832.14	-0.000
832.31	-0.000
832.49	-0.000
832.66	-0.000
832.83	-0.000
833.01	-0.000
833.18	-0.000
833.36	-0.000
833.53	-0.000
833.70	-0.000
833.88	-0.000
834.05	-0.000
834.23	-0.000
834.40	-0.000
834.58	-0.000
834.75	-0.000
834.92	-0.000
835.10	-0.000
835.27	-0.000
835.45	-0.000
835.62	-0.000
835.79	-0.000
835.97	-0.000
836.14	-0.000
836.32	-0.000
836.49	-0.000
836.66	-0.000
836.84	-0.000
837.01	-0.000
837.18	-0.000
837.36	-0.000
837.53	-0.000
837.71	-0.000
837.88	-0.000
838.05	-0.000
838.23	-0.000
838.40	-0.000
838.58	-0.000
838.75	-0.000
838.92	-0.000
839.10	-0.000
839.27	-0.000
839.44	-0.000
839.62	-0.000
839.79	-0.000
839.96	-0.000
840.14	-0.000
840.31	-0.000
840.48	-0.000
840.66	-0.000
840.83	-0.000
841.01	-0.000
841.18	-0.000
841.35	-0.000
841.53	-0.000
841.70	-0.000
841.87	-0.000
842.05	-0.000
842.22	-0.000
842.39	-0.000
842.57	-0.000
842.74	-0.000
842.91	-0.000
843.09	-0.000
843.26	-0.000
843.43	-0.000
843.60	-0.000
843.78	-0.000
843.95	-0.000
844.12	-0.000
844.30	-0.000
844.47	-0.000
844.64	-0.000
844.82	-0.000
844.99	-0.000
845.16	-0.000
845.34	-0.000
845.51	-0.000
845.68	-0.000
845.85	-0.000
846.03	-0.000
846.20	-0.000
846.37	-0.000
846.55	-0.000
846.72	-0.000
846.89	-0.000
847.06	-0.000
847.24	-0.000
847.41	-0.000
847.58	-0.000
847.76	-0.000
847.93	-0.000
848.10	-0.000
848.27	-0.000
848.45	-0.000
848.62	-0.000
848.79	-0.000
848.97	-0.000
849.14	-0.000
849.31	-0.000
849.48	-0.000
849.66	-0.000
849.83	-0.000
850.00	-0.000
850.17	-0.000
850.35	-0.000
850.52	-0.000
850.69	-0.000
850.86	-0.000
851.04	-0.000
851.21	-0.000
851.38	-0.000
851.55	-0.000
851.72	-0.000
851.90	-0.000
852.07	-0.000
852.24	-0.000
852.41	-0.000
852.59	-0.000
852.76	-0.000
852.93	-0.000
853.10	-0.000
853.28	-0.000
853.45	-0.000
853.62	-0.000
853.79	-0.000
853.96	-0.000
854.14	-0.000
854.31	-0.000
854.48	-0.000
854.65	-0.000
854.82	-0.000
855.00	-0.000
855.17	-0.000
855.34	-0.000
855.51	-0.000
855.68	-0.000
855.86	-0.000
856.03	-0.000
856.20	-0.000
856.37	-0.000
856.54	-0.000
856.72	-0.000
856.89	-0.000
857.06	-0.000
857.23	-0.000
857.40	-0.000
857.57	-0.000
857.75	-0.000
857.92	-0.000
858.09	-0.000
858.26	-0.000
858.43	-0.000
858.60	-0.000
858.78	-0.000
858.95	-0.000
859.12	-0.000
859.29	-0.000
859.46	-0.000
859.63	-0.000
859.81	-0.000
859.98	-0.000
860.15	-0.000
860.32	-0.000
860.49	-0.000
860.66	-0.000
860.83	-0.000
861.01	-0.000
861.18	-0.000
861.35	-0.000
861.52	-0.000
861.69	-0.000
861.86	-0.000
862.03	-0.000
862.21	-0.000
862.38	-0.000
862.55	-0.000
862.72	-0.000
862.89	-0.000
863.06	-0.000
863.23	-0.000
863.40	-0.000
863.58	-0.000
863.75	-0.000
863.92	-0.000
864.09	-0.000
864.26	-0.000
864.43	-0.000
864.60	-0.000
864.77	-0.000
864.94	-0.000
865.11	-0.000
865.29	-0.000
865.46	-0.000
865.63	-0.000
865.80	-0.000
865.97	-0.000
866.14	-0.000
866.31	-0.000
866.48	-0.000
866.65	-0.000
866.82	-0.000
866.99	-0.000
867.16	-0.000
867.34	-0.000
867.51	-0.000
867.68	-0.000
867.85	-0.000
868.02	-0.000
868.19	-0.000
868.36	-0.000
868.53	-0.000
868.70	-0.000
868.87	-0.000
869.04	-0.000
869.21	-0.000
869.38	-0.000
869.55	-0.000
869.72	-0.000
869.89	-0.000
870.06	-0.000
870.24	-0.000
870.41	-0.000
870.58	-0.000
870.75	-0.000
870.92	-0.000
871.09	-0.000
871.26	-0.000
871.43	-0.000
871.60	-0.000
871.77	-0.000
871.94	-0.000
872.11	-0.000
872.28	-0.000
872.45	-0.000
872.62	-0.000
872.79	-0.000
872.96	-0.000
873.13	-0.000
873.30	-0.000
873.47	-0.000
873.64	-0.000
873.81	-0.000
873.98	-0.000
874.15	-0.000
874.32	-0.000
874.49	-0.000
874.66	-0.000
874.83	-0.000
875.00	-0.000
875.17	-0.000
875.34	-0.000
875.51	-0.000
875.68	-0.000
875.85	-0.000
876.02	-0.000
876.19	-0.000
876.36	-0.000
876.53	-0.000
876.70	-0.000
876.87	-0.000
877.04	-0.000
877.21	-0.000
877.38	-0.000
877.55	-0.000
877.72	-0.000
877.89	-0.000
878.06	-0.000
878.23	-0.000
878.39	-0.000
878.56	-0.000
878.73	-0.000
878.90	-0.000
879.07	-0.000
879.24	-0.000
879.41	-0.000
879.58	-0.000
879.75	-0.000
879.92	-0.000
880.09	-0.000
880.26	-0.000
880.43	-0.000
880.60	-0.000
880.77	-0.000
880.94	-0.000
881.11	-0.000
881.27	-0.000
881.44	-0.000
881.61	-0.000
881.78	-0.000
881.95	-0.000
882.12	-0.000
882.29	-0.000
882.46	-0.000
882.63	-0.000
882.80	-0.000
882.97	-0.000
883.14	-0.000
883.30	-0.000
883.47	-0.000
883.64	-0.000
883.81	-0.000
883.98	-0.000
884.15	-0.000
884.32	-0.000
884.49	-0.000
884.66	-0.000
884.82	-0.000
884.99	-0.000
885.16	-0.000
885.33	-0.000
885.50	-0.000
885.67	-0.000
885.84	-0.000
886.01	-0.000
886.17	-0.000
886.34	-0.000
886.51	-0.000
886.68	-0.000
886.85	-0.000
887.02	-0.000
887.19	-0.000
887.36	-0.000
887.52	-0.000
887.69	-0.000
887.86	-0.000
888.03	-0.000
888.20	-0.000
888.37	-0.000
888.54	-0.000
888.70	-0.000
888.87	-0.000
889.04	-0.000
889.21	-0.000
889.38	-0.000
889.55	-0.000
889.71	-0.000
889.88	-0.000
890.05	-0.000
890.22	-0.000
890.39	-0.000
>>>>>End Processed Spectral Data<<<<<
