SpectraSuite Data File
++++++++++++++++++++++++++++++++++++
Date: Fri Jun 19 13:49:11 CEST 2015
User: introlabs
Dark Spectrum Present: Yes
Reference Spectrum Present: Yes
Number of Sampled Component Spectra: 1
Spectrometers: USB4H08886
Integration Time (usec): 745692 (USB4H08886)
Spectra Averaged: 5 (USB4H08886)
Boxcar Smoothing: 5 (USB4H08886)
Correct for Electrical Dark: Yes (USB4H08886)
Strobe/Lamp Enabled: No (USB4H08886)
Correct for Detector Non-linearity: Yes (USB4H08886)
Correct for Stray Light: Yes (USB4H08886)
Number of Pixels in Processed Spectrum: 3648
>>>>>Begin Processed Spectral Data<<<<<
178.14	-0.000
178.36	-0.000
178.57	-0.000
178.79	-0.000
179.01	-0.000
179.22	-0.000
179.44	-0.000
179.65	-0.000
179.87	-0.000
180.08	-0.000
180.30	-0.000
180.52	-0.000
180.73	-0.000
180.95	-0.000
181.16	-0.000
181.38	-0.000
181.59	-0.000
181.81	-0.000
182.03	-0.000
182.24	-0.000
182.46	-0.000
182.67	-0.000
182.89	-0.000
183.10	-0.000
183.32	-0.000
183.54	-0.000
183.75	-0.000
183.97	-0.000
184.18	-0.000
184.40	-0.000
184.61	-0.000
184.83	-0.000
185.04	-0.000
185.26	-0.000
185.48	-0.000
185.69	-0.000
185.91	-0.000
186.12	-0.000
186.34	-0.000
186.55	-0.000
186.77	-0.000
186.98	-0.000
187.20	-0.000
187.42	-0.000
187.63	-0.000
187.85	-0.000
188.06	-0.000
188.28	-0.000
188.49	-0.000
188.71	-0.000
188.92	-0.000
189.14	-0.000
189.36	-0.000
189.57	-0.000
189.79	-0.000
190.00	-0.000
190.22	-0.000
190.43	-0.000
190.65	-0.000
190.86	-0.000
191.08	-0.000
191.29	-0.000
191.51	-0.000
191.72	-0.000
191.94	-0.000
192.16	-0.000
192.37	-0.000
192.59	-0.000
192.80	-0.000
193.02	-0.000
193.23	-0.000
193.45	-0.000
193.66	-0.000
193.88	-0.000
194.09	-0.000
194.31	-0.000
194.52	-0.000
194.74	-0.000
194.95	-0.000
195.17	-0.000
195.38	-0.000
195.60	-0.000
195.81	-0.000
196.03	-0.000
196.25	-0.000
196.46	-0.000
196.68	-0.000
196.89	-0.000
197.11	-0.000
197.32	-0.000
197.54	-0.000
197.75	-0.000
197.97	-0.000
198.18	-0.000
198.40	-0.000
198.61	-0.000
198.83	-0.000
199.04	-0.000
199.26	-0.000
199.47	-0.000
199.69	-0.000
199.90	-0.000
200.12	-0.000
200.33	-0.000
200.55	-0.000
200.76	-0.000
200.98	-0.000
201.19	-0.000
201.41	-0.000
201.62	-0.000
201.84	-0.000
202.05	-0.000
202.27	-0.000
202.48	-0.000
202.70	-0.000
202.91	-0.000
203.13	-0.000
203.34	-0.000
203.56	-0.000
203.77	-0.000
203.99	-0.000
204.20	-0.000
204.42	-0.000
204.63	-0.000
204.85	-0.000
205.06	-0.000
205.28	-0.000
205.49	-0.000
205.71	-0.000
205.92	-0.000
206.14	-0.000
206.35	-0.000
206.56	-0.000
206.78	-0.000
206.99	-0.000
207.21	-0.000
207.42	-0.000
207.64	-0.000
207.85	-0.000
208.07	-0.000
208.28	-0.000
208.50	-0.000
208.71	-0.000
208.93	-0.000
209.14	-0.000
209.36	-0.000
209.57	-0.000
209.79	-0.000
210.00	-0.000
210.22	-0.000
210.43	-0.000
210.64	-0.000
210.86	-0.000
211.07	-0.000
211.29	-0.000
211.50	-0.000
211.72	-0.000
211.93	-0.000
212.15	-0.000
212.36	-0.000
212.58	-0.000
212.79	-0.000
213.01	-0.000
213.22	-0.000
213.43	-0.000
213.65	-0.000
213.86	-0.000
214.08	-0.000
214.29	-0.000
214.51	-0.000
214.72	-0.000
214.94	-0.000
215.15	-0.000
215.36	-0.000
215.58	-0.000
215.79	-0.000
216.01	-0.000
216.22	-0.000
216.44	-0.000
216.65	-0.000
216.87	-0.000
217.08	-0.000
217.29	-0.000
217.51	-0.000
217.72	-0.000
217.94	-0.000
218.15	-0.000
218.37	-0.000
218.58	-0.000
218.80	-0.000
219.01	-0.000
219.22	-0.000
219.44	-0.000
219.65	-0.000
219.87	-0.000
220.08	-0.000
220.30	-0.000
220.51	-0.000
220.72	-0.000
220.94	-0.000
221.15	-0.000
221.37	-0.000
221.58	-0.000
221.79	-0.000
222.01	-0.000
222.22	-0.000
222.44	-0.000
222.65	-0.000
222.87	-0.000
223.08	-0.000
223.29	-0.000
223.51	-0.000
223.72	-0.000
223.94	-0.000
224.15	-0.000
224.36	-0.000
224.58	-0.000
224.79	-0.000
225.01	-0.000
225.22	-0.000
225.44	-0.000
225.65	-0.000
225.86	-0.000
226.08	-0.000
226.29	-0.000
226.51	-0.000
226.72	-0.000
226.93	-0.000
227.15	-0.000
227.36	-0.000
227.58	-0.000
227.79	-0.000
228.00	-0.000
228.22	-0.000
228.43	-0.000
228.65	-0.000
228.86	-0.000
229.07	-0.000
229.29	-0.000
229.50	-0.000
229.72	-0.000
229.93	-0.000
230.14	-0.000
230.36	-0.000
230.57	-0.000
230.78	-0.000
231.00	-0.000
231.21	-0.000
231.43	-0.000
231.64	-0.000
231.85	-0.000
232.07	-0.000
232.28	-0.000
232.50	-0.000
232.71	-0.000
232.92	-0.000
233.14	-0.000
233.35	-0.000
233.56	-0.000
233.78	-0.000
233.99	-0.000
234.21	-0.000
234.42	-0.000
234.63	-0.000
234.85	-0.000
235.06	-0.000
235.27	-0.000
235.49	-0.000
235.70	-0.000
235.91	-0.000
236.13	-0.000
236.34	-0.000
236.56	-0.000
236.77	-0.000
236.98	-0.000
237.20	-0.000
237.41	-0.000
237.62	-0.000
237.84	-0.000
238.05	-0.000
238.26	-0.000
238.48	-0.000
238.69	-0.000
238.91	-0.000
239.12	-0.000
239.33	-0.000
239.55	-0.000
239.76	-0.000
239.97	-0.000
240.19	-0.000
240.40	-0.000
240.61	-0.000
240.83	-0.000
241.04	-0.000
241.25	-0.000
241.47	-0.000
241.68	-0.000
241.89	-0.000
242.11	-0.000
242.32	-0.000
242.53	-0.000
242.75	-0.000
242.96	-0.000
243.17	-0.000
243.39	-0.000
243.60	-0.000
243.81	-0.000
244.03	-0.000
244.24	-0.000
244.45	-0.000
244.67	-0.000
244.88	-0.000
245.09	-0.000
245.31	-0.000
245.52	-0.000
245.73	-0.000
245.95	-0.000
246.16	-0.000
246.37	-0.000
246.59	-0.000
246.80	-0.000
247.01	-0.000
247.23	-0.000
247.44	-0.000
247.65	-0.000
247.87	-0.000
248.08	-0.000
248.29	-0.000
248.51	-0.000
248.72	-0.000
248.93	-0.000
249.15	-0.000
249.36	-0.000
249.57	-0.000
249.78	-0.000
250.00	-0.000
250.21	-0.000
250.42	-0.000
250.64	-0.000
250.85	-0.000
251.06	-0.000
251.28	-0.000
251.49	-0.000
251.70	-0.000
251.92	-0.000
252.13	-0.000
252.34	-0.000
252.55	-0.000
252.77	-0.000
252.98	-0.000
253.19	-0.000
253.41	-0.000
253.62	-0.000
253.83	-0.000
254.05	-0.000
254.26	-0.000
254.47	-0.000
254.68	-0.000
254.90	-0.000
255.11	-0.000
255.32	-0.000
255.54	-0.000
255.75	-0.000
255.96	-0.000
256.17	-0.000
256.39	-0.000
256.60	-0.000
256.81	-0.000
257.03	-0.000
257.24	-0.000
257.45	-0.000
257.66	-0.000
257.88	-0.000
258.09	-0.000
258.30	-0.000
258.51	-0.000
258.73	-0.000
258.94	-0.000
259.15	-0.000
259.37	-0.000
259.58	-0.000
259.79	-0.000
260.00	-0.000
260.22	-0.000
260.43	-0.000
260.64	-0.000
260.85	-0.000
261.07	-0.000
261.28	-0.000
261.49	-0.000
261.71	-0.000
261.92	-0.000
262.13	-0.000
262.34	-0.000
262.56	-0.000
262.77	-0.000
262.98	-0.000
263.19	-0.000
263.41	-0.000
263.62	-0.000
263.83	-0.000
264.04	-0.000
264.26	-0.000
264.47	-0.000
264.68	-0.000
264.89	-0.000
265.11	-0.000
265.32	-0.000
265.53	-0.000
265.74	-0.000
265.96	-0.000
266.17	-0.000
266.38	-0.000
266.59	-0.000
266.81	-0.000
267.02	-0.000
267.23	-0.000
267.44	-0.000
267.65	-0.000
267.87	-0.000
268.08	-0.000
268.29	-0.000
268.50	-0.000
268.72	-0.000
268.93	-0.000
269.14	-0.000
269.35	-0.000
269.57	-0.000
269.78	-0.000
269.99	-0.000
270.20	-0.000
270.41	-0.000
270.63	-0.000
270.84	-0.000
271.05	-0.000
271.26	-0.000
271.48	-0.000
271.69	-0.000
271.90	-0.000
272.11	-0.000
272.32	-0.000
272.54	-0.000
272.75	-0.000
272.96	-0.000
273.17	-0.000
273.39	-0.000
273.60	-0.000
273.81	-0.000
274.02	-0.000
274.23	-0.000
274.45	-0.000
274.66	-0.000
274.87	-0.000
275.08	-0.000
275.29	-0.000
275.51	-0.000
275.72	-0.000
275.93	-0.000
276.14	-0.000
276.35	-0.000
276.57	-0.000
276.78	-0.000
276.99	-0.000
277.20	-0.000
277.41	-0.000
277.63	-0.000
277.84	-0.000
278.05	-0.000
278.26	-0.000
278.47	-0.000
278.69	-0.000
278.90	-0.000
279.11	-0.000
279.32	-0.000
279.53	-0.000
279.74	-0.000
279.96	-0.000
280.17	-0.000
280.38	-0.000
280.59	-0.000
280.80	-0.000
281.02	-0.000
281.23	-0.000
281.44	-0.000
281.65	-0.000
281.86	-0.000
282.07	-0.000
282.29	-0.000
282.50	-0.000
282.71	-0.000
282.92	-0.000
283.13	-0.000
283.35	-0.000
283.56	-0.000
283.77	-0.000
283.98	-0.000
284.19	-0.000
284.40	-0.000
284.62	-0.000
284.83	-0.000
285.04	-0.000
285.25	-0.000
285.46	-0.000
285.67	-0.000
285.88	-0.000
286.10	-0.000
286.31	-0.000
286.52	-0.000
286.73	-0.000
286.94	-0.000
287.15	-0.000
287.37	-0.000
287.58	-0.000
287.79	-0.000
288.00	-0.000
288.21	-0.000
288.42	-0.000
288.63	-0.000
288.85	-0.000
289.06	-0.000
289.27	-0.000
289.48	-0.000
289.69	-0.000
289.90	-0.000
290.11	-0.000
290.33	-0.000
290.54	-0.000
290.75	-0.000
290.96	-0.000
291.17	-0.000
291.38	-0.000
291.59	-0.000
291.81	-0.000
292.02	-0.000
292.23	-0.000
292.44	-0.000
292.65	-0.000
292.86	-0.000
293.07	-0.000
293.28	-0.000
293.50	-0.000
293.71	-0.000
293.92	-0.000
294.13	-0.000
294.34	-0.000
294.55	-0.000
294.76	-0.000
294.97	-0.000
295.19	-0.000
295.40	-0.000
295.61	-0.000
295.82	-0.000
296.03	-0.000
296.24	-0.000
296.45	-0.000
296.66	3.842
296.87	-0.000
297.09	-0.000
297.30	-0.000
297.51	2.454
297.72	2.261
297.93	2.891
298.14	2.506
298.35	2.224
298.56	2.176
298.77	2.760
298.99	2.558
299.20	2.326
299.41	2.222
299.62	2.109
299.83	2.072
300.04	1.911
300.25	1.879
300.46	1.986
300.67	1.934
300.88	1.801
301.10	1.797
301.31	1.942
301.52	1.837
301.73	1.724
301.94	1.715
302.15	1.730
302.36	1.665
302.57	1.570
302.78	1.576
302.99	1.637
303.20	1.662
303.41	1.532
303.63	1.504
303.84	1.512
304.05	1.505
304.26	1.425
304.47	1.437
304.68	1.436
304.89	1.425
305.10	1.373
305.31	1.359
305.52	1.415
305.73	1.409
305.94	1.360
306.15	1.350
306.37	1.382
306.58	1.391
306.79	1.348
307.00	1.376
307.21	1.432
307.42	1.420
307.63	1.368
307.84	1.324
308.05	1.367
308.26	1.366
308.47	1.334
308.68	1.328
308.89	1.328
309.10	1.328
309.31	1.278
309.52	1.264
309.73	1.285
309.95	1.274
310.16	1.241
310.37	1.229
310.58	1.247
310.79	1.245
311.00	1.237
311.21	1.240
311.42	1.242
311.63	1.237
311.84	1.211
312.05	1.208
312.26	1.237
312.47	1.250
312.68	1.220
312.89	1.203
313.10	1.211
313.31	1.182
313.52	1.184
313.73	1.180
313.94	1.185
314.15	1.168
314.36	1.143
314.57	1.136
314.78	1.123
314.99	1.117
315.21	1.103
315.42	1.107
315.63	1.122
315.84	1.095
316.05	1.083
316.26	1.090
316.47	1.110
316.68	1.107
316.89	1.085
317.10	1.107
317.31	1.116
317.52	1.118
317.73	1.094
317.94	1.094
318.15	1.145
318.36	1.142
318.57	1.123
318.78	1.110
318.99	1.147
319.20	1.143
319.41	1.105
319.62	1.104
319.83	1.119
320.04	1.114
320.25	1.098
320.46	1.060
320.67	1.066
320.88	1.062
321.09	1.047
321.30	1.031
321.51	1.047
321.72	1.045
321.93	1.027
322.14	1.017
322.35	1.048
322.56	1.051
322.77	1.036
322.98	1.046
323.19	1.052
323.40	1.059
323.61	1.037
323.82	1.031
324.03	1.037
324.24	1.035
324.45	1.020
324.66	0.999
324.87	0.994
325.08	0.992
325.29	0.972
325.50	0.965
325.71	0.972
325.92	0.979
326.13	0.964
326.34	0.964
326.55	0.972
326.76	0.971
326.97	0.960
327.18	0.954
327.39	0.982
327.60	0.983
327.80	0.984
328.01	0.980
328.22	0.982
328.43	0.985
328.64	0.972
328.85	0.976
329.06	0.980
329.27	0.980
329.48	0.975
329.69	0.955
329.90	0.966
330.11	0.959
330.32	0.951
330.53	0.942
330.74	0.943
330.95	0.943
331.16	0.928
331.37	0.935
331.58	0.934
331.79	0.933
332.00	0.923
332.21	0.915
332.42	0.919
332.63	0.910
332.83	0.907
333.04	0.909
333.25	0.921
333.46	0.919
333.67	0.904
333.88	0.907
334.09	0.918
334.30	0.914
334.51	0.907
334.72	0.903
334.93	0.907
335.14	0.906
335.35	0.897
335.56	0.892
335.77	0.902
335.98	0.902
336.18	0.894
336.39	0.886
336.60	0.890
336.81	0.888
337.02	0.885
337.23	0.890
337.44	0.893
337.65	0.896
337.86	0.885
338.07	0.880
338.28	0.885
338.49	0.882
338.70	0.874
338.91	0.882
339.11	0.890
339.32	0.886
339.53	0.873
339.74	0.869
339.95	0.865
340.16	0.863
340.37	0.855
340.58	0.853
340.79	0.858
341.00	0.859
341.21	0.847
341.41	0.847
341.62	0.849
341.83	0.851
342.04	0.845
342.25	0.858
342.46	0.863
342.67	0.862
342.88	0.854
343.09	0.853
343.30	0.861
343.50	0.865
343.71	0.854
343.92	0.852
344.13	0.856
344.34	0.857
344.55	0.838
344.76	0.836
344.97	0.840
345.18	0.838
345.38	0.836
345.59	0.830
345.80	0.831
346.01	0.829
346.22	0.824
346.43	0.819
346.64	0.827
346.85	0.827
347.06	0.820
347.26	0.821
347.47	0.826
347.68	0.820
347.89	0.816
348.10	0.810
348.31	0.816
348.52	0.815
348.73	0.813
348.93	0.809
349.14	0.811
349.35	0.811
349.56	0.805
349.77	0.800
349.98	0.806
350.19	0.803
350.39	0.799
350.60	0.795
350.81	0.811
351.02	0.810
351.23	0.805
351.44	0.808
351.65	0.812
351.86	0.810
352.06	0.808
352.27	0.808
352.48	0.810
352.69	0.810
352.90	0.804
353.11	0.790
353.31	0.797
353.52	0.792
353.73	0.784
353.94	0.785
354.15	0.791
354.36	0.790
354.57	0.782
354.77	0.785
354.98	0.784
355.19	0.783
355.40	0.782
355.61	0.789
355.82	0.793
356.02	0.793
356.23	0.786
356.44	0.786
356.65	0.789
356.86	0.789
357.07	0.782
357.27	0.786
357.48	0.788
357.69	0.784
357.90	0.768
358.11	0.766
358.32	0.769
358.52	0.772
358.73	0.762
358.94	0.764
359.15	0.769
359.36	0.770
359.56	0.765
359.77	0.762
359.98	0.769
360.19	0.768
360.40	0.765
360.61	0.765
360.81	0.765
361.02	0.765
361.23	0.758
361.44	0.757
361.65	0.757
361.85	0.757
362.06	0.755
362.27	0.757
362.48	0.758
362.69	0.760
362.89	0.753
363.10	0.754
363.31	0.759
363.52	0.762
363.73	0.757
363.93	0.757
364.14	0.759
364.35	0.760
364.56	0.750
364.77	0.752
364.97	0.755
365.18	0.756
365.39	0.751
365.60	0.747
365.81	0.748
366.01	0.747
366.22	0.743
366.43	0.742
366.64	0.745
366.84	0.751
367.05	0.747
367.26	0.746
367.47	0.748
367.68	0.748
367.88	0.745
368.09	0.744
368.30	0.747
368.51	0.746
368.71	0.745
368.92	0.748
369.13	0.747
369.34	0.746
369.55	0.745
369.75	0.745
369.96	0.753
370.17	0.752
370.38	0.748
370.58	0.747
370.79	0.753
371.00	0.751
371.21	0.743
371.41	0.748
371.62	0.752
371.83	0.747
372.04	0.745
372.24	0.738
372.45	0.739
372.66	0.740
372.87	0.737
373.07	0.733
373.28	0.735
373.49	0.739
373.70	0.729
373.90	0.728
374.11	0.738
374.32	0.737
374.53	0.735
374.73	0.736
374.94	0.738
375.15	0.738
375.36	0.736
375.56	0.745
375.77	0.744
375.98	0.744
376.19	0.741
376.39	0.735
376.60	0.739
376.81	0.739
377.02	0.737
377.22	0.736
377.43	0.735
377.64	0.734
377.84	0.725
378.05	0.729
378.26	0.736
378.47	0.735
378.67	0.731
378.88	0.729
379.09	0.730
379.30	0.729
379.50	0.726
379.71	0.728
379.92	0.732
380.12	0.731
380.33	0.723
380.54	0.718
380.75	0.725
380.95	0.725
381.16	0.723
381.37	0.723
381.57	0.726
381.78	0.727
381.99	0.727
382.20	0.725
382.40	0.729
382.61	0.729
382.82	0.726
383.02	0.719
383.23	0.722
383.44	0.722
383.64	0.720
383.85	0.723
384.06	0.726
384.27	0.724
384.47	0.722
384.68	0.722
384.89	0.727
385.09	0.727
385.30	0.726
385.51	0.726
385.71	0.729
385.92	0.730
386.13	0.727
386.33	0.729
386.54	0.730
386.75	0.728
386.95	0.724
387.16	0.720
387.37	0.722
387.58	0.722
387.78	0.719
387.99	0.718
388.20	0.720
388.40	0.717
388.61	0.713
388.82	0.716
389.02	0.718
389.23	0.718
389.44	0.716
389.64	0.717
389.85	0.728
390.06	0.729
390.26	0.729
390.47	0.727
390.68	0.731
390.88	0.728
391.09	0.724
391.30	0.723
391.50	0.724
391.71	0.723
391.92	0.720
392.12	0.712
392.33	0.712
392.53	0.712
392.74	0.712
392.95	0.712
393.15	0.714
393.36	0.716
393.57	0.714
393.77	0.717
393.98	0.719
394.19	0.719
394.39	0.718
394.60	0.719
394.81	0.721
395.01	0.719
395.22	0.716
395.43	0.717
395.63	0.722
395.84	0.723
396.04	0.719
396.25	0.720
396.46	0.722
396.66	0.720
396.87	0.717
397.08	0.715
397.28	0.717
397.49	0.718
397.69	0.715
397.90	0.709
398.11	0.711
398.31	0.711
398.52	0.708
398.73	0.709
398.93	0.708
399.14	0.707
399.34	0.705
399.55	0.707
399.76	0.707
399.96	0.708
400.17	0.706
400.37	0.705
400.58	0.712
400.79	0.713
400.99	0.711
401.20	0.717
401.41	0.719
401.61	0.720
401.82	0.724
402.02	0.724
402.23	0.725
402.44	0.726
402.64	0.725
402.85	0.719
403.05	0.718
403.26	0.717
403.47	0.711
403.67	0.710
403.88	0.711
404.08	0.705
404.29	0.703
404.50	0.703
404.70	0.704
404.91	0.702
405.11	0.699
405.32	0.699
405.52	0.699
405.73	0.698
405.94	0.696
406.14	0.698
406.35	0.700
406.55	0.700
406.76	0.698
406.97	0.698
407.17	0.702
407.38	0.702
407.58	0.699
407.79	0.703
407.99	0.706
408.20	0.707
408.41	0.702
408.61	0.700
408.82	0.702
409.02	0.701
409.23	0.699
409.43	0.698
409.64	0.700
409.84	0.700
410.05	0.697
410.26	0.695
410.46	0.694
410.67	0.694
410.87	0.695
411.08	0.697
411.28	0.698
411.49	0.699
411.69	0.696
411.90	0.698
412.11	0.699
412.31	0.700
412.52	0.698
412.72	0.698
412.93	0.699
413.13	0.697
413.34	0.694
413.54	0.695
413.75	0.697
413.95	0.696
414.16	0.693
414.37	0.695
414.57	0.696
414.78	0.698
414.98	0.697
415.19	0.698
415.39	0.696
415.60	0.698
415.80	0.697
416.01	0.695
416.21	0.698
416.42	0.698
416.62	0.693
416.83	0.693
417.03	0.693
417.24	0.693
417.44	0.690
417.65	0.689
417.86	0.690
418.06	0.688
418.27	0.686
418.47	0.688
418.68	0.689
418.88	0.689
419.09	0.687
419.29	0.689
419.50	0.689
419.70	0.689
419.91	0.687
420.11	0.686
420.32	0.689
420.52	0.688
420.73	0.687
420.93	0.687
421.14	0.688
421.34	0.687
421.55	0.683
421.75	0.683
421.96	0.685
422.16	0.685
422.37	0.683
422.57	0.680
422.78	0.682
422.98	0.678
423.19	0.676
423.39	0.675
423.60	0.679
423.80	0.681
424.01	0.679
424.21	0.681
424.42	0.681
424.62	0.681
424.83	0.680
425.03	0.681
425.23	0.683
425.44	0.683
425.64	0.683
425.85	0.682
426.05	0.683
426.26	0.683
426.46	0.680
426.67	0.680
426.87	0.685
427.08	0.686
427.28	0.683
427.49	0.684
427.69	0.684
427.90	0.684
428.10	0.681
428.31	0.680
428.51	0.682
428.71	0.681
428.92	0.682
429.12	0.679
429.33	0.680
429.53	0.684
429.74	0.688
429.94	0.689
430.15	0.688
430.35	0.688
430.56	0.685
430.76	0.684
430.96	0.685
431.17	0.683
431.37	0.680
431.58	0.678
431.78	0.675
431.99	0.668
432.19	0.670
432.40	0.672
432.60	0.673
432.80	0.676
433.01	0.674
433.21	0.674
433.42	0.676
433.62	0.676
433.83	0.676
434.03	0.679
434.23	0.682
434.44	0.681
434.64	0.679
434.85	0.683
435.05	0.685
435.26	0.685
435.46	0.683
435.66	0.683
435.87	0.683
436.07	0.683
436.28	0.679
436.48	0.676
436.69	0.675
436.89	0.675
437.09	0.669
437.30	0.667
437.50	0.667
437.71	0.679
437.91	0.678
438.11	0.679
438.32	0.683
438.52	0.684
438.73	0.683
438.93	0.681
439.13	0.682
439.34	0.685
439.54	0.683
439.75	0.683
439.95	0.673
440.15	0.677
440.36	0.676
440.56	0.674
440.77	0.675
440.97	0.675
441.17	0.674
441.38	0.675
441.58	0.673
441.79	0.672
441.99	0.671
442.19	0.670
442.40	0.667
442.60	0.668
442.81	0.665
443.01	0.665
443.21	0.665
443.42	0.665
443.62	0.663
443.82	0.663
444.03	0.665
444.23	0.664
444.44	0.665
444.64	0.665
444.84	0.666
445.05	0.666
445.25	0.664
445.45	0.664
445.66	0.667
445.86	0.666
446.06	0.668
446.27	0.667
446.47	0.670
446.68	0.667
446.88	0.666
447.08	0.665
447.29	0.667
447.49	0.667
447.69	0.667
447.90	0.665
448.10	0.669
448.30	0.666
448.51	0.667
448.71	0.665
448.91	0.668
449.12	0.666
449.32	0.668
449.52	0.667
449.73	0.670
449.93	0.669
450.14	0.670
450.34	0.669
450.54	0.672
450.75	0.669
450.95	0.668
451.15	0.667
451.36	0.671
451.56	0.668
451.76	0.666
451.97	0.663
452.17	0.664
452.37	0.662
452.58	0.658
452.78	0.658
452.98	0.660
453.19	0.660
453.39	0.661
453.59	0.660
453.79	0.661
454.00	0.662
454.20	0.661
454.40	0.663
454.61	0.665
454.81	0.666
455.01	0.663
455.22	0.664
455.42	0.666
455.62	0.664
455.83	0.663
456.03	0.666
456.23	0.667
456.44	0.667
456.64	0.665
456.84	0.665
457.04	0.666
457.25	0.666
457.45	0.662
457.65	0.660
457.86	0.662
458.06	0.661
458.26	0.656
458.47	0.656
458.67	0.658
458.87	0.657
459.07	0.655
459.28	0.657
459.48	0.660
459.68	0.660
459.89	0.660
460.09	0.658
460.29	0.660
460.49	0.661
460.70	0.659
460.90	0.659
461.10	0.660
461.31	0.659
461.51	0.656
461.71	0.658
461.91	0.660
462.12	0.660
462.32	0.658
462.52	0.659
462.72	0.662
462.93	0.663
463.13	0.661
463.33	0.662
463.53	0.664
463.74	0.663
463.94	0.659
464.14	0.659
464.35	0.660
464.55	0.661
464.75	0.658
464.95	0.655
465.16	0.658
465.36	0.657
465.56	0.656
465.76	0.655
465.97	0.656
466.17	0.656
466.37	0.654
466.57	0.655
466.78	0.656
466.98	0.655
467.18	0.653
467.38	0.652
467.59	0.653
467.79	0.654
467.99	0.653
468.19	0.654
468.39	0.657
468.60	0.658
468.80	0.656
469.00	0.658
469.20	0.660
469.41	0.660
469.61	0.659
469.81	0.660
470.01	0.659
470.22	0.660
470.42	0.658
470.62	0.655
470.82	0.657
471.02	0.656
471.23	0.654
471.43	0.654
471.63	0.657
471.83	0.657
472.04	0.655
472.24	0.654
472.44	0.659
472.64	0.659
472.84	0.658
473.05	0.657
473.25	0.660
473.45	0.659
473.65	0.657
473.85	0.657
474.06	0.658
474.26	0.658
474.46	0.659
474.66	0.656
474.86	0.657
475.07	0.657
475.27	0.655
475.47	0.652
475.67	0.653
475.87	0.655
476.08	0.651
476.28	0.653
476.48	0.654
476.68	0.652
476.88	0.650
477.09	0.651
477.29	0.653
477.49	0.653
477.69	0.652
477.89	0.652
478.09	0.651
478.30	0.654
478.50	0.651
478.70	0.650
478.90	0.651
479.10	0.654
479.31	0.655
479.51	0.653
479.71	0.654
479.91	0.654
480.11	0.653
480.31	0.653
480.52	0.652
480.72	0.651
480.92	0.650
481.12	0.648
481.32	0.646
481.52	0.644
481.72	0.644
481.93	0.647
482.13	0.648
482.33	0.647
482.53	0.646
482.73	0.647
482.93	0.648
483.14	0.647
483.34	0.646
483.54	0.647
483.74	0.646
483.94	0.645
484.14	0.641
484.34	0.641
484.55	0.641
484.75	0.641
484.95	0.639
485.15	0.639
485.35	0.639
485.55	0.638
485.75	0.636
485.96	0.637
486.16	0.639
486.36	0.639
486.56	0.637
486.76	0.637
486.96	0.638
487.16	0.637
487.36	0.635
487.57	0.635
487.77	0.636
487.97	0.637
488.17	0.635
488.37	0.634
488.57	0.635
488.77	0.635
488.97	0.634
489.18	0.633
489.38	0.636
489.58	0.636
489.78	0.636
489.98	0.635
490.18	0.635
490.38	0.636
490.58	0.634
490.78	0.634
490.98	0.636
491.19	0.636
491.39	0.635
491.59	0.634
491.79	0.636
491.99	0.637
492.19	0.637
492.39	0.640
492.59	0.640
492.79	0.642
492.99	0.642
493.20	0.642
493.40	0.642
493.60	0.644
493.80	0.642
494.00	0.640
494.20	0.640
494.40	0.640
494.60	0.638
494.80	0.642
495.00	0.641
495.20	0.640
495.40	0.638
495.61	0.640
495.81	0.640
496.01	0.644
496.21	0.645
496.41	0.644
496.61	0.645
496.81	0.644
497.01	0.638
497.21	0.638
497.41	0.639
497.61	0.639
497.81	0.636
498.01	0.636
498.21	0.634
498.41	0.632
498.61	0.632
498.82	0.634
499.02	0.636
499.22	0.636
499.42	0.636
499.62	0.637
499.82	0.637
500.02	0.639
500.22	0.638
500.42	0.639
500.62	0.640
500.82	0.640
501.02	0.638
501.22	0.638
501.42	0.638
501.62	0.640
501.82	0.639
502.02	0.639
502.22	0.638
502.42	0.640
502.62	0.637
502.82	0.637
503.02	0.638
503.22	0.638
503.42	0.636
503.63	0.636
503.83	0.635
504.03	0.634
504.23	0.632
504.43	0.633
504.63	0.634
504.83	0.634
505.03	0.633
505.23	0.635
505.43	0.637
505.63	0.638
505.83	0.638
506.03	0.639
506.23	0.641
506.43	0.642
506.63	0.641
506.83	0.639
507.03	0.641
507.23	0.641
507.43	0.638
507.63	0.638
507.83	0.639
508.03	0.639
508.23	0.638
508.43	0.637
508.63	0.638
508.83	0.639
509.03	0.639
509.23	0.639
509.43	0.641
509.63	0.641
509.83	0.639
510.03	0.642
510.23	0.643
510.43	0.644
510.63	0.645
510.83	0.645
511.03	0.647
511.23	0.644
511.43	0.644
511.63	0.645
511.83	0.647
512.03	0.647
512.22	0.643
512.42	0.643
512.62	0.645
512.82	0.644
513.02	0.643
513.22	0.643
513.42	0.644
513.62	0.647
513.82	0.644
514.02	0.644
514.22	0.646
514.42	0.646
514.62	0.646
514.82	0.646
515.02	0.648
515.22	0.651
515.42	0.650
515.62	0.653
515.82	0.652
516.02	0.654
516.22	0.654
516.42	0.655
516.62	0.657
516.82	0.658
517.01	0.656
517.21	0.655
517.41	0.659
517.61	0.658
517.81	0.654
518.01	0.654
518.21	0.654
518.41	0.652
518.61	0.651
518.81	0.651
519.01	0.652
519.21	0.652
519.41	0.651
519.61	0.646
519.81	0.649
520.00	0.650
520.20	0.650
520.40	0.653
520.60	0.654
520.80	0.653
521.00	0.653
521.20	0.654
521.40	0.660
521.60	0.660
521.80	0.659
522.00	0.659
522.20	0.661
522.39	0.661
522.59	0.657
522.79	0.659
522.99	0.661
523.19	0.659
523.39	0.657
523.59	0.655
523.79	0.658
523.99	0.661
524.19	0.660
524.38	0.658
524.58	0.660
524.78	0.661
524.98	0.659
525.18	0.661
525.38	0.662
525.58	0.663
525.78	0.660
525.98	0.658
526.18	0.658
526.37	0.657
526.57	0.659
526.77	0.659
526.97	0.660
527.17	0.659
527.37	0.655
527.57	0.658
527.77	0.660
527.96	0.660
528.16	0.659
528.36	0.660
528.56	0.662
528.76	0.660
528.96	0.659
529.16	0.660
529.36	0.664
529.55	0.663
529.75	0.659
529.95	0.659
530.15	0.661
530.35	0.664
530.55	0.661
530.75	0.661
530.94	0.663
531.14	0.664
531.34	0.662
531.54	0.659
531.74	0.664
531.94	0.667
532.13	0.665
532.33	0.666
532.53	0.664
532.73	0.664
532.93	0.662
533.13	0.663
533.33	0.663
533.52	0.663
533.72	0.666
533.92	0.663
534.12	0.662
534.32	0.663
534.52	0.661
534.71	0.663
534.91	0.666
535.11	0.668
535.31	0.666
535.51	0.668
535.71	0.670
535.90	0.667
536.10	0.669
536.30	0.671
536.50	0.671
536.70	0.672
536.89	0.670
537.09	0.669
537.29	0.671
537.49	0.671
537.69	0.669
537.89	0.670
538.08	0.670
538.28	0.668
538.48	0.668
538.68	0.670
538.88	0.671
539.07	0.671
539.27	0.669
539.47	0.668
539.67	0.668
539.87	0.670
540.06	0.668
540.26	0.668
540.46	0.671
540.66	0.668
540.86	0.665
541.05	0.666
541.25	0.667
541.45	0.667
541.65	0.666
541.84	0.669
542.04	0.669
542.24	0.670
542.44	0.669
542.64	0.671
542.83	0.674
543.03	0.674
543.23	0.671
543.43	0.672
543.62	0.674
543.82	0.674
544.02	0.672
544.22	0.672
544.42	0.676
544.61	0.676
544.81	0.672
545.01	0.670
545.21	0.673
545.40	0.674
545.60	0.671
545.80	0.675
546.00	0.675
546.19	0.674
546.39	0.673
546.59	0.670
546.79	0.672
546.98	0.672
547.18	0.672
547.38	0.673
547.58	0.675
547.77	0.675
547.97	0.671
548.17	0.673
548.37	0.674
548.56	0.674
548.76	0.673
548.96	0.675
549.16	0.678
549.35	0.678
549.55	0.675
549.75	0.675
549.95	0.680
550.14	0.680
550.34	0.677
550.54	0.682
550.73	0.687
550.93	0.688
551.13	0.684
551.33	0.682
551.52	0.682
551.72	0.683
551.92	0.681
552.12	0.681
552.31	0.682
552.51	0.682
552.71	0.677
552.90	0.676
553.10	0.677
553.30	0.677
553.50	0.677
553.69	0.679
553.89	0.680
554.09	0.680
554.28	0.677
554.48	0.678
554.68	0.681
554.87	0.681
555.07	0.678
555.27	0.678
555.47	0.681
555.66	0.681
555.86	0.678
556.06	0.680
556.25	0.682
556.45	0.689
556.65	0.688
556.84	0.691
557.04	0.694
557.24	0.695
557.43	0.695
557.63	0.697
557.83	0.699
558.02	0.700
558.22	0.704
558.42	0.704
558.61	0.697
558.81	0.697
559.01	0.693
559.21	0.693
559.40	0.694
559.60	0.694
559.80	0.691
559.99	0.692
560.19	0.694
560.39	0.688
560.58	0.686
560.78	0.687
560.97	0.690
561.17	0.689
561.37	0.687
561.56	0.688
561.76	0.690
561.96	0.689
562.15	0.686
562.35	0.689
562.55	0.690
562.74	0.690
562.94	0.688
563.14	0.687
563.33	0.688
563.53	0.687
563.73	0.684
563.92	0.686
564.12	0.689
564.31	0.691
564.51	0.688
564.71	0.691
564.90	0.694
565.10	0.694
565.30	0.696
565.49	0.697
565.69	0.700
565.89	0.700
566.08	0.697
566.28	0.698
566.47	0.699
566.67	0.697
566.87	0.694
567.06	0.696
567.26	0.702
567.46	0.697
567.65	0.696
567.85	0.697
568.04	0.701
568.24	0.700
568.44	0.698
568.63	0.697
568.83	0.698
569.02	0.697
569.22	0.692
569.42	0.688
569.61	0.691
569.81	0.690
570.00	0.687
570.20	0.688
570.40	0.690
570.59	0.690
570.79	0.687
570.98	0.685
571.18	0.686
571.38	0.686
571.57	0.683
571.77	0.680
571.96	0.683
572.16	0.681
572.35	0.675
572.55	0.676
572.75	0.675
572.94	0.675
573.14	0.673
573.33	0.673
573.53	0.674
573.73	0.673
573.92	0.671
574.12	0.669
574.31	0.672
574.51	0.673
574.70	0.670
574.90	0.672
575.09	0.674
575.29	0.674
575.49	0.671
575.68	0.672
575.88	0.674
576.07	0.675
576.27	0.674
576.46	0.672
576.66	0.671
576.86	0.670
577.05	0.668
577.25	0.666
577.44	0.668
577.64	0.668
577.83	0.666
578.03	0.667
578.22	0.666
578.42	0.665
578.61	0.664
578.81	0.665
579.00	0.665
579.20	0.665
579.40	0.664
579.59	0.663
579.79	0.663
579.98	0.662
580.18	0.661
580.37	0.662
580.57	0.664
580.76	0.668
580.96	0.667
581.15	0.668
581.35	0.669
581.54	0.669
581.74	0.669
581.93	0.670
582.13	0.672
582.32	0.669
582.52	0.667
582.71	0.667
582.91	0.663
583.10	0.663
583.30	0.661
583.49	0.661
583.69	0.665
583.88	0.666
584.08	0.665
584.27	0.666
584.47	0.670
584.66	0.671
584.86	0.670
585.05	0.672
585.25	0.674
585.44	0.674
585.64	0.672
585.83	0.669
586.03	0.670
586.22	0.668
586.42	0.664
586.61	0.666
586.81	0.669
587.00	0.669
587.20	0.666
587.39	0.667
587.59	0.669
587.78	0.670
587.98	0.671
588.17	0.671
588.37	0.674
588.56	0.676
588.76	0.671
588.95	0.671
589.15	0.675
589.34	0.678
589.54	0.676
589.73	0.677
589.92	0.680
590.12	0.680
590.31	0.678
590.51	0.683
590.70	0.684
590.90	0.685
591.09	0.682
591.29	0.680
591.48	0.681
591.68	0.681
591.87	0.679
592.06	0.679
592.26	0.682
592.45	0.681
592.65	0.675
592.84	0.675
593.04	0.678
593.23	0.680
593.43	0.677
593.62	0.676
593.81	0.677
594.01	0.677
594.20	0.674
594.40	0.673
594.59	0.675
594.79	0.676
594.98	0.673
595.17	0.673
595.37	0.674
595.56	0.676
595.76	0.675
595.95	0.677
596.14	0.680
596.34	0.682
596.53	0.680
596.73	0.681
596.92	0.682
597.12	0.685
597.31	0.685
597.50	0.684
597.70	0.686
597.89	0.686
598.09	0.682
598.28	0.682
598.47	0.685
598.67	0.683
598.86	0.680
599.06	0.682
599.25	0.682
599.44	0.680
599.64	0.677
599.83	0.675
600.03	0.678
600.22	0.679
600.41	0.679
600.61	0.677
600.80	0.680
601.00	0.681
601.19	0.676
601.38	0.674
601.58	0.678
601.77	0.679
601.96	0.681
602.16	0.681
602.35	0.690
602.55	0.688
602.74	0.688
602.93	0.690
603.13	0.695
603.32	0.697
603.51	0.697
603.71	0.700
603.90	0.701
604.09	0.702
604.29	0.699
604.48	0.694
604.68	0.695
604.87	0.694
605.06	0.690
605.26	0.687
605.45	0.688
605.64	0.687
605.84	0.682
606.03	0.681
606.22	0.680
606.42	0.679
606.61	0.675
606.80	0.675
607.00	0.677
607.19	0.678
607.38	0.676
607.58	0.677
607.77	0.680
607.96	0.681
608.16	0.679
608.35	0.684
608.54	0.687
608.74	0.691
608.93	0.695
609.12	0.698
609.32	0.699
609.51	0.703
609.70	0.701
609.90	0.704
610.09	0.708
610.28	0.714
610.48	0.707
610.67	0.708
610.86	0.709
611.06	0.703
611.25	0.701
611.44	0.702
611.64	0.701
611.83	0.704
612.02	0.699
612.21	0.698
612.41	0.696
612.60	0.695
612.79	0.691
612.99	0.692
613.18	0.694
613.37	0.692
613.57	0.689
613.76	0.692
613.95	0.690
614.14	0.690
614.34	0.687
614.53	0.688
614.72	0.691
614.92	0.691
615.11	0.687
615.30	0.684
615.49	0.685
615.69	0.688
615.88	0.683
616.07	0.685
616.26	0.688
616.46	0.689
616.65	0.686
616.84	0.685
617.04	0.687
617.23	0.690
617.42	0.691
617.61	0.695
617.81	0.696
618.00	0.698
618.19	0.696
618.38	0.699
618.58	0.703
618.77	0.704
618.96	0.704
619.15	0.706
619.35	0.709
619.54	0.709
619.73	0.704
619.92	0.707
620.12	0.712
620.31	0.712
620.50	0.706
620.69	0.707
620.89	0.710
621.08	0.710
621.27	0.709
621.46	0.707
621.66	0.712
621.85	0.711
622.04	0.707
622.23	0.708
622.43	0.709
622.62	0.709
622.81	0.708
623.00	0.707
623.19	0.712
623.39	0.711
623.58	0.708
623.77	0.706
623.96	0.709
624.16	0.709
624.35	0.702
624.54	0.706
624.73	0.711
624.92	0.708
625.12	0.706
625.31	0.705
625.50	0.708
625.69	0.710
625.88	0.706
626.08	0.706
626.27	0.708
626.46	0.708
626.65	0.705
626.84	0.705
627.04	0.710
627.23	0.711
627.42	0.706
627.61	0.708
627.80	0.711
628.00	0.711
628.19	0.709
628.38	0.713
628.57	0.717
628.76	0.716
628.96	0.711
629.15	0.712
629.34	0.715
629.53	0.715
629.72	0.709
629.91	0.710
630.11	0.715
630.30	0.716
630.49	0.718
630.68	0.717
630.87	0.722
631.06	0.725
631.26	0.720
631.45	0.721
631.64	0.730
631.83	0.733
632.02	0.729
632.21	0.729
632.41	0.736
632.60	0.731
632.79	0.728
632.98	0.728
633.17	0.729
633.36	0.730
633.55	0.727
633.75	0.724
633.94	0.726
634.13	0.727
634.32	0.724
634.51	0.718
634.70	0.721
634.89	0.722
635.09	0.717
635.28	0.718
635.47	0.720
635.66	0.722
635.85	0.716
636.04	0.718
636.23	0.724
636.43	0.724
636.62	0.723
636.81	0.722
637.00	0.725
637.19	0.729
637.38	0.725
637.57	0.724
637.76	0.727
637.95	0.728
638.15	0.724
638.34	0.720
638.53	0.723
638.72	0.725
638.91	0.723
639.10	0.721
639.29	0.721
639.48	0.722
639.67	0.721
639.87	0.720
640.06	0.726
640.25	0.725
640.44	0.725
640.63	0.727
640.82	0.729
641.01	0.729
641.20	0.728
641.39	0.729
641.58	0.732
641.78	0.731
641.97	0.726
642.16	0.740
642.35	0.742
642.54	0.741
642.73	0.734
642.92	0.732
643.11	0.736
643.30	0.736
643.49	0.731
643.68	0.734
643.87	0.735
644.06	0.735
644.25	0.715
644.45	0.717
644.64	0.719
644.83	0.721
645.02	0.716
645.21	0.715
645.40	0.717
645.59	0.718
645.78	0.712
645.97	0.714
646.16	0.716
646.35	0.715
646.54	0.713
646.73	0.714
646.92	0.715
647.11	0.715
647.30	0.711
647.49	0.712
647.68	0.711
647.88	0.709
648.07	0.702
648.26	0.705
648.45	0.707
648.64	0.704
648.83	0.701
649.02	0.703
649.21	0.714
649.40	0.714
649.59	0.708
649.78	0.709
649.97	0.725
650.16	0.724
650.35	0.717
650.54	0.721
650.73	0.729
650.92	0.725
651.11	0.718
651.30	0.715
651.49	0.720
651.68	0.721
651.87	0.717
652.06	0.706
652.25	0.709
652.44	0.712
652.63	0.708
652.82	0.708
653.01	0.708
653.20	0.705
653.39	0.693
653.58	0.690
653.77	0.689
653.96	0.684
654.15	0.676
654.34	0.674
654.53	0.670
654.72	0.664
654.91	0.655
655.10	0.651
655.29	0.649
655.48	0.647
655.67	0.642
655.86	0.639
656.05	0.638
656.24	0.638
656.43	0.633
656.62	0.632
656.81	0.633
657.00	0.631
657.19	0.628
657.38	0.629
657.57	0.629
657.76	0.631
657.95	0.629
658.14	0.633
658.33	0.635
658.51	0.641
658.70	0.642
658.89	0.643
659.08	0.653
659.27	0.660
659.46	0.660
659.65	0.667
659.84	0.671
660.03	0.674
660.22	0.675
660.41	0.679
660.60	0.679
660.79	0.680
660.98	0.685
661.17	0.685
661.36	0.684
661.55	0.685
661.74	0.681
661.92	0.684
662.11	0.687
662.30	0.684
662.49	0.678
662.68	0.677
662.87	0.681
663.06	0.676
663.25	0.675
663.44	0.676
663.63	0.677
663.82	0.675
664.01	0.670
664.20	0.669
664.38	0.671
664.57	0.672
664.76	0.671
664.95	0.672
665.14	0.677
665.33	0.672
665.52	0.679
665.71	0.683
665.90	0.683
666.09	0.684
666.28	0.681
666.46	0.682
666.65	0.682
666.84	0.680
667.03	0.674
667.22	0.672
667.41	0.675
667.60	0.665
667.79	0.657
667.98	0.659
668.16	0.660
668.35	0.660
668.54	0.654
668.73	0.655
668.92	0.656
669.11	0.655
669.30	0.648
669.49	0.645
669.67	0.648
669.86	0.650
670.05	0.646
670.24	0.644
670.43	0.642
670.62	0.641
670.81	0.635
671.00	0.636
671.18	0.636
671.37	0.636
671.56	0.633
671.75	0.632
671.94	0.629
672.13	0.628
672.32	0.623
672.50	0.623
672.69	0.623
672.88	0.624
673.07	0.619
673.26	0.622
673.45	0.623
673.63	0.622
673.82	0.618
674.01	0.620
674.20	0.619
674.39	0.619
674.58	0.617
674.76	0.617
674.95	0.616
675.14	0.616
675.33	0.611
675.52	0.610
675.71	0.610
675.89	0.610
676.08	0.605
676.27	0.605
676.46	0.606
676.65	0.606
676.84	0.605
677.02	0.607
677.21	0.609
677.40	0.609
677.59	0.606
677.78	0.607
677.96	0.609
678.15	0.608
678.34	0.606
678.53	0.607
678.72	0.607
678.90	0.604
679.09	0.599
679.28	0.596
679.47	0.596
679.66	0.595
679.84	0.591
680.03	0.589
680.22	0.588
680.41	0.591
680.60	0.586
680.78	0.586
680.97	0.588
681.16	0.588
681.35	0.587
681.53	0.586
681.72	0.587
681.91	0.589
682.10	0.587
682.29	0.590
682.47	0.587
682.66	0.587
682.85	0.585
683.04	0.583
683.22	0.583
683.41	0.585
683.60	0.584
683.79	0.585
683.97	0.585
684.16	0.583
684.35	0.579
684.54	0.580
684.72	0.581
684.91	0.582
685.10	0.580
685.29	0.581
685.47	0.579
685.66	0.577
685.85	0.574
686.04	0.573
686.22	0.576
686.41	0.578
686.60	0.575
686.79	0.578
686.97	0.579
687.16	0.581
687.35	0.577
687.54	0.582
687.72	0.586
687.91	0.586
688.10	0.587
688.29	0.586
688.47	0.585
688.66	0.585
688.85	0.581
689.03	0.579
689.22	0.583
689.41	0.584
689.60	0.578
689.78	0.575
689.97	0.576
690.16	0.574
690.34	0.570
690.53	0.570
690.72	0.571
690.91	0.569
691.09	0.567
691.28	0.561
691.47	0.559
691.65	0.558
691.84	0.555
692.03	0.554
692.21	0.551
692.40	0.552
692.59	0.549
692.77	0.548
692.96	0.550
693.15	0.551
693.34	0.548
693.52	0.548
693.71	0.549
693.90	0.550
694.08	0.551
694.27	0.552
694.46	0.562
694.64	0.562
694.83	0.561
695.02	0.560
695.20	0.559
695.39	0.559
695.58	0.559
695.76	0.560
695.95	0.559
696.14	0.559
696.32	0.556
696.51	0.547
696.70	0.547
696.88	0.548
697.07	0.546
697.26	0.547
697.44	0.548
697.63	0.547
697.81	0.545
698.00	0.544
698.19	0.544
698.37	0.543
698.56	0.543
698.75	0.542
698.93	0.543
699.12	0.542
699.31	0.541
699.49	0.541
699.68	0.542
699.87	0.545
700.05	0.545
700.24	0.544
700.42	0.546
700.61	0.545
700.80	0.543
700.98	0.543
701.17	0.545
701.36	0.544
701.54	0.543
701.73	0.544
701.91	0.543
702.10	0.542
702.29	0.540
702.47	0.539
702.66	0.540
702.84	0.541
703.03	0.539
703.22	0.540
703.40	0.540
703.59	0.541
703.77	0.540
703.96	0.540
704.15	0.541
704.33	0.541
704.52	0.540
704.70	0.539
704.89	0.539
705.08	0.538
705.26	0.534
705.45	0.535
705.63	0.534
705.82	0.531
706.00	0.530
706.19	0.529
706.38	0.529
706.56	0.528
706.75	0.526
706.93	0.525
707.12	0.526
707.30	0.527
707.49	0.524
707.68	0.522
707.86	0.522
708.05	0.521
708.23	0.519
708.42	0.520
708.60	0.522
708.79	0.522
708.98	0.521
709.16	0.520
709.35	0.522
709.53	0.526
709.72	0.525
709.90	0.527
710.09	0.530
710.27	0.532
710.46	0.536
710.64	0.534
710.83	0.537
711.02	0.538
711.20	0.537
711.39	0.535
711.57	0.533
711.76	0.534
711.94	0.531
712.13	0.532
712.31	0.532
712.50	0.526
712.68	0.524
712.87	0.524
713.05	0.525
713.24	0.525
713.42	0.524
713.61	0.525
713.79	0.526
713.98	0.526
714.16	0.527
714.35	0.526
714.54	0.528
714.72	0.528
714.91	0.525
715.09	0.531
715.28	0.534
715.46	0.534
715.65	0.531
715.83	0.531
716.02	0.533
716.20	0.530
716.39	0.529
716.57	0.531
716.76	0.534
716.94	0.534
717.12	0.526
717.31	0.527
717.49	0.531
717.68	0.533
717.86	0.532
718.05	0.534
718.23	0.536
718.42	0.539
718.60	0.540
718.79	0.547
718.97	0.550
719.16	0.550
719.34	0.548
719.53	0.547
719.71	0.547
719.90	0.549
720.08	0.546
720.27	0.547
720.45	0.547
720.63	0.545
720.82	0.539
721.00	0.541
721.19	0.545
721.37	0.545
721.56	0.545
721.74	0.549
721.93	0.558
722.11	0.566
722.30	0.565
722.48	0.569
722.66	0.571
722.85	0.572
723.03	0.572
723.22	0.570
723.40	0.573
723.59	0.573
723.77	0.577
723.95	0.570
724.14	0.571
724.32	0.573
724.51	0.572
724.69	0.572
724.88	0.573
725.06	0.571
725.24	0.572
725.43	0.574
725.61	0.576
725.80	0.569
725.98	0.567
726.16	0.563
726.35	0.569
726.53	0.568
726.72	0.567
726.90	0.577
727.09	0.580
727.27	0.585
727.45	0.581
727.64	0.591
727.82	0.601
728.01	0.605
728.19	0.603
728.37	0.607
728.56	0.612
728.74	0.618
728.92	0.606
729.11	0.609
729.29	0.609
729.48	0.612
729.66	0.601
729.84	0.601
730.03	0.604
730.21	0.606
730.40	0.597
730.58	0.600
730.76	0.600
730.95	0.603
731.13	0.602
731.31	0.616
731.50	0.626
731.68	0.628
731.86	0.621
732.05	0.637
732.23	0.642
732.42	0.645
732.60	0.648
732.78	0.655
732.97	0.675
733.15	0.682
733.33	0.669
733.52	0.676
733.70	0.689
733.88	0.702
734.07	0.687
734.25	0.715
734.43	0.723
734.62	0.726
734.80	0.718
734.98	0.708
735.17	0.716
735.35	0.724
735.53	0.712
735.72	0.713
735.90	0.735
736.08	0.756
736.27	0.730
736.45	0.743
736.63	0.756
736.82	0.770
737.00	0.768
737.18	0.783
737.37	0.815
737.55	0.838
737.73	0.834
737.92	0.837
738.10	0.835
738.28	0.857
738.46	0.843
738.65	0.859
738.83	0.886
739.01	0.951
739.20	0.935
739.38	0.919
739.56	0.911
739.75	0.919
739.93	0.881
740.11	0.908
740.29	0.909
740.48	0.918
740.66	0.892
740.84	0.883
741.03	0.842
741.21	0.854
741.39	0.832
741.57	0.848
741.76	0.865
741.94	0.871
742.12	0.833
742.31	0.839
742.49	0.864
742.67	0.890
742.85	0.904
743.04	0.908
743.22	0.922
743.40	0.985
743.58	0.965
743.77	0.988
743.95	1.029
744.13	1.091
744.31	1.064
744.50	1.050
744.68	1.057
744.86	1.022
745.04	1.036
745.23	1.118
745.41	1.091
745.59	1.099
745.77	1.049
745.96	1.034
746.14	1.047
746.32	1.046
746.50	1.036
746.69	1.016
746.87	1.038
747.05	1.020
747.23	0.933
747.42	0.923
747.60	0.952
747.78	0.960
747.96	0.996
748.14	0.947
748.33	0.983
748.51	0.977
748.69	0.967
748.87	0.999
749.06	1.006
749.24	1.000
749.42	0.971
749.60	0.955
749.78	0.965
749.97	0.913
750.15	0.901
750.33	0.903
750.51	0.934
750.69	0.938
750.88	0.939
751.06	0.945
751.24	0.982
751.42	0.975
751.60	0.960
751.79	1.044
751.97	1.103
752.15	1.107
752.33	1.065
752.51	1.148
752.69	1.171
752.88	1.130
753.06	1.189
753.24	1.147
753.42	1.199
753.60	1.443
753.78	1.235
753.97	1.254
754.15	1.281
754.33	1.320
754.51	1.140
754.69	1.124
754.87	1.164
755.06	1.069
755.24	1.068
755.42	1.076
755.60	0.961
755.78	0.969
755.96	0.911
756.15	0.910
756.33	0.916
756.51	0.937
756.69	0.920
756.87	0.882
757.05	0.907
757.23	0.888
757.42	0.852
757.60	0.853
757.78	0.839
757.96	0.835
758.14	0.818
758.32	0.803
758.50	0.818
758.69	0.813
758.87	0.803
759.05	0.805
759.23	0.817
759.41	0.815
759.59	0.805
759.77	0.830
759.95	0.858
760.13	0.911
760.32	0.904
760.50	0.897
760.68	0.927
760.86	0.929
761.04	0.897
761.22	0.902
761.40	0.958
761.58	0.961
761.76	0.926
761.95	0.907
762.13	0.860
762.31	0.860
762.49	0.824
762.67	0.843
762.85	0.859
763.03	0.853
763.21	0.831
763.39	0.809
763.57	0.813
763.75	0.810
763.94	0.791
764.12	0.792
764.30	0.819
764.48	0.823
764.66	0.783
764.84	0.782
765.02	0.824
765.20	0.832
765.38	0.812
765.56	0.817
765.74	0.864
765.92	0.865
766.10	0.873
766.28	0.866
766.46	0.897
766.65	0.900
766.83	0.881
767.01	0.859
767.19	0.865
767.37	0.864
767.55	0.848
767.73	0.826
767.91	0.831
768.09	0.819
768.27	0.805
768.45	0.795
768.63	0.800
768.81	0.805
768.99	0.779
769.17	0.806
769.35	0.822
769.53	0.821
769.71	0.797
769.89	0.808
770.07	0.815
770.25	0.797
770.43	0.773
770.61	0.800
770.79	0.805
770.97	0.817
771.15	0.782
771.33	0.784
771.51	0.787
771.69	0.797
771.87	0.803
772.05	0.810
772.24	0.823
772.42	0.834
772.60	0.808
772.78	0.875
772.96	0.907
773.14	0.905
773.32	0.880
773.49	0.887
773.67	0.890
773.85	0.864
774.03	0.849
774.21	0.884
774.39	0.901
774.57	0.928
774.75	0.844
774.93	0.841
775.11	0.867
775.29	0.876
775.47	0.877
775.65	0.885
775.83	0.910
776.01	0.932
776.19	0.874
776.37	0.873
776.55	0.872
776.73	0.868
776.91	0.862
777.09	0.841
777.27	0.841
777.45	0.828
777.63	0.804
777.81	0.798
777.99	0.787
778.17	0.785
778.35	0.762
778.53	0.751
778.71	0.760
778.89	0.745
779.07	0.734
779.24	0.742
779.42	0.745
779.60	0.764
779.78	0.760
779.96	0.765
780.14	0.777
780.32	0.797
780.50	0.777
780.68	0.774
780.86	0.767
781.04	0.784
781.22	0.785
781.40	0.794
781.58	0.784
781.75	0.776
781.93	0.757
782.11	0.756
782.29	0.743
782.47	0.743
782.65	0.729
782.83	0.759
783.01	0.754
783.19	0.745
783.37	0.731
783.55	0.736
783.72	0.757
783.90	0.769
784.08	0.759
784.26	0.771
784.44	0.792
784.62	0.795
784.80	0.758
784.98	0.762
785.16	0.773
785.33	0.787
785.51	0.769
785.69	0.754
785.87	0.754
786.05	0.765
786.23	0.760
786.41	0.760
786.59	0.770
786.77	0.770
786.94	0.757
787.12	0.759
787.30	0.761
787.48	0.756
787.66	0.744
787.84	0.744
788.02	0.735
788.19	0.731
788.37	0.713
788.55	0.713
788.73	0.714
788.91	0.708
789.09	0.688
789.27	0.676
789.44	0.691
789.62	0.695
789.80	0.702
789.98	0.727
790.16	0.715
790.34	0.711
790.51	0.698
790.69	0.717
790.87	0.724
791.05	0.721
791.23	0.715
791.41	0.716
791.58	0.727
791.76	0.705
791.94	0.673
792.12	0.682
792.30	0.686
792.48	0.683
792.65	0.675
792.83	0.684
793.01	0.692
793.19	0.689
793.37	0.672
793.54	0.667
793.72	0.680
793.90	0.679
794.08	0.668
794.26	0.669
794.43	0.680
794.61	0.663
794.79	0.650
794.97	0.649
795.15	0.655
795.32	0.661
795.50	0.649
795.68	0.644
795.86	0.648
796.04	0.652
796.21	0.644
796.39	0.641
796.57	0.658
796.75	0.667
796.92	0.667
797.10	0.674
797.28	0.675
797.46	0.678
797.64	0.679
797.81	0.687
797.99	0.692
798.17	0.698
798.35	0.692
798.52	0.696
798.70	0.689
798.88	0.699
799.06	0.698
799.23	0.701
799.41	0.713
799.59	0.705
799.77	0.692
799.94	0.699
800.12	0.709
800.30	0.727
800.48	0.722
800.65	0.726
800.83	0.716
801.01	0.707
801.19	0.705
801.36	0.701
801.54	0.707
801.72	0.716
801.90	0.701
802.07	0.695
802.25	0.679
802.43	0.663
802.60	0.657
802.78	0.665
802.96	0.673
803.14	0.666
803.31	0.662
803.49	0.662
803.67	0.660
803.84	0.664
804.02	0.655
804.20	0.659
804.38	0.664
804.55	0.661
804.73	0.645
804.91	0.644
805.08	0.657
805.26	0.652
805.44	0.721
805.61	0.725
805.79	0.726
805.97	0.724
806.15	0.714
806.32	0.710
806.50	0.719
806.68	0.720
806.85	0.708
807.03	0.696
807.21	0.714
807.38	0.644
807.56	0.632
807.74	0.642
807.91	0.651
808.09	0.654
808.27	0.673
808.44	0.700
808.62	0.710
808.80	0.715
808.97	0.710
809.15	0.705
809.33	0.723
809.50	0.729
809.68	0.713
809.86	0.722
810.03	0.755
810.21	0.732
810.39	0.713
810.56	0.719
810.74	0.744
810.91	0.826
811.09	0.813
811.27	0.835
811.44	0.842
811.62	0.847
811.80	0.827
811.97	0.796
812.15	0.795
812.33	0.789
812.50	0.771
812.68	0.760
812.85	0.697
813.03	0.700
813.21	0.669
813.38	0.663
813.56	0.666
813.74	0.677
813.91	0.685
814.09	0.719
814.26	0.713
814.44	0.718
814.62	0.705
814.79	0.711
814.97	0.716
815.14	0.721
815.32	0.725
815.50	0.744
815.67	0.747
815.85	0.736
816.02	0.723
816.20	0.731
816.38	0.750
816.55	0.756
816.73	0.751
816.90	0.765
817.08	0.798
817.26	0.804
817.43	0.779
817.61	0.804
817.78	0.829
817.96	0.803
818.13	0.791
818.31	0.792
818.49	0.807
818.66	0.796
818.84	0.781
819.01	0.756
819.19	0.765
819.36	0.769
819.54	0.738
819.71	0.783
819.89	0.804
820.07	0.819
820.24	0.809
820.42	0.812
820.59	0.841
820.77	0.867
820.94	0.854
821.12	0.874
821.29	0.891
821.47	0.897
821.64	0.824
821.82	0.837
822.00	0.834
822.17	0.829
822.35	0.822
822.52	0.821
822.70	0.808
822.87	0.821
823.05	0.797
823.22	0.810
823.40	0.839
823.57	0.865
823.75	0.843
823.92	0.878
824.10	0.905
824.27	0.952
824.45	0.938
824.62	1.018
824.80	1.045
824.97	1.064
825.15	1.055
825.32	1.074
825.50	1.080
825.67	1.093
825.85	1.063
826.02	1.090
826.20	1.126
826.37	1.329
826.55	1.202
826.72	1.553
826.90	1.786
827.07	1.997
827.25	1.776
827.42	-0.000
827.60	-0.000
827.77	-0.000
827.95	-0.000
828.12	-0.000
828.30	-0.000
828.47	-0.000
828.65	1.869
828.82	2.335
829.00	-0.000
829.17	-0.000
829.34	-0.000
829.52	-0.000
829.69	-0.000
829.87	-0.000
830.04	-0.000
830.22	-0.000
830.39	-0.000
830.57	-0.000
830.74	-0.000
830.92	-0.000
831.09	-0.000
831.26	-0.000
831.44	-0.000
831.61	-0.000
831.79	-0.000
831.96	-0.000
832.14	-0.000
832.31	-0.000
832.49	-0.000
832.66	-0.000
832.83	-0.000
833.01	-0.000
833.18	-0.000
833.36	-0.000
833.53	-0.000
833.70	-0.000
833.88	-0.000
834.05	-0.000
834.23	-0.000
834.40	-0.000
834.58	-0.000
834.75	-0.000
834.92	-0.000
835.10	-0.000
835.27	-0.000
835.45	-0.000
835.62	-0.000
835.79	-0.000
835.97	-0.000
836.14	-0.000
836.32	-0.000
836.49	-0.000
836.66	-0.000
836.84	-0.000
837.01	-0.000
837.18	-0.000
837.36	-0.000
837.53	-0.000
837.71	-0.000
837.88	-0.000
838.05	-0.000
838.23	-0.000
838.40	-0.000
838.58	-0.000
838.75	-0.000
838.92	-0.000
839.10	-0.000
839.27	-0.000
839.44	-0.000
839.62	-0.000
839.79	-0.000
839.96	-0.000
840.14	-0.000
840.31	-0.000
840.48	-0.000
840.66	-0.000
840.83	-0.000
841.01	-0.000
841.18	-0.000
841.35	-0.000
841.53	-0.000
841.70	-0.000
841.87	-0.000
842.05	-0.000
842.22	-0.000
842.39	-0.000
842.57	-0.000
842.74	-0.000
842.91	-0.000
843.09	-0.000
843.26	-0.000
843.43	-0.000
843.60	-0.000
843.78	-0.000
843.95	-0.000
844.12	-0.000
844.30	-0.000
844.47	-0.000
844.64	-0.000
844.82	-0.000
844.99	-0.000
845.16	-0.000
845.34	-0.000
845.51	-0.000
845.68	-0.000
845.85	-0.000
846.03	-0.000
846.20	-0.000
846.37	-0.000
846.55	-0.000
846.72	-0.000
846.89	-0.000
847.06	-0.000
847.24	-0.000
847.41	-0.000
847.58	-0.000
847.76	-0.000
847.93	-0.000
848.10	-0.000
848.27	-0.000
848.45	-0.000
848.62	-0.000
848.79	-0.000
848.97	-0.000
849.14	-0.000
849.31	-0.000
849.48	-0.000
849.66	-0.000
849.83	-0.000
850.00	-0.000
850.17	-0.000
850.35	-0.000
850.52	-0.000
850.69	-0.000
850.86	-0.000
851.04	-0.000
851.21	-0.000
851.38	-0.000
851.55	-0.000
851.72	-0.000
851.90	-0.000
852.07	-0.000
852.24	-0.000
852.41	-0.000
852.59	-0.000
852.76	-0.000
852.93	-0.000
853.10	-0.000
853.28	-0.000
853.45	-0.000
853.62	-0.000
853.79	-0.000
853.96	-0.000
854.14	-0.000
854.31	-0.000
854.48	-0.000
854.65	-0.000
854.82	-0.000
855.00	-0.000
855.17	-0.000
855.34	-0.000
855.51	-0.000
855.68	-0.000
855.86	-0.000
856.03	-0.000
856.20	-0.000
856.37	-0.000
856.54	-0.000
856.72	-0.000
856.89	-0.000
857.06	-0.000
857.23	-0.000
857.40	-0.000
857.57	-0.000
857.75	-0.000
857.92	-0.000
858.09	-0.000
858.26	-0.000
858.43	-0.000
858.60	-0.000
858.78	-0.000
858.95	-0.000
859.12	-0.000
859.29	-0.000
859.46	-0.000
859.63	-0.000
859.81	-0.000
859.98	-0.000
860.15	-0.000
860.32	-0.000
860.49	-0.000
860.66	-0.000
860.83	-0.000
861.01	-0.000
861.18	-0.000
861.35	-0.000
861.52	-0.000
861.69	-0.000
861.86	-0.000
862.03	-0.000
862.21	-0.000
862.38	-0.000
862.55	-0.000
862.72	-0.000
862.89	-0.000
863.06	-0.000
863.23	-0.000
863.40	-0.000
863.58	-0.000
863.75	-0.000
863.92	-0.000
864.09	-0.000
864.26	-0.000
864.43	-0.000
864.60	-0.000
864.77	-0.000
864.94	-0.000
865.11	-0.000
865.29	-0.000
865.46	-0.000
865.63	-0.000
865.80	-0.000
865.97	-0.000
866.14	-0.000
866.31	-0.000
866.48	-0.000
866.65	-0.000
866.82	-0.000
866.99	-0.000
867.16	-0.000
867.34	-0.000
867.51	-0.000
867.68	-0.000
867.85	-0.000
868.02	-0.000
868.19	-0.000
868.36	-0.000
868.53	-0.000
868.70	-0.000
868.87	-0.000
869.04	-0.000
869.21	-0.000
869.38	-0.000
869.55	-0.000
869.72	-0.000
869.89	-0.000
870.06	-0.000
870.24	-0.000
870.41	-0.000
870.58	-0.000
870.75	-0.000
870.92	-0.000
871.09	-0.000
871.26	-0.000
871.43	-0.000
871.60	-0.000
871.77	-0.000
871.94	-0.000
872.11	-0.000
872.28	-0.000
872.45	-0.000
872.62	-0.000
872.79	-0.000
872.96	-0.000
873.13	-0.000
873.30	-0.000
873.47	-0.000
873.64	-0.000
873.81	-0.000
873.98	-0.000
874.15	-0.000
874.32	-0.000
874.49	-0.000
874.66	-0.000
874.83	-0.000
875.00	-0.000
875.17	-0.000
875.34	-0.000
875.51	-0.000
875.68	-0.000
875.85	-0.000
876.02	-0.000
876.19	-0.000
876.36	-0.000
876.53	-0.000
876.70	-0.000
876.87	-0.000
877.04	-0.000
877.21	-0.000
877.38	-0.000
877.55	-0.000
877.72	-0.000
877.89	-0.000
878.06	-0.000
878.23	-0.000
878.39	-0.000
878.56	-0.000
878.73	-0.000
878.90	-0.000
879.07	-0.000
879.24	-0.000
879.41	-0.000
879.58	-0.000
879.75	-0.000
879.92	-0.000
880.09	-0.000
880.26	-0.000
880.43	-0.000
880.60	-0.000
880.77	-0.000
880.94	-0.000
881.11	-0.000
881.27	-0.000
881.44	-0.000
881.61	-0.000
881.78	-0.000
881.95	-0.000
882.12	-0.000
882.29	-0.000
882.46	-0.000
882.63	-0.000
882.80	-0.000
882.97	-0.000
883.14	-0.000
883.30	-0.000
883.47	-0.000
883.64	-0.000
883.81	-0.000
883.98	-0.000
884.15	-0.000
884.32	-0.000
884.49	-0.000
884.66	-0.000
884.82	-0.000
884.99	-0.000
885.16	-0.000
885.33	-0.000
885.50	-0.000
885.67	-0.000
885.84	-0.000
886.01	-0.000
886.17	-0.000
886.34	-0.000
886.51	-0.000
886.68	-0.000
886.85	-0.000
887.02	-0.000
887.19	-0.000
887.36	-0.000
887.52	-0.000
887.69	-0.000
887.86	-0.000
888.03	-0.000
888.20	-0.000
888.37	-0.000
888.54	-0.000
888.70	-0.000
888.87	-0.000
889.04	-0.000
889.21	-0.000
889.38	-0.000
889.55	-0.000
889.71	-0.000
889.88	-0.000
890.05	-0.000
890.22	-0.000
890.39	-0.000
>>>>>End Processed Spectral Data<<<<<
