SpectraSuite Data File
++++++++++++++++++++++++++++++++++++
Date: Fri Jun 19 14:02:58 CEST 2015
User: introlabs
Dark Spectrum Present: Yes
Reference Spectrum Present: Yes
Number of Sampled Component Spectra: 1
Spectrometers: USB4H08886
Integration Time (usec): 745692 (USB4H08886)
Spectra Averaged: 5 (USB4H08886)
Boxcar Smoothing: 5 (USB4H08886)
Correct for Electrical Dark: Yes (USB4H08886)
Strobe/Lamp Enabled: No (USB4H08886)
Correct for Detector Non-linearity: Yes (USB4H08886)
Correct for Stray Light: Yes (USB4H08886)
Number of Pixels in Processed Spectrum: 3648
>>>>>Begin Processed Spectral Data<<<<<
178.14	-0.000
178.36	-0.000
178.57	-0.000
178.79	-0.000
179.01	-0.000
179.22	-0.000
179.44	-0.000
179.65	-0.000
179.87	-0.000
180.08	-0.000
180.30	-0.000
180.52	-0.000
180.73	-0.000
180.95	-0.000
181.16	-0.000
181.38	-0.000
181.59	-0.000
181.81	-0.000
182.03	-0.000
182.24	-0.000
182.46	-0.000
182.67	-0.000
182.89	-0.000
183.10	-0.000
183.32	-0.000
183.54	-0.000
183.75	-0.000
183.97	-0.000
184.18	-0.000
184.40	-0.000
184.61	-0.000
184.83	-0.000
185.04	-0.000
185.26	-0.000
185.48	-0.000
185.69	-0.000
185.91	-0.000
186.12	-0.000
186.34	-0.000
186.55	-0.000
186.77	-0.000
186.98	-0.000
187.20	-0.000
187.42	-0.000
187.63	-0.000
187.85	-0.000
188.06	-0.000
188.28	-0.000
188.49	-0.000
188.71	-0.000
188.92	-0.000
189.14	-0.000
189.36	-0.000
189.57	-0.000
189.79	-0.000
190.00	-0.000
190.22	-0.000
190.43	-0.000
190.65	-0.000
190.86	-0.000
191.08	-0.000
191.29	-0.000
191.51	-0.000
191.72	-0.000
191.94	-0.000
192.16	-0.000
192.37	-0.000
192.59	-0.000
192.80	-0.000
193.02	-0.000
193.23	-0.000
193.45	-0.000
193.66	-0.000
193.88	-0.000
194.09	-0.000
194.31	-0.000
194.52	-0.000
194.74	-0.000
194.95	-0.000
195.17	-0.000
195.38	-0.000
195.60	-0.000
195.81	-0.000
196.03	-0.000
196.25	-0.000
196.46	-0.000
196.68	-0.000
196.89	-0.000
197.11	-0.000
197.32	-0.000
197.54	-0.000
197.75	-0.000
197.97	-0.000
198.18	-0.000
198.40	-0.000
198.61	-0.000
198.83	-0.000
199.04	-0.000
199.26	-0.000
199.47	-0.000
199.69	-0.000
199.90	-0.000
200.12	-0.000
200.33	-0.000
200.55	-0.000
200.76	-0.000
200.98	-0.000
201.19	-0.000
201.41	-0.000
201.62	-0.000
201.84	-0.000
202.05	-0.000
202.27	-0.000
202.48	-0.000
202.70	-0.000
202.91	-0.000
203.13	-0.000
203.34	-0.000
203.56	-0.000
203.77	-0.000
203.99	-0.000
204.20	-0.000
204.42	-0.000
204.63	-0.000
204.85	-0.000
205.06	-0.000
205.28	-0.000
205.49	-0.000
205.71	-0.000
205.92	-0.000
206.14	-0.000
206.35	-0.000
206.56	-0.000
206.78	-0.000
206.99	-0.000
207.21	-0.000
207.42	-0.000
207.64	-0.000
207.85	-0.000
208.07	-0.000
208.28	-0.000
208.50	-0.000
208.71	-0.000
208.93	-0.000
209.14	-0.000
209.36	-0.000
209.57	-0.000
209.79	-0.000
210.00	-0.000
210.22	-0.000
210.43	-0.000
210.64	-0.000
210.86	-0.000
211.07	-0.000
211.29	-0.000
211.50	-0.000
211.72	-0.000
211.93	-0.000
212.15	-0.000
212.36	-0.000
212.58	-0.000
212.79	-0.000
213.01	-0.000
213.22	-0.000
213.43	-0.000
213.65	-0.000
213.86	-0.000
214.08	-0.000
214.29	-0.000
214.51	-0.000
214.72	-0.000
214.94	-0.000
215.15	-0.000
215.36	-0.000
215.58	-0.000
215.79	-0.000
216.01	-0.000
216.22	-0.000
216.44	-0.000
216.65	-0.000
216.87	-0.000
217.08	-0.000
217.29	-0.000
217.51	-0.000
217.72	-0.000
217.94	-0.000
218.15	-0.000
218.37	-0.000
218.58	-0.000
218.80	-0.000
219.01	-0.000
219.22	-0.000
219.44	-0.000
219.65	-0.000
219.87	-0.000
220.08	-0.000
220.30	-0.000
220.51	-0.000
220.72	-0.000
220.94	-0.000
221.15	-0.000
221.37	-0.000
221.58	-0.000
221.79	-0.000
222.01	-0.000
222.22	-0.000
222.44	-0.000
222.65	-0.000
222.87	-0.000
223.08	-0.000
223.29	-0.000
223.51	-0.000
223.72	-0.000
223.94	-0.000
224.15	-0.000
224.36	-0.000
224.58	-0.000
224.79	-0.000
225.01	-0.000
225.22	-0.000
225.44	-0.000
225.65	-0.000
225.86	-0.000
226.08	-0.000
226.29	-0.000
226.51	-0.000
226.72	-0.000
226.93	-0.000
227.15	-0.000
227.36	-0.000
227.58	-0.000
227.79	-0.000
228.00	-0.000
228.22	-0.000
228.43	-0.000
228.65	-0.000
228.86	-0.000
229.07	-0.000
229.29	-0.000
229.50	-0.000
229.72	-0.000
229.93	-0.000
230.14	-0.000
230.36	-0.000
230.57	-0.000
230.78	-0.000
231.00	-0.000
231.21	-0.000
231.43	-0.000
231.64	-0.000
231.85	-0.000
232.07	-0.000
232.28	-0.000
232.50	-0.000
232.71	-0.000
232.92	-0.000
233.14	-0.000
233.35	-0.000
233.56	-0.000
233.78	-0.000
233.99	-0.000
234.21	-0.000
234.42	-0.000
234.63	-0.000
234.85	-0.000
235.06	-0.000
235.27	-0.000
235.49	-0.000
235.70	-0.000
235.91	-0.000
236.13	-0.000
236.34	-0.000
236.56	-0.000
236.77	-0.000
236.98	-0.000
237.20	-0.000
237.41	-0.000
237.62	-0.000
237.84	-0.000
238.05	-0.000
238.26	-0.000
238.48	-0.000
238.69	-0.000
238.91	-0.000
239.12	-0.000
239.33	-0.000
239.55	-0.000
239.76	-0.000
239.97	-0.000
240.19	-0.000
240.40	-0.000
240.61	-0.000
240.83	-0.000
241.04	-0.000
241.25	-0.000
241.47	-0.000
241.68	-0.000
241.89	-0.000
242.11	-0.000
242.32	-0.000
242.53	-0.000
242.75	-0.000
242.96	-0.000
243.17	-0.000
243.39	-0.000
243.60	-0.000
243.81	-0.000
244.03	-0.000
244.24	-0.000
244.45	-0.000
244.67	-0.000
244.88	-0.000
245.09	-0.000
245.31	-0.000
245.52	-0.000
245.73	-0.000
245.95	-0.000
246.16	-0.000
246.37	-0.000
246.59	-0.000
246.80	-0.000
247.01	-0.000
247.23	-0.000
247.44	-0.000
247.65	-0.000
247.87	-0.000
248.08	-0.000
248.29	-0.000
248.51	-0.000
248.72	-0.000
248.93	-0.000
249.15	-0.000
249.36	-0.000
249.57	-0.000
249.78	-0.000
250.00	-0.000
250.21	-0.000
250.42	-0.000
250.64	-0.000
250.85	-0.000
251.06	-0.000
251.28	-0.000
251.49	-0.000
251.70	-0.000
251.92	-0.000
252.13	-0.000
252.34	-0.000
252.55	-0.000
252.77	-0.000
252.98	-0.000
253.19	-0.000
253.41	-0.000
253.62	-0.000
253.83	-0.000
254.05	-0.000
254.26	-0.000
254.47	-0.000
254.68	-0.000
254.90	-0.000
255.11	-0.000
255.32	-0.000
255.54	-0.000
255.75	-0.000
255.96	-0.000
256.17	-0.000
256.39	-0.000
256.60	-0.000
256.81	-0.000
257.03	-0.000
257.24	-0.000
257.45	-0.000
257.66	-0.000
257.88	-0.000
258.09	-0.000
258.30	-0.000
258.51	-0.000
258.73	-0.000
258.94	-0.000
259.15	-0.000
259.37	-0.000
259.58	-0.000
259.79	-0.000
260.00	-0.000
260.22	-0.000
260.43	-0.000
260.64	-0.000
260.85	-0.000
261.07	-0.000
261.28	-0.000
261.49	-0.000
261.71	-0.000
261.92	-0.000
262.13	-0.000
262.34	-0.000
262.56	-0.000
262.77	-0.000
262.98	-0.000
263.19	-0.000
263.41	-0.000
263.62	-0.000
263.83	-0.000
264.04	-0.000
264.26	-0.000
264.47	-0.000
264.68	-0.000
264.89	-0.000
265.11	-0.000
265.32	-0.000
265.53	-0.000
265.74	-0.000
265.96	-0.000
266.17	-0.000
266.38	-0.000
266.59	-0.000
266.81	-0.000
267.02	-0.000
267.23	-0.000
267.44	-0.000
267.65	-0.000
267.87	-0.000
268.08	-0.000
268.29	-0.000
268.50	-0.000
268.72	-0.000
268.93	-0.000
269.14	-0.000
269.35	-0.000
269.57	-0.000
269.78	-0.000
269.99	-0.000
270.20	-0.000
270.41	-0.000
270.63	-0.000
270.84	-0.000
271.05	-0.000
271.26	-0.000
271.48	-0.000
271.69	-0.000
271.90	-0.000
272.11	-0.000
272.32	-0.000
272.54	-0.000
272.75	-0.000
272.96	-0.000
273.17	-0.000
273.39	-0.000
273.60	-0.000
273.81	-0.000
274.02	-0.000
274.23	-0.000
274.45	-0.000
274.66	-0.000
274.87	-0.000
275.08	-0.000
275.29	-0.000
275.51	-0.000
275.72	-0.000
275.93	-0.000
276.14	-0.000
276.35	-0.000
276.57	-0.000
276.78	-0.000
276.99	-0.000
277.20	-0.000
277.41	-0.000
277.63	-0.000
277.84	-0.000
278.05	-0.000
278.26	-0.000
278.47	-0.000
278.69	-0.000
278.90	-0.000
279.11	-0.000
279.32	-0.000
279.53	-0.000
279.74	-0.000
279.96	-0.000
280.17	-0.000
280.38	-0.000
280.59	-0.000
280.80	-0.000
281.02	-0.000
281.23	-0.000
281.44	-0.000
281.65	-0.000
281.86	-0.000
282.07	-0.000
282.29	-0.000
282.50	-0.000
282.71	-0.000
282.92	-0.000
283.13	-0.000
283.35	-0.000
283.56	-0.000
283.77	-0.000
283.98	-0.000
284.19	-0.000
284.40	-0.000
284.62	-0.000
284.83	-0.000
285.04	-0.000
285.25	-0.000
285.46	-0.000
285.67	-0.000
285.88	-0.000
286.10	-0.000
286.31	-0.000
286.52	-0.000
286.73	-0.000
286.94	-0.000
287.15	-0.000
287.37	-0.000
287.58	-0.000
287.79	-0.000
288.00	-0.000
288.21	-0.000
288.42	-0.000
288.63	-0.000
288.85	-0.000
289.06	-0.000
289.27	-0.000
289.48	-0.000
289.69	-0.000
289.90	-0.000
290.11	-0.000
290.33	-0.000
290.54	-0.000
290.75	-0.000
290.96	-0.000
291.17	-0.000
291.38	-0.000
291.59	-0.000
291.81	-0.000
292.02	-0.000
292.23	-0.000
292.44	-0.000
292.65	-0.000
292.86	-0.000
293.07	-0.000
293.28	-0.000
293.50	-0.000
293.71	-0.000
293.92	-0.000
294.13	-0.000
294.34	-0.000
294.55	-0.000
294.76	-0.000
294.97	-0.000
295.19	-0.000
295.40	-0.000
295.61	-0.000
295.82	-0.000
296.03	-0.000
296.24	-0.000
296.45	-0.000
296.66	2.093
296.87	2.109
297.09	2.311
297.30	-0.000
297.51	1.966
297.72	1.906
297.93	2.086
298.14	1.991
298.35	1.913
298.56	1.861
298.77	2.057
298.99	2.012
299.20	1.951
299.41	1.911
299.62	1.838
299.83	1.830
300.04	1.735
300.25	1.727
300.46	1.789
300.67	1.750
300.88	1.669
301.10	1.675
301.31	1.791
301.52	1.697
301.73	1.612
301.94	1.613
302.15	1.636
302.36	1.571
302.57	1.494
302.78	1.505
302.99	1.559
303.20	1.583
303.41	1.469
303.63	1.441
303.84	1.458
304.05	1.453
304.26	1.386
304.47	1.386
304.68	1.394
304.89	1.380
305.10	1.330
305.31	1.316
305.52	1.366
305.73	1.358
305.94	1.311
306.15	1.297
306.37	1.325
306.58	1.327
306.79	1.294
307.00	1.314
307.21	1.353
307.42	1.346
307.63	1.304
307.84	1.269
308.05	1.306
308.26	1.308
308.47	1.284
308.68	1.276
308.89	1.278
309.10	1.276
309.31	1.233
309.52	1.224
309.73	1.237
309.95	1.230
310.16	1.200
310.37	1.191
310.58	1.207
310.79	1.204
311.00	1.201
311.21	1.204
311.42	1.203
311.63	1.196
311.84	1.177
312.05	1.176
312.26	1.200
312.47	1.211
312.68	1.183
312.89	1.168
313.10	1.175
313.31	1.145
313.52	1.145
313.73	1.145
313.94	1.147
314.15	1.128
314.36	1.106
314.57	1.100
314.78	1.086
314.99	1.081
315.21	1.069
315.42	1.073
315.63	1.088
315.84	1.066
316.05	1.055
316.26	1.064
316.47	1.085
316.68	1.082
316.89	1.062
317.10	1.083
317.31	1.090
317.52	1.091
317.73	1.069
317.94	1.066
318.15	1.109
318.36	1.109
318.57	1.093
318.78	1.080
318.99	1.116
319.20	1.113
319.41	1.077
319.62	1.078
319.83	1.090
320.04	1.085
320.25	1.073
320.46	1.038
320.67	1.040
320.88	1.035
321.09	1.020
321.30	1.006
321.51	1.021
321.72	1.020
321.93	1.003
322.14	0.995
322.35	1.023
322.56	1.024
322.77	1.011
322.98	1.023
323.19	1.032
323.40	1.038
323.61	1.015
323.82	1.010
324.03	1.017
324.24	1.014
324.45	1.000
324.66	0.980
324.87	0.977
325.08	0.977
325.29	0.956
325.50	0.949
325.71	0.955
325.92	0.963
326.13	0.949
326.34	0.949
326.55	0.959
326.76	0.958
326.97	0.948
327.18	0.943
327.39	0.968
327.60	0.968
327.80	0.968
328.01	0.965
328.22	0.966
328.43	0.969
328.64	0.958
328.85	0.961
329.06	0.964
329.27	0.962
329.48	0.957
329.69	0.938
329.90	0.949
330.11	0.942
330.32	0.934
330.53	0.927
330.74	0.927
330.95	0.924
331.16	0.909
331.37	0.917
331.58	0.918
331.79	0.919
332.00	0.909
332.21	0.903
332.42	0.908
332.63	0.900
332.83	0.895
333.04	0.897
333.25	0.911
333.46	0.911
333.67	0.896
333.88	0.899
334.09	0.910
334.30	0.907
334.51	0.896
334.72	0.892
334.93	0.895
335.14	0.895
335.35	0.886
335.56	0.881
335.77	0.890
335.98	0.889
336.18	0.881
336.39	0.873
336.60	0.878
336.81	0.877
337.02	0.876
337.23	0.881
337.44	0.884
337.65	0.886
337.86	0.875
338.07	0.870
338.28	0.874
338.49	0.872
338.70	0.864
338.91	0.870
339.11	0.877
339.32	0.873
339.53	0.861
339.74	0.858
339.95	0.856
340.16	0.854
340.37	0.847
340.58	0.846
340.79	0.850
341.00	0.851
341.21	0.840
341.41	0.840
341.62	0.841
341.83	0.842
342.04	0.837
342.25	0.847
342.46	0.852
342.67	0.850
342.88	0.842
343.09	0.842
343.30	0.849
343.50	0.852
343.71	0.842
343.92	0.842
344.13	0.846
344.34	0.846
344.55	0.830
344.76	0.828
344.97	0.834
345.18	0.833
345.38	0.829
345.59	0.823
345.80	0.822
346.01	0.821
346.22	0.817
346.43	0.812
346.64	0.820
346.85	0.819
347.06	0.812
347.26	0.811
347.47	0.814
347.68	0.809
347.89	0.806
348.10	0.801
348.31	0.806
348.52	0.806
348.73	0.803
348.93	0.799
349.14	0.802
349.35	0.802
349.56	0.796
349.77	0.793
349.98	0.799
350.19	0.796
350.39	0.791
350.60	0.788
350.81	0.803
351.02	0.802
351.23	0.797
351.44	0.799
351.65	0.802
351.86	0.800
352.06	0.799
352.27	0.799
352.48	0.801
352.69	0.800
352.90	0.794
353.11	0.781
353.31	0.788
353.52	0.784
353.73	0.776
353.94	0.778
354.15	0.783
354.36	0.783
354.57	0.774
354.77	0.776
354.98	0.777
355.19	0.776
355.40	0.776
355.61	0.781
355.82	0.785
356.02	0.784
356.23	0.778
356.44	0.779
356.65	0.783
356.86	0.783
357.07	0.776
357.27	0.780
357.48	0.784
357.69	0.779
357.90	0.764
358.11	0.760
358.32	0.764
358.52	0.767
358.73	0.758
358.94	0.760
359.15	0.765
359.36	0.766
359.56	0.760
359.77	0.757
359.98	0.764
360.19	0.765
360.40	0.763
360.61	0.763
360.81	0.762
361.02	0.763
361.23	0.755
361.44	0.753
361.65	0.753
361.85	0.753
362.06	0.751
362.27	0.753
362.48	0.753
362.69	0.755
362.89	0.748
363.10	0.749
363.31	0.753
363.52	0.756
363.73	0.751
363.93	0.752
364.14	0.753
364.35	0.754
364.56	0.744
364.77	0.746
364.97	0.748
365.18	0.749
365.39	0.744
365.60	0.741
365.81	0.743
366.01	0.742
366.22	0.738
366.43	0.737
366.64	0.739
366.84	0.745
367.05	0.741
367.26	0.741
367.47	0.743
367.68	0.742
367.88	0.739
368.09	0.736
368.30	0.740
368.51	0.740
368.71	0.739
368.92	0.743
369.13	0.741
369.34	0.741
369.55	0.738
369.75	0.738
369.96	0.745
370.17	0.746
370.38	0.743
370.58	0.742
370.79	0.747
371.00	0.745
371.21	0.737
371.41	0.742
371.62	0.746
371.83	0.742
372.04	0.740
372.24	0.733
372.45	0.734
372.66	0.735
372.87	0.731
373.07	0.728
373.28	0.730
373.49	0.734
373.70	0.724
373.90	0.723
374.11	0.732
374.32	0.731
374.53	0.730
374.73	0.730
374.94	0.733
375.15	0.733
375.36	0.730
375.56	0.738
375.77	0.738
375.98	0.738
376.19	0.736
376.39	0.730
376.60	0.733
376.81	0.733
377.02	0.731
377.22	0.729
377.43	0.729
377.64	0.729
377.84	0.721
378.05	0.725
378.26	0.731
378.47	0.730
378.67	0.727
378.88	0.725
379.09	0.726
379.30	0.726
379.50	0.725
379.71	0.728
379.92	0.731
380.12	0.730
380.33	0.722
380.54	0.718
380.75	0.725
380.95	0.726
381.16	0.724
381.37	0.724
381.57	0.726
381.78	0.726
381.99	0.725
382.20	0.724
382.40	0.727
382.61	0.727
382.82	0.723
383.02	0.716
383.23	0.719
383.44	0.719
383.64	0.717
383.85	0.719
384.06	0.722
384.27	0.720
384.47	0.719
384.68	0.719
384.89	0.725
385.09	0.725
385.30	0.724
385.51	0.722
385.71	0.725
385.92	0.726
386.13	0.724
386.33	0.726
386.54	0.727
386.75	0.726
386.95	0.722
387.16	0.718
387.37	0.721
387.58	0.721
387.78	0.719
387.99	0.717
388.20	0.719
388.40	0.716
388.61	0.712
388.82	0.715
389.02	0.718
389.23	0.718
389.44	0.715
389.64	0.715
389.85	0.726
390.06	0.726
390.26	0.726
390.47	0.725
390.68	0.727
390.88	0.725
391.09	0.721
391.30	0.720
391.50	0.720
391.71	0.720
391.92	0.717
392.12	0.709
392.33	0.709
392.53	0.709
392.74	0.709
392.95	0.709
393.15	0.711
393.36	0.713
393.57	0.711
393.77	0.715
393.98	0.716
394.19	0.716
394.39	0.716
394.60	0.718
394.81	0.720
395.01	0.719
395.22	0.716
395.43	0.718
395.63	0.722
395.84	0.724
396.04	0.719
396.25	0.722
396.46	0.723
396.66	0.722
396.87	0.718
397.08	0.715
397.28	0.718
397.49	0.719
397.69	0.714
397.90	0.710
398.11	0.710
398.31	0.711
398.52	0.707
398.73	0.709
398.93	0.708
399.14	0.707
399.34	0.706
399.55	0.707
399.76	0.707
399.96	0.709
400.17	0.707
400.37	0.706
400.58	0.712
400.79	0.714
400.99	0.711
401.20	0.716
401.41	0.719
401.61	0.720
401.82	0.724
402.02	0.723
402.23	0.724
402.44	0.724
402.64	0.724
402.85	0.718
403.05	0.717
403.26	0.717
403.47	0.711
403.67	0.710
403.88	0.711
404.08	0.705
404.29	0.703
404.50	0.703
404.70	0.703
404.91	0.701
405.11	0.699
405.32	0.699
405.52	0.699
405.73	0.698
405.94	0.696
406.14	0.699
406.35	0.701
406.55	0.702
406.76	0.699
406.97	0.700
407.17	0.703
407.38	0.702
407.58	0.701
407.79	0.703
407.99	0.706
408.20	0.707
408.41	0.702
408.61	0.701
408.82	0.701
409.02	0.701
409.23	0.699
409.43	0.698
409.64	0.700
409.84	0.699
410.05	0.696
410.26	0.694
410.46	0.693
410.67	0.693
410.87	0.694
411.08	0.696
411.28	0.698
411.49	0.699
411.69	0.697
411.90	0.698
412.11	0.700
412.31	0.700
412.52	0.698
412.72	0.699
412.93	0.700
413.13	0.699
413.34	0.696
413.54	0.696
413.75	0.698
413.95	0.698
414.16	0.695
414.37	0.698
414.57	0.699
414.78	0.701
414.98	0.700
415.19	0.701
415.39	0.698
415.60	0.700
415.80	0.699
416.01	0.698
416.21	0.700
416.42	0.700
416.62	0.695
416.83	0.696
417.03	0.696
417.24	0.696
417.44	0.694
417.65	0.693
417.86	0.693
418.06	0.692
418.27	0.689
418.47	0.691
418.68	0.691
418.88	0.692
419.09	0.690
419.29	0.690
419.50	0.690
419.70	0.689
419.91	0.688
420.11	0.686
420.32	0.688
420.52	0.688
420.73	0.687
420.93	0.688
421.14	0.689
421.34	0.688
421.55	0.684
421.75	0.684
421.96	0.686
422.16	0.686
422.37	0.686
422.57	0.683
422.78	0.684
422.98	0.681
423.19	0.678
423.39	0.676
423.60	0.680
423.80	0.681
424.01	0.679
424.21	0.681
424.42	0.682
424.62	0.682
424.83	0.681
425.03	0.682
425.23	0.684
425.44	0.684
425.64	0.685
425.85	0.684
426.05	0.685
426.26	0.685
426.46	0.682
426.67	0.681
426.87	0.686
427.08	0.686
427.28	0.684
427.49	0.685
427.69	0.685
427.90	0.684
428.10	0.681
428.31	0.680
428.51	0.682
428.71	0.682
428.92	0.683
429.12	0.679
429.33	0.681
429.53	0.684
429.74	0.689
429.94	0.689
430.15	0.688
430.35	0.688
430.56	0.686
430.76	0.685
430.96	0.686
431.17	0.683
431.37	0.680
431.58	0.679
431.78	0.676
431.99	0.669
432.19	0.672
432.40	0.674
432.60	0.675
432.80	0.677
433.01	0.676
433.21	0.675
433.42	0.678
433.62	0.677
433.83	0.677
434.03	0.679
434.23	0.681
434.44	0.680
434.64	0.677
434.85	0.682
435.05	0.683
435.26	0.683
435.46	0.682
435.66	0.682
435.87	0.682
436.07	0.682
436.28	0.678
436.48	0.676
436.69	0.675
436.89	0.675
437.09	0.669
437.30	0.669
437.50	0.669
437.71	0.682
437.91	0.681
438.11	0.682
438.32	0.687
438.52	0.687
438.73	0.686
438.93	0.684
439.13	0.685
439.34	0.688
439.54	0.686
439.75	0.686
439.95	0.675
440.15	0.679
440.36	0.677
440.56	0.675
440.77	0.675
440.97	0.675
441.17	0.674
441.38	0.675
441.58	0.673
441.79	0.673
441.99	0.671
442.19	0.670
442.40	0.667
442.60	0.667
442.81	0.664
443.01	0.664
443.21	0.665
443.42	0.664
443.62	0.663
443.82	0.662
444.03	0.664
444.23	0.664
444.44	0.665
444.64	0.664
444.84	0.666
445.05	0.666
445.25	0.664
445.45	0.664
445.66	0.667
445.86	0.665
446.06	0.667
446.27	0.665
446.47	0.668
446.68	0.666
446.88	0.665
447.08	0.665
447.29	0.666
447.49	0.667
447.69	0.666
447.90	0.664
448.10	0.668
448.30	0.666
448.51	0.667
448.71	0.665
448.91	0.667
449.12	0.666
449.32	0.668
449.52	0.667
449.73	0.670
449.93	0.670
450.14	0.670
450.34	0.670
450.54	0.671
450.75	0.669
450.95	0.668
451.15	0.668
451.36	0.670
451.56	0.667
451.76	0.666
451.97	0.663
452.17	0.664
452.37	0.662
452.58	0.659
452.78	0.659
452.98	0.661
453.19	0.660
453.39	0.660
453.59	0.659
453.79	0.661
454.00	0.661
454.20	0.660
454.40	0.660
454.61	0.663
454.81	0.664
455.01	0.662
455.22	0.662
455.42	0.664
455.62	0.662
455.83	0.662
456.03	0.664
456.23	0.666
456.44	0.666
456.64	0.665
456.84	0.665
457.04	0.665
457.25	0.665
457.45	0.663
457.65	0.661
457.86	0.662
458.06	0.661
458.26	0.657
458.47	0.656
458.67	0.657
458.87	0.657
459.07	0.655
459.28	0.657
459.48	0.659
459.68	0.659
459.89	0.658
460.09	0.657
460.29	0.658
460.49	0.659
460.70	0.658
460.90	0.658
461.10	0.659
461.31	0.658
461.51	0.656
461.71	0.657
461.91	0.658
462.12	0.658
462.32	0.657
462.52	0.658
462.72	0.660
462.93	0.661
463.13	0.659
463.33	0.660
463.53	0.662
463.74	0.662
463.94	0.658
464.14	0.659
464.35	0.660
464.55	0.660
464.75	0.658
464.95	0.656
465.16	0.659
465.36	0.657
465.56	0.656
465.76	0.655
465.97	0.655
466.17	0.655
466.37	0.653
466.57	0.654
466.78	0.655
466.98	0.655
467.18	0.653
467.38	0.651
467.59	0.653
467.79	0.654
467.99	0.653
468.19	0.654
468.39	0.657
468.60	0.657
468.80	0.655
469.00	0.656
469.20	0.657
469.41	0.657
469.61	0.657
469.81	0.657
470.01	0.657
470.22	0.658
470.42	0.656
470.62	0.654
470.82	0.656
471.02	0.655
471.23	0.653
471.43	0.653
471.63	0.655
471.83	0.655
472.04	0.653
472.24	0.652
472.44	0.657
472.64	0.656
472.84	0.655
473.05	0.654
473.25	0.657
473.45	0.657
473.65	0.655
473.85	0.656
474.06	0.658
474.26	0.658
474.46	0.658
474.66	0.655
474.86	0.656
475.07	0.656
475.27	0.654
475.47	0.651
475.67	0.652
475.87	0.654
476.08	0.651
476.28	0.652
476.48	0.653
476.68	0.652
476.88	0.650
477.09	0.651
477.29	0.653
477.49	0.653
477.69	0.652
477.89	0.653
478.09	0.652
478.30	0.654
478.50	0.651
478.70	0.651
478.90	0.651
479.10	0.653
479.31	0.653
479.51	0.651
479.71	0.652
479.91	0.652
480.11	0.650
480.31	0.651
480.52	0.650
480.72	0.649
480.92	0.648
481.12	0.648
481.32	0.645
481.52	0.644
481.72	0.644
481.93	0.647
482.13	0.648
482.33	0.648
482.53	0.645
482.73	0.646
482.93	0.647
483.14	0.647
483.34	0.646
483.54	0.647
483.74	0.646
483.94	0.645
484.14	0.641
484.34	0.641
484.55	0.642
484.75	0.641
484.95	0.639
485.15	0.639
485.35	0.639
485.55	0.639
485.75	0.637
485.96	0.638
486.16	0.640
486.36	0.639
486.56	0.637
486.76	0.637
486.96	0.638
487.16	0.637
487.36	0.636
487.57	0.635
487.77	0.636
487.97	0.636
488.17	0.634
488.37	0.633
488.57	0.634
488.77	0.634
488.97	0.632
489.18	0.631
489.38	0.634
489.58	0.634
489.78	0.634
489.98	0.633
490.18	0.633
490.38	0.634
490.58	0.633
490.78	0.634
490.98	0.636
491.19	0.636
491.39	0.636
491.59	0.635
491.79	0.637
491.99	0.637
492.19	0.637
492.39	0.640
492.59	0.640
492.79	0.642
492.99	0.641
493.20	0.642
493.40	0.642
493.60	0.643
493.80	0.642
494.00	0.639
494.20	0.640
494.40	0.640
494.60	0.637
494.80	0.641
495.00	0.640
495.20	0.639
495.40	0.638
495.61	0.640
495.81	0.640
496.01	0.643
496.21	0.644
496.41	0.643
496.61	0.644
496.81	0.643
497.01	0.638
497.21	0.638
497.41	0.638
497.61	0.638
497.81	0.635
498.01	0.635
498.21	0.633
498.41	0.631
498.61	0.631
498.82	0.632
499.02	0.635
499.22	0.636
499.42	0.635
499.62	0.636
499.82	0.637
500.02	0.638
500.22	0.637
500.42	0.640
500.62	0.640
500.82	0.641
501.02	0.638
501.22	0.638
501.42	0.638
501.62	0.640
501.82	0.639
502.02	0.639
502.22	0.638
502.42	0.640
502.62	0.637
502.82	0.637
503.02	0.638
503.22	0.638
503.42	0.636
503.63	0.636
503.83	0.633
504.03	0.632
504.23	0.631
504.43	0.632
504.63	0.633
504.83	0.633
505.03	0.632
505.23	0.634
505.43	0.636
505.63	0.637
505.83	0.636
506.03	0.638
506.23	0.640
506.43	0.640
506.63	0.639
506.83	0.638
507.03	0.640
507.23	0.640
507.43	0.637
507.63	0.638
507.83	0.638
508.03	0.639
508.23	0.638
508.43	0.636
508.63	0.638
508.83	0.638
509.03	0.639
509.23	0.638
509.43	0.640
509.63	0.640
509.83	0.639
510.03	0.642
510.23	0.644
510.43	0.645
510.63	0.646
510.83	0.646
511.03	0.647
511.23	0.645
511.43	0.644
511.63	0.645
511.83	0.648
512.03	0.648
512.22	0.644
512.42	0.643
512.62	0.644
512.82	0.643
513.02	0.642
513.22	0.642
513.42	0.645
513.62	0.648
513.82	0.645
514.02	0.644
514.22	0.645
514.42	0.646
514.62	0.646
514.82	0.646
515.02	0.648
515.22	0.651
515.42	0.650
515.62	0.653
515.82	0.651
516.02	0.653
516.22	0.653
516.42	0.654
516.62	0.656
516.82	0.658
517.01	0.656
517.21	0.655
517.41	0.659
517.61	0.659
517.81	0.655
518.01	0.655
518.21	0.655
518.41	0.653
518.61	0.652
518.81	0.652
519.01	0.652
519.21	0.653
519.41	0.652
519.61	0.646
519.81	0.649
520.00	0.649
520.20	0.650
520.40	0.653
520.60	0.654
520.80	0.653
521.00	0.654
521.20	0.654
521.40	0.659
521.60	0.660
521.80	0.659
522.00	0.658
522.20	0.661
522.39	0.660
522.59	0.657
522.79	0.658
522.99	0.661
523.19	0.659
523.39	0.657
523.59	0.654
523.79	0.658
523.99	0.660
524.19	0.660
524.38	0.658
524.58	0.659
524.78	0.660
524.98	0.658
525.18	0.660
525.38	0.661
525.58	0.662
525.78	0.660
525.98	0.658
526.18	0.658
526.37	0.657
526.57	0.660
526.77	0.659
526.97	0.659
527.17	0.659
527.37	0.656
527.57	0.658
527.77	0.660
527.96	0.660
528.16	0.659
528.36	0.660
528.56	0.663
528.76	0.660
528.96	0.659
529.16	0.660
529.36	0.664
529.55	0.664
529.75	0.659
529.95	0.659
530.15	0.661
530.35	0.663
530.55	0.660
530.75	0.661
530.94	0.663
531.14	0.663
531.34	0.662
531.54	0.660
531.74	0.662
531.94	0.666
532.13	0.664
532.33	0.665
532.53	0.663
532.73	0.663
532.93	0.661
533.13	0.662
533.33	0.662
533.52	0.662
533.72	0.666
533.92	0.664
534.12	0.662
534.32	0.663
534.52	0.662
534.71	0.664
534.91	0.667
535.11	0.668
535.31	0.666
535.51	0.668
535.71	0.670
535.90	0.666
536.10	0.668
536.30	0.669
536.50	0.670
536.70	0.670
536.89	0.669
537.09	0.668
537.29	0.669
537.49	0.670
537.69	0.668
537.89	0.669
538.08	0.669
538.28	0.666
538.48	0.667
538.68	0.669
538.88	0.670
539.07	0.670
539.27	0.668
539.47	0.668
539.67	0.668
539.87	0.670
540.06	0.667
540.26	0.668
540.46	0.671
540.66	0.667
540.86	0.665
541.05	0.665
541.25	0.667
541.45	0.667
541.65	0.666
541.84	0.667
542.04	0.668
542.24	0.669
542.44	0.668
542.64	0.670
542.83	0.673
543.03	0.673
543.23	0.670
543.43	0.670
543.62	0.672
543.82	0.672
544.02	0.671
544.22	0.671
544.42	0.674
544.61	0.674
544.81	0.670
545.01	0.669
545.21	0.671
545.40	0.672
545.60	0.670
545.80	0.674
546.00	0.674
546.19	0.673
546.39	0.671
546.59	0.669
546.79	0.671
546.98	0.671
547.18	0.671
547.38	0.672
547.58	0.675
547.77	0.675
547.97	0.671
548.17	0.672
548.37	0.673
548.56	0.674
548.76	0.673
548.96	0.675
549.16	0.677
549.35	0.676
549.55	0.674
549.75	0.674
549.95	0.678
550.14	0.678
550.34	0.676
550.54	0.680
550.73	0.684
550.93	0.685
551.13	0.681
551.33	0.680
551.52	0.681
551.72	0.682
551.92	0.680
552.12	0.680
552.31	0.681
552.51	0.681
552.71	0.676
552.90	0.676
553.10	0.677
553.30	0.677
553.50	0.677
553.69	0.678
553.89	0.679
554.09	0.679
554.28	0.677
554.48	0.678
554.68	0.680
554.87	0.681
555.07	0.678
555.27	0.678
555.47	0.680
555.66	0.680
555.86	0.679
556.06	0.681
556.25	0.682
556.45	0.690
556.65	0.688
556.84	0.691
557.04	0.694
557.24	0.695
557.43	0.694
557.63	0.698
557.83	0.699
558.02	0.700
558.22	0.704
558.42	0.704
558.61	0.697
558.81	0.698
559.01	0.694
559.21	0.693
559.40	0.695
559.60	0.695
559.80	0.691
559.99	0.691
560.19	0.693
560.39	0.687
560.58	0.684
560.78	0.685
560.97	0.688
561.17	0.688
561.37	0.685
561.56	0.686
561.76	0.687
561.96	0.687
562.15	0.684
562.35	0.686
562.55	0.689
562.74	0.689
562.94	0.687
563.14	0.685
563.33	0.685
563.53	0.686
563.73	0.683
563.92	0.686
564.12	0.688
564.31	0.690
564.51	0.688
564.71	0.690
564.90	0.692
565.10	0.693
565.30	0.695
565.49	0.697
565.69	0.698
565.89	0.698
566.08	0.695
566.28	0.697
566.47	0.698
566.67	0.696
566.87	0.693
567.06	0.694
567.26	0.701
567.46	0.697
567.65	0.695
567.85	0.698
568.04	0.701
568.24	0.700
568.44	0.697
568.63	0.695
568.83	0.696
569.02	0.695
569.22	0.690
569.42	0.686
569.61	0.689
569.81	0.687
570.00	0.685
570.20	0.686
570.40	0.687
570.59	0.687
570.79	0.685
570.98	0.683
571.18	0.685
571.38	0.684
571.57	0.681
571.77	0.679
571.96	0.683
572.16	0.680
572.35	0.675
572.55	0.677
572.75	0.675
572.94	0.675
573.14	0.674
573.33	0.674
573.53	0.675
573.73	0.674
573.92	0.672
574.12	0.670
574.31	0.673
574.51	0.674
574.70	0.671
574.90	0.672
575.09	0.674
575.29	0.674
575.49	0.671
575.68	0.672
575.88	0.673
576.07	0.675
576.27	0.672
576.46	0.671
576.66	0.670
576.86	0.669
577.05	0.667
577.25	0.665
577.44	0.667
577.64	0.667
577.83	0.665
578.03	0.666
578.22	0.665
578.42	0.665
578.61	0.663
578.81	0.665
579.00	0.665
579.20	0.665
579.40	0.663
579.59	0.662
579.79	0.662
579.98	0.662
580.18	0.661
580.37	0.661
580.57	0.664
580.76	0.668
580.96	0.666
581.15	0.667
581.35	0.669
581.54	0.669
581.74	0.668
581.93	0.670
582.13	0.671
582.32	0.669
582.52	0.667
582.71	0.666
582.91	0.661
583.10	0.662
583.30	0.661
583.49	0.659
583.69	0.663
583.88	0.665
584.08	0.664
584.27	0.666
584.47	0.669
584.66	0.670
584.86	0.669
585.05	0.671
585.25	0.673
585.44	0.673
585.64	0.671
585.83	0.668
586.03	0.668
586.22	0.666
586.42	0.663
586.61	0.664
586.81	0.666
587.00	0.666
587.20	0.664
587.39	0.665
587.59	0.667
587.78	0.669
587.98	0.670
588.17	0.671
588.37	0.674
588.56	0.675
588.76	0.671
588.95	0.671
589.15	0.675
589.34	0.678
589.54	0.676
589.73	0.676
589.92	0.679
590.12	0.679
590.31	0.676
590.51	0.681
590.70	0.683
590.90	0.683
591.09	0.681
591.29	0.679
591.48	0.679
591.68	0.680
591.87	0.679
592.06	0.679
592.26	0.682
592.45	0.681
592.65	0.674
592.84	0.674
593.04	0.677
593.23	0.679
593.43	0.677
593.62	0.677
593.81	0.677
594.01	0.676
594.20	0.674
594.40	0.673
594.59	0.675
594.79	0.676
594.98	0.674
595.17	0.673
595.37	0.674
595.56	0.675
595.76	0.675
595.95	0.676
596.14	0.679
596.34	0.681
596.53	0.679
596.73	0.681
596.92	0.682
597.12	0.684
597.31	0.684
597.50	0.684
597.70	0.686
597.89	0.685
598.09	0.681
598.28	0.683
598.47	0.685
598.67	0.683
598.86	0.680
599.06	0.682
599.25	0.683
599.44	0.681
599.64	0.679
599.83	0.676
600.03	0.680
600.22	0.680
600.41	0.680
600.61	0.678
600.80	0.681
601.00	0.681
601.19	0.676
601.38	0.675
601.58	0.677
601.77	0.678
601.96	0.680
602.16	0.680
602.35	0.690
602.55	0.687
602.74	0.687
602.93	0.689
603.13	0.694
603.32	0.695
603.51	0.694
603.71	0.698
603.90	0.699
604.09	0.700
604.29	0.697
604.48	0.691
604.68	0.692
604.87	0.691
605.06	0.687
605.26	0.684
605.45	0.685
605.64	0.685
605.84	0.679
606.03	0.679
606.22	0.677
606.42	0.676
606.61	0.673
606.80	0.674
607.00	0.676
607.19	0.676
607.38	0.675
607.58	0.676
607.77	0.679
607.96	0.679
608.16	0.678
608.35	0.682
608.54	0.686
608.74	0.689
608.93	0.693
609.12	0.697
609.32	0.699
609.51	0.702
609.70	0.701
609.90	0.702
610.09	0.706
610.28	0.711
610.48	0.705
610.67	0.706
610.86	0.707
611.06	0.702
611.25	0.699
611.44	0.700
611.64	0.700
611.83	0.702
612.02	0.699
612.21	0.698
612.41	0.697
612.60	0.695
612.79	0.692
612.99	0.692
613.18	0.694
613.37	0.692
613.57	0.690
613.76	0.691
613.95	0.690
614.14	0.689
614.34	0.687
614.53	0.688
614.72	0.691
614.92	0.691
615.11	0.688
615.30	0.684
615.49	0.686
615.69	0.688
615.88	0.685
616.07	0.686
616.26	0.688
616.46	0.689
616.65	0.685
616.84	0.684
617.04	0.685
617.23	0.689
617.42	0.691
617.61	0.694
617.81	0.695
618.00	0.696
618.19	0.696
618.38	0.700
618.58	0.703
618.77	0.705
618.96	0.705
619.15	0.707
619.35	0.709
619.54	0.709
619.73	0.705
619.92	0.706
620.12	0.711
620.31	0.710
620.50	0.704
620.69	0.704
620.89	0.708
621.08	0.708
621.27	0.708
621.46	0.706
621.66	0.709
621.85	0.710
622.04	0.706
622.23	0.707
622.43	0.709
622.62	0.708
622.81	0.707
623.00	0.706
623.19	0.710
623.39	0.708
623.58	0.706
623.77	0.705
623.96	0.708
624.16	0.708
624.35	0.702
624.54	0.706
624.73	0.710
624.92	0.708
625.12	0.706
625.31	0.706
625.50	0.710
625.69	0.710
625.88	0.706
626.08	0.705
626.27	0.707
626.46	0.707
626.65	0.704
626.84	0.704
627.04	0.710
627.23	0.710
627.42	0.706
627.61	0.708
627.80	0.712
628.00	0.712
628.19	0.710
628.38	0.714
628.57	0.716
628.76	0.715
628.96	0.712
629.15	0.712
629.34	0.715
629.53	0.715
629.72	0.708
629.91	0.709
630.11	0.714
630.30	0.714
630.49	0.717
630.68	0.718
630.87	0.722
631.06	0.724
631.26	0.719
631.45	0.721
631.64	0.729
631.83	0.732
632.02	0.728
632.21	0.727
632.41	0.735
632.60	0.729
632.79	0.727
632.98	0.728
633.17	0.730
633.36	0.731
633.55	0.727
633.75	0.723
633.94	0.726
634.13	0.727
634.32	0.723
634.51	0.717
634.70	0.719
634.89	0.718
635.09	0.713
635.28	0.713
635.47	0.715
635.66	0.718
635.85	0.713
636.04	0.713
636.23	0.719
636.43	0.721
636.62	0.720
636.81	0.719
637.00	0.722
637.19	0.726
637.38	0.722
637.57	0.721
637.76	0.723
637.95	0.724
638.15	0.720
638.34	0.716
638.53	0.720
638.72	0.721
638.91	0.717
639.10	0.715
639.29	0.715
639.48	0.717
639.67	0.716
639.87	0.715
640.06	0.721
640.25	0.721
640.44	0.722
640.63	0.722
640.82	0.725
641.01	0.725
641.20	0.726
641.39	0.727
641.58	0.730
641.78	0.730
641.97	0.726
642.16	0.740
642.35	0.741
642.54	0.738
642.73	0.733
642.92	0.732
643.11	0.735
643.30	0.735
643.49	0.729
643.68	0.731
643.87	0.732
644.06	0.732
644.25	0.711
644.45	0.714
644.64	0.717
644.83	0.716
645.02	0.713
645.21	0.711
645.40	0.714
645.59	0.714
645.78	0.708
645.97	0.711
646.16	0.712
646.35	0.711
646.54	0.710
646.73	0.710
646.92	0.713
647.11	0.713
647.30	0.709
647.49	0.711
647.68	0.710
647.88	0.709
648.07	0.702
648.26	0.706
648.45	0.707
648.64	0.704
648.83	0.701
649.02	0.703
649.21	0.714
649.40	0.713
649.59	0.707
649.78	0.709
649.97	0.723
650.16	0.722
650.35	0.715
650.54	0.718
650.73	0.726
650.92	0.722
651.11	0.715
651.30	0.712
651.49	0.717
651.68	0.718
651.87	0.714
652.06	0.704
652.25	0.707
652.44	0.710
652.63	0.707
652.82	0.706
653.01	0.707
653.20	0.706
653.39	0.693
653.58	0.690
653.77	0.689
653.96	0.684
654.15	0.676
654.34	0.675
654.53	0.670
654.72	0.664
654.91	0.655
655.10	0.650
655.29	0.648
655.48	0.646
655.67	0.641
655.86	0.638
656.05	0.637
656.24	0.637
656.43	0.632
656.62	0.631
656.81	0.631
657.00	0.629
657.19	0.627
657.38	0.626
657.57	0.626
657.76	0.628
657.95	0.626
658.14	0.629
658.33	0.632
658.51	0.637
658.70	0.637
658.89	0.639
659.08	0.648
659.27	0.656
659.46	0.655
659.65	0.662
659.84	0.666
660.03	0.670
660.22	0.671
660.41	0.676
660.60	0.675
660.79	0.677
660.98	0.683
661.17	0.683
661.36	0.682
661.55	0.683
661.74	0.680
661.92	0.684
662.11	0.685
662.30	0.684
662.49	0.677
662.68	0.677
662.87	0.680
663.06	0.674
663.25	0.674
663.44	0.674
663.63	0.675
663.82	0.673
664.01	0.668
664.20	0.666
664.38	0.668
664.57	0.668
664.76	0.668
664.95	0.668
665.14	0.673
665.33	0.668
665.52	0.675
665.71	0.679
665.90	0.678
666.09	0.680
666.28	0.678
666.46	0.678
666.65	0.678
666.84	0.676
667.03	0.671
667.22	0.669
667.41	0.673
667.60	0.663
667.79	0.656
667.98	0.658
668.16	0.659
668.35	0.659
668.54	0.654
668.73	0.655
668.92	0.656
669.11	0.655
669.30	0.649
669.49	0.644
669.67	0.646
669.86	0.648
670.05	0.646
670.24	0.643
670.43	0.640
670.62	0.640
670.81	0.635
671.00	0.635
671.18	0.636
671.37	0.635
671.56	0.632
671.75	0.632
671.94	0.629
672.13	0.626
672.32	0.622
672.50	0.621
672.69	0.621
672.88	0.621
673.07	0.617
673.26	0.619
673.45	0.621
673.63	0.622
673.82	0.617
674.01	0.619
674.20	0.618
674.39	0.617
674.58	0.617
674.76	0.617
674.95	0.616
675.14	0.616
675.33	0.611
675.52	0.610
675.71	0.609
675.89	0.609
676.08	0.604
676.27	0.605
676.46	0.606
676.65	0.605
676.84	0.604
677.02	0.605
677.21	0.608
677.40	0.607
677.59	0.604
677.78	0.605
677.96	0.608
678.15	0.607
678.34	0.605
678.53	0.605
678.72	0.606
678.90	0.603
679.09	0.598
679.28	0.594
679.47	0.594
679.66	0.593
679.84	0.589
680.03	0.586
680.22	0.585
680.41	0.587
680.60	0.583
680.78	0.582
680.97	0.585
681.16	0.585
681.35	0.584
681.53	0.583
681.72	0.585
681.91	0.587
682.10	0.586
682.29	0.588
682.47	0.586
682.66	0.586
682.85	0.584
683.04	0.582
683.22	0.582
683.41	0.584
683.60	0.583
683.79	0.584
683.97	0.583
684.16	0.582
684.35	0.578
684.54	0.579
684.72	0.579
684.91	0.580
685.10	0.578
685.29	0.579
685.47	0.576
685.66	0.575
685.85	0.571
686.04	0.570
686.22	0.573
686.41	0.575
686.60	0.572
686.79	0.576
686.97	0.576
687.16	0.578
687.35	0.575
687.54	0.579
687.72	0.583
687.91	0.583
688.10	0.586
688.29	0.585
688.47	0.584
688.66	0.584
688.85	0.579
689.03	0.576
689.22	0.581
689.41	0.582
689.60	0.577
689.78	0.574
689.97	0.575
690.16	0.572
690.34	0.568
690.53	0.568
690.72	0.568
690.91	0.566
691.09	0.565
691.28	0.558
691.47	0.556
691.65	0.555
691.84	0.552
692.03	0.551
692.21	0.549
692.40	0.549
692.59	0.546
692.77	0.545
692.96	0.547
693.15	0.547
693.34	0.544
693.52	0.544
693.71	0.545
693.90	0.547
694.08	0.547
694.27	0.548
694.46	0.557
694.64	0.558
694.83	0.558
695.02	0.556
695.20	0.557
695.39	0.557
695.58	0.557
695.76	0.558
695.95	0.556
696.14	0.555
696.32	0.553
696.51	0.544
696.70	0.544
696.88	0.545
697.07	0.544
697.26	0.545
697.44	0.547
697.63	0.546
697.81	0.544
698.00	0.544
698.19	0.544
698.37	0.544
698.56	0.544
698.75	0.544
698.93	0.543
699.12	0.542
699.31	0.541
699.49	0.540
699.68	0.541
699.87	0.544
700.05	0.544
700.24	0.543
700.42	0.545
700.61	0.544
700.80	0.541
700.98	0.542
701.17	0.544
701.36	0.543
701.54	0.542
701.73	0.543
701.91	0.541
702.10	0.540
702.29	0.538
702.47	0.537
702.66	0.539
702.84	0.540
703.03	0.538
703.22	0.539
703.40	0.539
703.59	0.540
703.77	0.540
703.96	0.539
704.15	0.540
704.33	0.540
704.52	0.539
704.70	0.538
704.89	0.538
705.08	0.537
705.26	0.532
705.45	0.532
705.63	0.532
705.82	0.529
706.00	0.527
706.19	0.527
706.38	0.527
706.56	0.527
706.75	0.525
706.93	0.524
707.12	0.525
707.30	0.526
707.49	0.523
707.68	0.521
707.86	0.521
708.05	0.521
708.23	0.518
708.42	0.518
708.60	0.521
708.79	0.521
708.98	0.519
709.16	0.518
709.35	0.521
709.53	0.525
709.72	0.524
709.90	0.526
710.09	0.529
710.27	0.531
710.46	0.534
710.64	0.533
710.83	0.535
711.02	0.537
711.20	0.535
711.39	0.533
711.57	0.531
711.76	0.531
711.94	0.528
712.13	0.529
712.31	0.528
712.50	0.523
712.68	0.521
712.87	0.521
713.05	0.522
713.24	0.523
713.42	0.523
713.61	0.523
713.79	0.525
713.98	0.526
714.16	0.527
714.35	0.526
714.54	0.527
714.72	0.527
714.91	0.524
715.09	0.531
715.28	0.534
715.46	0.534
715.65	0.531
715.83	0.531
716.02	0.533
716.20	0.529
716.39	0.528
716.57	0.530
716.76	0.533
716.94	0.534
717.12	0.525
717.31	0.527
717.49	0.530
717.68	0.532
717.86	0.532
718.05	0.534
718.23	0.536
718.42	0.538
718.60	0.540
718.79	0.548
718.97	0.550
719.16	0.550
719.34	0.548
719.53	0.547
719.71	0.547
719.90	0.548
720.08	0.545
720.27	0.546
720.45	0.546
720.63	0.545
720.82	0.538
721.00	0.541
721.19	0.544
721.37	0.543
721.56	0.543
721.74	0.546
721.93	0.555
722.11	0.562
722.30	0.561
722.48	0.565
722.66	0.567
722.85	0.567
723.03	0.567
723.22	0.567
723.40	0.570
723.59	0.570
723.77	0.574
723.95	0.568
724.14	0.569
724.32	0.571
724.51	0.570
724.69	0.572
724.88	0.572
725.06	0.570
725.24	0.570
725.43	0.572
725.61	0.575
725.80	0.568
725.98	0.565
726.16	0.562
726.35	0.569
726.53	0.568
726.72	0.566
726.90	0.578
727.09	0.579
727.27	0.585
727.45	0.582
727.64	0.591
727.82	0.600
728.01	0.605
728.19	0.602
728.37	0.608
728.56	0.612
728.74	0.618
728.92	0.605
729.11	0.607
729.29	0.605
729.48	0.607
729.66	0.597
729.84	0.597
730.03	0.600
730.21	0.603
730.40	0.592
730.58	0.594
730.76	0.595
730.95	0.599
731.13	0.599
731.31	0.614
731.50	0.624
731.68	0.628
731.86	0.625
732.05	0.641
732.23	0.642
732.42	0.647
732.60	0.651
732.78	0.656
732.97	0.674
733.15	0.681
733.33	0.668
733.52	0.675
733.70	0.685
733.88	0.692
734.07	0.677
734.25	0.706
734.43	0.714
734.62	0.715
734.80	0.709
734.98	0.699
735.17	0.709
735.35	0.715
735.53	0.704
735.72	0.709
735.90	0.736
736.08	0.757
736.27	0.734
736.45	0.744
736.63	0.759
736.82	0.771
737.00	0.772
737.18	0.782
737.37	0.818
737.55	0.842
737.73	0.836
737.92	0.837
738.10	0.832
738.28	0.854
738.46	0.843
738.65	0.857
738.83	0.878
739.01	0.938
739.20	0.925
739.38	0.906
739.56	0.897
739.75	0.899
739.93	0.862
740.11	0.891
740.29	0.888
740.48	0.897
740.66	0.877
740.84	0.873
741.03	0.837
741.21	0.851
741.39	0.830
741.57	0.845
741.76	0.867
741.94	0.874
742.12	0.839
742.31	0.846
742.49	0.868
742.67	0.894
742.85	0.910
743.04	0.915
743.22	0.924
743.40	0.987
743.58	0.964
743.77	0.982
743.95	1.025
744.13	1.085
744.31	1.060
744.50	1.053
744.68	1.050
744.86	1.018
745.04	1.028
745.23	1.109
745.41	1.084
745.59	1.092
745.77	1.055
745.96	1.041
746.14	1.048
746.32	1.047
746.50	1.032
746.69	1.015
746.87	1.032
747.05	1.013
747.23	0.925
747.42	0.915
747.60	0.947
747.78	0.949
747.96	0.982
748.14	0.931
748.33	0.967
748.51	0.965
748.69	0.953
748.87	0.987
749.06	0.990
749.24	0.993
749.42	0.965
749.60	0.943
749.78	0.954
749.97	0.901
750.15	0.896
750.33	0.895
750.51	0.921
750.69	0.929
750.88	0.928
751.06	0.939
751.24	0.968
751.42	0.964
751.60	0.955
751.79	1.037
751.97	1.095
752.15	1.096
752.33	1.054
752.51	1.138
752.69	1.156
752.88	1.115
753.06	1.172
753.24	1.142
753.42	1.185
753.60	1.411
753.78	1.209
753.97	1.229
754.15	1.260
754.33	1.295
754.51	1.124
754.69	1.106
754.87	1.144
755.06	1.055
755.24	1.051
755.42	1.063
755.60	0.946
755.78	0.958
755.96	0.896
756.15	0.892
756.33	0.900
756.51	0.920
756.69	0.904
756.87	0.866
757.05	0.886
757.23	0.865
757.42	0.827
757.60	0.829
757.78	0.820
757.96	0.819
758.14	0.801
758.32	0.784
758.50	0.799
758.69	0.796
758.87	0.787
759.05	0.792
759.23	0.805
759.41	0.808
759.59	0.800
759.77	0.823
759.95	0.851
760.13	0.905
760.32	0.900
760.50	0.894
760.68	0.923
760.86	0.927
761.04	0.895
761.22	0.898
761.40	0.951
761.58	0.952
761.76	0.915
761.95	0.896
762.13	0.850
762.31	0.854
762.49	0.821
762.67	0.839
762.85	0.851
763.03	0.847
763.21	0.826
763.39	0.806
763.57	0.805
763.75	0.801
763.94	0.788
764.12	0.788
764.30	0.811
764.48	0.812
764.66	0.771
764.84	0.769
765.02	0.807
765.20	0.817
765.38	0.795
765.56	0.805
765.74	0.852
765.92	0.848
766.10	0.857
766.28	0.850
766.46	0.883
766.65	0.890
766.83	0.877
767.01	0.860
767.19	0.871
767.37	0.871
767.55	0.857
767.73	0.828
767.91	0.833
768.09	0.822
768.27	0.811
768.45	0.800
768.63	0.802
768.81	0.804
768.99	0.779
769.17	0.802
769.35	0.818
769.53	0.816
769.71	0.796
769.89	0.806
770.07	0.810
770.25	0.792
770.43	0.771
770.61	0.798
770.79	0.805
770.97	0.813
771.15	0.779
771.33	0.785
771.51	0.788
771.69	0.801
771.87	0.809
772.05	0.815
772.24	0.825
772.42	0.833
772.60	0.806
772.78	0.869
772.96	0.905
773.14	0.895
773.32	0.865
773.49	0.872
773.67	0.871
773.85	0.849
774.03	0.837
774.21	0.870
774.39	0.883
774.57	0.910
774.75	0.831
774.93	0.825
775.11	0.854
775.29	0.859
775.47	0.860
775.65	0.869
775.83	0.890
776.01	0.915
776.19	0.863
776.37	0.866
776.55	0.866
776.73	0.862
776.91	0.854
777.09	0.838
777.27	0.840
777.45	0.827
777.63	0.803
777.81	0.796
777.99	0.782
778.17	0.779
778.35	0.754
778.53	0.744
778.71	0.751
778.89	0.738
779.07	0.723
779.24	0.731
779.42	0.733
779.60	0.750
779.78	0.748
779.96	0.752
780.14	0.760
780.32	0.783
780.50	0.763
780.68	0.761
780.86	0.751
781.04	0.770
781.22	0.772
781.40	0.785
781.58	0.777
781.75	0.769
781.93	0.752
782.11	0.753
782.29	0.739
782.47	0.739
782.65	0.726
782.83	0.755
783.01	0.749
783.19	0.741
783.37	0.724
783.55	0.729
783.72	0.749
783.90	0.762
784.08	0.753
784.26	0.767
784.44	0.788
784.62	0.789
784.80	0.755
784.98	0.761
785.16	0.766
785.33	0.782
785.51	0.765
785.69	0.747
785.87	0.745
786.05	0.757
786.23	0.749
786.41	0.748
786.59	0.758
786.77	0.757
786.94	0.744
787.12	0.746
787.30	0.747
787.48	0.744
787.66	0.730
787.84	0.730
788.02	0.719
788.19	0.718
788.37	0.702
788.55	0.702
788.73	0.702
788.91	0.695
789.09	0.680
789.27	0.669
789.44	0.682
789.62	0.691
789.80	0.698
789.98	0.724
790.16	0.711
790.34	0.708
790.51	0.694
790.69	0.715
790.87	0.724
791.05	0.719
791.23	0.713
791.41	0.713
791.58	0.720
791.76	0.699
791.94	0.669
792.12	0.679
792.30	0.680
792.48	0.680
792.65	0.673
792.83	0.679
793.01	0.688
793.19	0.685
793.37	0.670
793.54	0.665
793.72	0.676
793.90	0.673
794.08	0.660
794.26	0.662
794.43	0.670
794.61	0.654
794.79	0.641
794.97	0.639
795.15	0.645
795.32	0.647
795.50	0.637
795.68	0.632
795.86	0.637
796.04	0.639
796.21	0.632
796.39	0.629
796.57	0.644
796.75	0.651
796.92	0.652
797.10	0.657
797.28	0.660
797.46	0.665
797.64	0.667
797.81	0.677
797.99	0.680
798.17	0.685
798.35	0.679
798.52	0.683
798.70	0.681
798.88	0.690
799.06	0.691
799.23	0.693
799.41	0.700
799.59	0.692
799.77	0.679
799.94	0.690
800.12	0.702
800.30	0.720
800.48	0.718
800.65	0.719
800.83	0.708
801.01	0.699
801.19	0.700
801.36	0.695
801.54	0.698
801.72	0.708
801.90	0.693
802.07	0.687
802.25	0.673
802.43	0.656
802.60	0.650
802.78	0.656
802.96	0.662
803.14	0.656
803.31	0.654
803.49	0.655
803.67	0.652
803.84	0.657
804.02	0.647
804.20	0.650
804.38	0.658
804.55	0.658
804.73	0.644
804.91	0.644
805.08	0.657
805.26	0.652
805.44	0.723
805.61	0.725
805.79	0.724
805.97	0.722
806.15	0.712
806.32	0.706
806.50	0.713
806.68	0.714
806.85	0.705
807.03	0.696
807.21	0.713
807.38	0.640
807.56	0.629
807.74	0.637
807.91	0.646
808.09	0.649
808.27	0.668
808.44	0.696
808.62	0.706
808.80	0.705
808.97	0.698
809.15	0.693
809.33	0.711
809.50	0.718
809.68	0.706
809.86	0.713
810.03	0.748
810.21	0.726
810.39	0.705
810.56	0.712
810.74	0.738
810.91	0.813
811.09	0.803
811.27	0.829
811.44	0.837
811.62	0.837
811.80	0.819
811.97	0.786
812.15	0.790
812.33	0.785
812.50	0.769
812.68	0.755
812.85	0.697
813.03	0.699
813.21	0.664
813.38	0.659
813.56	0.662
813.74	0.674
813.91	0.679
814.09	0.709
814.26	0.703
814.44	0.705
814.62	0.696
814.79	0.703
814.97	0.709
815.14	0.711
815.32	0.713
815.50	0.732
815.67	0.735
815.85	0.725
816.02	0.714
816.20	0.720
816.38	0.737
816.55	0.742
816.73	0.739
816.90	0.749
817.08	0.784
817.26	0.790
817.43	0.769
817.61	0.792
817.78	0.815
817.96	0.793
818.13	0.782
818.31	0.784
818.49	0.798
818.66	0.791
818.84	0.775
819.01	0.754
819.19	0.763
819.36	0.764
819.54	0.733
819.71	0.779
819.89	0.794
820.07	0.806
820.24	0.799
820.42	0.802
820.59	0.825
820.77	0.849
820.94	0.836
821.12	0.853
821.29	0.874
821.47	0.874
821.64	0.802
821.82	0.815
822.00	0.816
822.17	0.812
822.35	0.802
822.52	0.801
822.70	0.794
822.87	0.804
823.05	0.784
823.22	0.794
823.40	0.828
823.57	0.852
823.75	0.836
823.92	0.867
824.10	0.889
824.27	0.938
824.45	0.931
824.62	1.002
824.80	1.028
824.97	1.044
825.15	1.031
825.32	1.048
825.50	1.050
825.67	1.065
825.85	1.031
826.02	1.058
826.20	1.093
826.37	1.269
826.55	1.156
826.72	1.455
826.90	1.610
827.07	1.745
827.25	1.629
827.42	2.314
827.60	-0.000
827.77	-0.000
827.95	-0.000
828.12	-0.000
828.30	-0.000
828.47	-0.000
828.65	1.732
828.82	2.036
829.00	-0.000
829.17	-0.000
829.34	-0.000
829.52	-0.000
829.69	-0.000
829.87	-0.000
830.04	-0.000
830.22	-0.000
830.39	-0.000
830.57	-0.000
830.74	-0.000
830.92	-0.000
831.09	-0.000
831.26	-0.000
831.44	-0.000
831.61	-0.000
831.79	-0.000
831.96	-0.000
832.14	-0.000
832.31	-0.000
832.49	-0.000
832.66	-0.000
832.83	-0.000
833.01	-0.000
833.18	-0.000
833.36	-0.000
833.53	-0.000
833.70	-0.000
833.88	-0.000
834.05	-0.000
834.23	-0.000
834.40	-0.000
834.58	-0.000
834.75	-0.000
834.92	-0.000
835.10	-0.000
835.27	-0.000
835.45	-0.000
835.62	-0.000
835.79	-0.000
835.97	-0.000
836.14	-0.000
836.32	-0.000
836.49	-0.000
836.66	-0.000
836.84	-0.000
837.01	-0.000
837.18	-0.000
837.36	-0.000
837.53	-0.000
837.71	-0.000
837.88	-0.000
838.05	-0.000
838.23	-0.000
838.40	-0.000
838.58	-0.000
838.75	-0.000
838.92	-0.000
839.10	-0.000
839.27	-0.000
839.44	-0.000
839.62	-0.000
839.79	-0.000
839.96	-0.000
840.14	-0.000
840.31	-0.000
840.48	-0.000
840.66	-0.000
840.83	-0.000
841.01	-0.000
841.18	-0.000
841.35	-0.000
841.53	-0.000
841.70	-0.000
841.87	-0.000
842.05	-0.000
842.22	-0.000
842.39	-0.000
842.57	-0.000
842.74	-0.000
842.91	-0.000
843.09	-0.000
843.26	-0.000
843.43	-0.000
843.60	-0.000
843.78	-0.000
843.95	-0.000
844.12	-0.000
844.30	-0.000
844.47	-0.000
844.64	-0.000
844.82	-0.000
844.99	-0.000
845.16	-0.000
845.34	-0.000
845.51	-0.000
845.68	-0.000
845.85	-0.000
846.03	-0.000
846.20	-0.000
846.37	-0.000
846.55	-0.000
846.72	-0.000
846.89	-0.000
847.06	-0.000
847.24	-0.000
847.41	-0.000
847.58	-0.000
847.76	-0.000
847.93	-0.000
848.10	-0.000
848.27	-0.000
848.45	-0.000
848.62	-0.000
848.79	-0.000
848.97	-0.000
849.14	-0.000
849.31	-0.000
849.48	-0.000
849.66	-0.000
849.83	-0.000
850.00	-0.000
850.17	-0.000
850.35	-0.000
850.52	-0.000
850.69	-0.000
850.86	-0.000
851.04	-0.000
851.21	-0.000
851.38	-0.000
851.55	-0.000
851.72	-0.000
851.90	-0.000
852.07	-0.000
852.24	-0.000
852.41	-0.000
852.59	-0.000
852.76	-0.000
852.93	-0.000
853.10	-0.000
853.28	-0.000
853.45	-0.000
853.62	-0.000
853.79	-0.000
853.96	-0.000
854.14	-0.000
854.31	-0.000
854.48	-0.000
854.65	-0.000
854.82	-0.000
855.00	-0.000
855.17	-0.000
855.34	-0.000
855.51	-0.000
855.68	-0.000
855.86	-0.000
856.03	-0.000
856.20	-0.000
856.37	-0.000
856.54	-0.000
856.72	-0.000
856.89	-0.000
857.06	-0.000
857.23	-0.000
857.40	-0.000
857.57	-0.000
857.75	-0.000
857.92	-0.000
858.09	-0.000
858.26	-0.000
858.43	-0.000
858.60	-0.000
858.78	-0.000
858.95	-0.000
859.12	-0.000
859.29	-0.000
859.46	-0.000
859.63	-0.000
859.81	-0.000
859.98	-0.000
860.15	-0.000
860.32	-0.000
860.49	-0.000
860.66	-0.000
860.83	-0.000
861.01	-0.000
861.18	-0.000
861.35	-0.000
861.52	-0.000
861.69	-0.000
861.86	-0.000
862.03	-0.000
862.21	-0.000
862.38	-0.000
862.55	-0.000
862.72	-0.000
862.89	-0.000
863.06	-0.000
863.23	-0.000
863.40	-0.000
863.58	-0.000
863.75	-0.000
863.92	-0.000
864.09	-0.000
864.26	-0.000
864.43	-0.000
864.60	-0.000
864.77	-0.000
864.94	-0.000
865.11	-0.000
865.29	-0.000
865.46	-0.000
865.63	-0.000
865.80	-0.000
865.97	-0.000
866.14	-0.000
866.31	-0.000
866.48	-0.000
866.65	-0.000
866.82	-0.000
866.99	-0.000
867.16	-0.000
867.34	-0.000
867.51	-0.000
867.68	-0.000
867.85	-0.000
868.02	-0.000
868.19	-0.000
868.36	-0.000
868.53	-0.000
868.70	-0.000
868.87	-0.000
869.04	-0.000
869.21	-0.000
869.38	-0.000
869.55	-0.000
869.72	-0.000
869.89	-0.000
870.06	-0.000
870.24	-0.000
870.41	-0.000
870.58	-0.000
870.75	-0.000
870.92	-0.000
871.09	-0.000
871.26	-0.000
871.43	-0.000
871.60	-0.000
871.77	-0.000
871.94	-0.000
872.11	-0.000
872.28	-0.000
872.45	-0.000
872.62	-0.000
872.79	-0.000
872.96	-0.000
873.13	-0.000
873.30	-0.000
873.47	-0.000
873.64	-0.000
873.81	-0.000
873.98	-0.000
874.15	-0.000
874.32	-0.000
874.49	-0.000
874.66	-0.000
874.83	-0.000
875.00	-0.000
875.17	-0.000
875.34	-0.000
875.51	-0.000
875.68	-0.000
875.85	-0.000
876.02	-0.000
876.19	-0.000
876.36	-0.000
876.53	-0.000
876.70	-0.000
876.87	-0.000
877.04	-0.000
877.21	-0.000
877.38	-0.000
877.55	-0.000
877.72	-0.000
877.89	-0.000
878.06	-0.000
878.23	-0.000
878.39	-0.000
878.56	-0.000
878.73	-0.000
878.90	-0.000
879.07	-0.000
879.24	-0.000
879.41	-0.000
879.58	-0.000
879.75	-0.000
879.92	-0.000
880.09	-0.000
880.26	-0.000
880.43	-0.000
880.60	-0.000
880.77	-0.000
880.94	-0.000
881.11	-0.000
881.27	-0.000
881.44	-0.000
881.61	-0.000
881.78	-0.000
881.95	-0.000
882.12	-0.000
882.29	-0.000
882.46	-0.000
882.63	-0.000
882.80	-0.000
882.97	-0.000
883.14	-0.000
883.30	-0.000
883.47	-0.000
883.64	-0.000
883.81	-0.000
883.98	-0.000
884.15	-0.000
884.32	-0.000
884.49	-0.000
884.66	-0.000
884.82	-0.000
884.99	-0.000
885.16	-0.000
885.33	-0.000
885.50	-0.000
885.67	-0.000
885.84	-0.000
886.01	-0.000
886.17	-0.000
886.34	-0.000
886.51	-0.000
886.68	-0.000
886.85	-0.000
887.02	-0.000
887.19	-0.000
887.36	-0.000
887.52	-0.000
887.69	-0.000
887.86	-0.000
888.03	-0.000
888.20	-0.000
888.37	-0.000
888.54	-0.000
888.70	-0.000
888.87	-0.000
889.04	-0.000
889.21	-0.000
889.38	-0.000
889.55	-0.000
889.71	-0.000
889.88	-0.000
890.05	-0.000
890.22	-0.000
890.39	-0.000
>>>>>End Processed Spectral Data<<<<<
