SpectraSuite Data File
++++++++++++++++++++++++++++++++++++
Date: Fri Jun 19 15:09:14 CEST 2015
User: introlabs
Dark Spectrum Present: Yes
Reference Spectrum Present: Yes
Number of Sampled Component Spectra: 1
Spectrometers: USB4H08886
Integration Time (usec): 745692 (USB4H08886)
Spectra Averaged: 5 (USB4H08886)
Boxcar Smoothing: 5 (USB4H08886)
Correct for Electrical Dark: Yes (USB4H08886)
Strobe/Lamp Enabled: No (USB4H08886)
Correct for Detector Non-linearity: Yes (USB4H08886)
Correct for Stray Light: Yes (USB4H08886)
Number of Pixels in Processed Spectrum: 3648
>>>>>Begin Processed Spectral Data<<<<<
178.14	-0.000
178.36	-0.000
178.57	-0.000
178.79	-0.000
179.01	-0.000
179.22	-0.000
179.44	-0.000
179.65	-0.000
179.87	-0.000
180.08	-0.000
180.30	-0.000
180.52	-0.000
180.73	-0.000
180.95	-0.000
181.16	-0.000
181.38	-0.000
181.59	-0.000
181.81	-0.000
182.03	-0.000
182.24	-0.000
182.46	-0.000
182.67	-0.000
182.89	-0.000
183.10	-0.000
183.32	-0.000
183.54	-0.000
183.75	-0.000
183.97	-0.000
184.18	-0.000
184.40	-0.000
184.61	-0.000
184.83	-0.000
185.04	-0.000
185.26	-0.000
185.48	-0.000
185.69	-0.000
185.91	-0.000
186.12	-0.000
186.34	-0.000
186.55	-0.000
186.77	-0.000
186.98	-0.000
187.20	-0.000
187.42	-0.000
187.63	-0.000
187.85	-0.000
188.06	-0.000
188.28	-0.000
188.49	-0.000
188.71	-0.000
188.92	-0.000
189.14	-0.000
189.36	-0.000
189.57	-0.000
189.79	-0.000
190.00	-0.000
190.22	-0.000
190.43	-0.000
190.65	-0.000
190.86	-0.000
191.08	-0.000
191.29	-0.000
191.51	-0.000
191.72	-0.000
191.94	-0.000
192.16	-0.000
192.37	-0.000
192.59	-0.000
192.80	-0.000
193.02	-0.000
193.23	-0.000
193.45	-0.000
193.66	-0.000
193.88	-0.000
194.09	-0.000
194.31	-0.000
194.52	-0.000
194.74	-0.000
194.95	-0.000
195.17	-0.000
195.38	-0.000
195.60	-0.000
195.81	-0.000
196.03	-0.000
196.25	-0.000
196.46	-0.000
196.68	-0.000
196.89	-0.000
197.11	-0.000
197.32	-0.000
197.54	-0.000
197.75	-0.000
197.97	-0.000
198.18	-0.000
198.40	-0.000
198.61	-0.000
198.83	-0.000
199.04	-0.000
199.26	-0.000
199.47	-0.000
199.69	-0.000
199.90	-0.000
200.12	-0.000
200.33	-0.000
200.55	-0.000
200.76	-0.000
200.98	-0.000
201.19	-0.000
201.41	-0.000
201.62	-0.000
201.84	-0.000
202.05	-0.000
202.27	-0.000
202.48	-0.000
202.70	-0.000
202.91	-0.000
203.13	-0.000
203.34	-0.000
203.56	-0.000
203.77	-0.000
203.99	-0.000
204.20	-0.000
204.42	-0.000
204.63	-0.000
204.85	-0.000
205.06	-0.000
205.28	-0.000
205.49	-0.000
205.71	-0.000
205.92	-0.000
206.14	-0.000
206.35	-0.000
206.56	-0.000
206.78	-0.000
206.99	-0.000
207.21	-0.000
207.42	-0.000
207.64	-0.000
207.85	-0.000
208.07	-0.000
208.28	-0.000
208.50	-0.000
208.71	-0.000
208.93	-0.000
209.14	-0.000
209.36	-0.000
209.57	-0.000
209.79	-0.000
210.00	-0.000
210.22	-0.000
210.43	-0.000
210.64	-0.000
210.86	-0.000
211.07	-0.000
211.29	-0.000
211.50	-0.000
211.72	-0.000
211.93	-0.000
212.15	-0.000
212.36	-0.000
212.58	-0.000
212.79	-0.000
213.01	-0.000
213.22	-0.000
213.43	-0.000
213.65	-0.000
213.86	-0.000
214.08	-0.000
214.29	-0.000
214.51	-0.000
214.72	-0.000
214.94	-0.000
215.15	-0.000
215.36	-0.000
215.58	-0.000
215.79	-0.000
216.01	-0.000
216.22	-0.000
216.44	-0.000
216.65	-0.000
216.87	-0.000
217.08	-0.000
217.29	-0.000
217.51	-0.000
217.72	-0.000
217.94	-0.000
218.15	-0.000
218.37	-0.000
218.58	-0.000
218.80	-0.000
219.01	-0.000
219.22	-0.000
219.44	-0.000
219.65	-0.000
219.87	-0.000
220.08	-0.000
220.30	-0.000
220.51	-0.000
220.72	-0.000
220.94	-0.000
221.15	-0.000
221.37	-0.000
221.58	-0.000
221.79	-0.000
222.01	-0.000
222.22	-0.000
222.44	-0.000
222.65	-0.000
222.87	-0.000
223.08	-0.000
223.29	-0.000
223.51	-0.000
223.72	-0.000
223.94	-0.000
224.15	-0.000
224.36	-0.000
224.58	-0.000
224.79	-0.000
225.01	-0.000
225.22	-0.000
225.44	-0.000
225.65	-0.000
225.86	-0.000
226.08	-0.000
226.29	-0.000
226.51	-0.000
226.72	-0.000
226.93	-0.000
227.15	-0.000
227.36	-0.000
227.58	-0.000
227.79	-0.000
228.00	-0.000
228.22	-0.000
228.43	-0.000
228.65	-0.000
228.86	-0.000
229.07	-0.000
229.29	-0.000
229.50	-0.000
229.72	-0.000
229.93	-0.000
230.14	-0.000
230.36	-0.000
230.57	-0.000
230.78	-0.000
231.00	-0.000
231.21	-0.000
231.43	-0.000
231.64	-0.000
231.85	-0.000
232.07	-0.000
232.28	-0.000
232.50	-0.000
232.71	-0.000
232.92	-0.000
233.14	-0.000
233.35	-0.000
233.56	-0.000
233.78	-0.000
233.99	-0.000
234.21	-0.000
234.42	-0.000
234.63	-0.000
234.85	-0.000
235.06	-0.000
235.27	-0.000
235.49	-0.000
235.70	-0.000
235.91	-0.000
236.13	-0.000
236.34	-0.000
236.56	-0.000
236.77	-0.000
236.98	-0.000
237.20	-0.000
237.41	-0.000
237.62	-0.000
237.84	-0.000
238.05	-0.000
238.26	-0.000
238.48	-0.000
238.69	-0.000
238.91	-0.000
239.12	-0.000
239.33	-0.000
239.55	-0.000
239.76	-0.000
239.97	-0.000
240.19	-0.000
240.40	-0.000
240.61	-0.000
240.83	-0.000
241.04	-0.000
241.25	-0.000
241.47	-0.000
241.68	-0.000
241.89	-0.000
242.11	-0.000
242.32	-0.000
242.53	-0.000
242.75	-0.000
242.96	-0.000
243.17	-0.000
243.39	-0.000
243.60	-0.000
243.81	-0.000
244.03	-0.000
244.24	-0.000
244.45	-0.000
244.67	-0.000
244.88	-0.000
245.09	-0.000
245.31	-0.000
245.52	-0.000
245.73	-0.000
245.95	-0.000
246.16	-0.000
246.37	-0.000
246.59	-0.000
246.80	-0.000
247.01	-0.000
247.23	-0.000
247.44	-0.000
247.65	-0.000
247.87	-0.000
248.08	-0.000
248.29	-0.000
248.51	-0.000
248.72	-0.000
248.93	-0.000
249.15	-0.000
249.36	-0.000
249.57	-0.000
249.78	-0.000
250.00	-0.000
250.21	-0.000
250.42	-0.000
250.64	-0.000
250.85	-0.000
251.06	-0.000
251.28	-0.000
251.49	-0.000
251.70	-0.000
251.92	-0.000
252.13	-0.000
252.34	-0.000
252.55	-0.000
252.77	-0.000
252.98	-0.000
253.19	-0.000
253.41	-0.000
253.62	-0.000
253.83	-0.000
254.05	-0.000
254.26	-0.000
254.47	-0.000
254.68	-0.000
254.90	-0.000
255.11	-0.000
255.32	-0.000
255.54	-0.000
255.75	-0.000
255.96	-0.000
256.17	-0.000
256.39	-0.000
256.60	-0.000
256.81	-0.000
257.03	-0.000
257.24	-0.000
257.45	-0.000
257.66	-0.000
257.88	-0.000
258.09	-0.000
258.30	-0.000
258.51	-0.000
258.73	-0.000
258.94	-0.000
259.15	-0.000
259.37	-0.000
259.58	-0.000
259.79	-0.000
260.00	-0.000
260.22	-0.000
260.43	-0.000
260.64	-0.000
260.85	-0.000
261.07	-0.000
261.28	-0.000
261.49	-0.000
261.71	-0.000
261.92	-0.000
262.13	-0.000
262.34	-0.000
262.56	-0.000
262.77	-0.000
262.98	-0.000
263.19	-0.000
263.41	-0.000
263.62	-0.000
263.83	-0.000
264.04	-0.000
264.26	-0.000
264.47	-0.000
264.68	-0.000
264.89	-0.000
265.11	-0.000
265.32	-0.000
265.53	-0.000
265.74	-0.000
265.96	-0.000
266.17	-0.000
266.38	-0.000
266.59	-0.000
266.81	-0.000
267.02	-0.000
267.23	-0.000
267.44	-0.000
267.65	-0.000
267.87	-0.000
268.08	-0.000
268.29	-0.000
268.50	-0.000
268.72	-0.000
268.93	-0.000
269.14	-0.000
269.35	-0.000
269.57	-0.000
269.78	-0.000
269.99	-0.000
270.20	-0.000
270.41	-0.000
270.63	-0.000
270.84	-0.000
271.05	-0.000
271.26	-0.000
271.48	-0.000
271.69	-0.000
271.90	-0.000
272.11	-0.000
272.32	-0.000
272.54	-0.000
272.75	-0.000
272.96	-0.000
273.17	-0.000
273.39	-0.000
273.60	-0.000
273.81	-0.000
274.02	-0.000
274.23	-0.000
274.45	-0.000
274.66	-0.000
274.87	-0.000
275.08	-0.000
275.29	-0.000
275.51	-0.000
275.72	-0.000
275.93	-0.000
276.14	-0.000
276.35	-0.000
276.57	-0.000
276.78	-0.000
276.99	-0.000
277.20	-0.000
277.41	-0.000
277.63	-0.000
277.84	-0.000
278.05	-0.000
278.26	-0.000
278.47	-0.000
278.69	-0.000
278.90	-0.000
279.11	-0.000
279.32	-0.000
279.53	-0.000
279.74	-0.000
279.96	-0.000
280.17	-0.000
280.38	-0.000
280.59	-0.000
280.80	-0.000
281.02	-0.000
281.23	-0.000
281.44	-0.000
281.65	-0.000
281.86	-0.000
282.07	-0.000
282.29	-0.000
282.50	-0.000
282.71	-0.000
282.92	-0.000
283.13	-0.000
283.35	-0.000
283.56	-0.000
283.77	-0.000
283.98	-0.000
284.19	-0.000
284.40	-0.000
284.62	-0.000
284.83	-0.000
285.04	-0.000
285.25	-0.000
285.46	-0.000
285.67	-0.000
285.88	-0.000
286.10	-0.000
286.31	-0.000
286.52	-0.000
286.73	-0.000
286.94	-0.000
287.15	-0.000
287.37	-0.000
287.58	-0.000
287.79	-0.000
288.00	-0.000
288.21	-0.000
288.42	-0.000
288.63	-0.000
288.85	-0.000
289.06	-0.000
289.27	-0.000
289.48	-0.000
289.69	-0.000
289.90	-0.000
290.11	-0.000
290.33	-0.000
290.54	-0.000
290.75	-0.000
290.96	-0.000
291.17	-0.000
291.38	-0.000
291.59	-0.000
291.81	-0.000
292.02	-0.000
292.23	-0.000
292.44	-0.000
292.65	-0.000
292.86	-0.000
293.07	-0.000
293.28	-0.000
293.50	-0.000
293.71	-0.000
293.92	-0.000
294.13	-0.000
294.34	-0.000
294.55	-0.000
294.76	-0.000
294.97	-0.000
295.19	-0.000
295.40	-0.000
295.61	-0.000
295.82	-0.000
296.03	-0.000
296.24	-0.000
296.45	2.020
296.66	1.740
296.87	1.751
297.09	1.801
297.30	1.984
297.51	1.686
297.72	1.667
297.93	1.750
298.14	1.705
298.35	1.663
298.56	1.652
298.77	1.771
298.99	1.747
299.20	1.732
299.41	1.723
299.62	1.666
299.83	1.645
300.04	1.588
300.25	1.568
300.46	1.601
300.67	1.577
300.88	1.532
301.10	1.529
301.31	1.598
301.52	1.533
301.73	1.479
301.94	1.480
302.15	1.499
302.36	1.456
302.57	1.406
302.78	1.418
302.99	1.458
303.20	1.473
303.41	1.389
303.63	1.369
303.84	1.377
304.05	1.372
304.26	1.319
304.47	1.322
304.68	1.320
304.89	1.311
305.10	1.273
305.31	1.261
305.52	1.303
305.73	1.300
305.94	1.262
306.15	1.254
306.37	1.275
306.58	1.280
306.79	1.252
307.00	1.277
307.21	1.309
307.42	1.303
307.63	1.270
307.84	1.237
308.05	1.269
308.26	1.270
308.47	1.250
308.68	1.246
308.89	1.245
309.10	1.244
309.31	1.204
309.52	1.197
309.73	1.210
309.95	1.204
310.16	1.177
310.37	1.166
310.58	1.183
310.79	1.182
311.00	1.179
311.21	1.183
311.42	1.183
311.63	1.179
311.84	1.161
312.05	1.158
312.26	1.179
312.47	1.189
312.68	1.167
312.89	1.148
313.10	1.154
313.31	1.129
313.52	1.133
313.73	1.134
313.94	1.135
314.15	1.120
314.36	1.102
314.57	1.095
314.78	1.084
314.99	1.078
315.21	1.068
315.42	1.072
315.63	1.084
315.84	1.061
316.05	1.048
316.26	1.054
316.47	1.070
316.68	1.066
316.89	1.050
317.10	1.069
317.31	1.074
317.52	1.077
317.73	1.058
317.94	1.056
318.15	1.096
318.36	1.096
318.57	1.083
318.78	1.073
318.99	1.105
319.20	1.103
319.41	1.069
319.62	1.070
319.83	1.085
320.04	1.081
320.25	1.069
320.46	1.036
320.67	1.037
320.88	1.031
321.09	1.017
321.30	1.002
321.51	1.017
321.72	1.015
321.93	1.001
322.14	0.992
322.35	1.017
322.56	1.018
322.77	1.007
322.98	1.019
323.19	1.027
323.40	1.034
323.61	1.013
323.82	1.006
324.03	1.011
324.24	1.009
324.45	0.998
324.66	0.979
324.87	0.974
325.08	0.975
325.29	0.957
325.50	0.951
325.71	0.954
325.92	0.963
326.13	0.949
326.34	0.951
326.55	0.956
326.76	0.955
326.97	0.946
327.18	0.941
327.39	0.964
327.60	0.966
327.80	0.967
328.01	0.964
328.22	0.964
328.43	0.970
328.64	0.958
328.85	0.965
329.06	0.966
329.27	0.964
329.48	0.961
329.69	0.943
329.90	0.951
330.11	0.944
330.32	0.939
330.53	0.932
330.74	0.931
330.95	0.929
331.16	0.914
331.37	0.922
331.58	0.922
331.79	0.921
332.00	0.912
332.21	0.905
332.42	0.908
332.63	0.900
332.83	0.895
333.04	0.898
333.25	0.910
333.46	0.909
333.67	0.895
333.88	0.898
334.09	0.906
334.30	0.903
334.51	0.895
334.72	0.891
334.93	0.894
335.14	0.894
335.35	0.886
335.56	0.882
335.77	0.890
335.98	0.889
336.18	0.884
336.39	0.876
336.60	0.882
336.81	0.881
337.02	0.879
337.23	0.885
337.44	0.886
337.65	0.887
337.86	0.877
338.07	0.873
338.28	0.878
338.49	0.876
338.70	0.870
338.91	0.876
339.11	0.882
339.32	0.879
339.53	0.867
339.74	0.865
339.95	0.861
340.16	0.860
340.37	0.852
340.58	0.850
340.79	0.853
341.00	0.852
341.21	0.842
341.41	0.842
341.62	0.844
341.83	0.844
342.04	0.840
342.25	0.851
342.46	0.855
342.67	0.854
342.88	0.847
343.09	0.846
343.30	0.853
343.50	0.856
343.71	0.846
343.92	0.845
344.13	0.849
344.34	0.849
344.55	0.833
344.76	0.831
344.97	0.835
345.18	0.834
345.38	0.831
345.59	0.826
345.80	0.825
346.01	0.824
346.22	0.820
346.43	0.813
346.64	0.821
346.85	0.821
347.06	0.815
347.26	0.814
347.47	0.817
347.68	0.813
347.89	0.810
348.10	0.805
348.31	0.812
348.52	0.811
348.73	0.810
348.93	0.806
349.14	0.808
349.35	0.807
349.56	0.803
349.77	0.799
349.98	0.803
350.19	0.800
350.39	0.796
350.60	0.791
350.81	0.805
351.02	0.803
351.23	0.798
351.44	0.801
351.65	0.804
351.86	0.801
352.06	0.799
352.27	0.799
352.48	0.800
352.69	0.800
352.90	0.796
353.11	0.783
353.31	0.790
353.52	0.787
353.73	0.779
353.94	0.780
354.15	0.786
354.36	0.786
354.57	0.778
354.77	0.780
354.98	0.780
355.19	0.779
355.40	0.779
355.61	0.783
355.82	0.788
356.02	0.787
356.23	0.781
356.44	0.783
356.65	0.785
356.86	0.785
357.07	0.779
357.27	0.781
357.48	0.783
357.69	0.780
357.90	0.766
358.11	0.762
358.32	0.765
358.52	0.767
358.73	0.759
358.94	0.761
359.15	0.766
359.36	0.766
359.56	0.762
359.77	0.760
359.98	0.767
360.19	0.766
360.40	0.763
360.61	0.764
360.81	0.763
361.02	0.763
361.23	0.755
361.44	0.753
361.65	0.755
361.85	0.755
362.06	0.753
362.27	0.754
362.48	0.754
362.69	0.756
362.89	0.750
363.10	0.751
363.31	0.755
363.52	0.758
363.73	0.753
363.93	0.753
364.14	0.753
364.35	0.754
364.56	0.745
364.77	0.746
364.97	0.748
365.18	0.748
365.39	0.744
365.60	0.741
365.81	0.741
366.01	0.741
366.22	0.739
366.43	0.738
366.64	0.741
366.84	0.746
367.05	0.743
367.26	0.742
367.47	0.743
367.68	0.744
367.88	0.741
368.09	0.739
368.30	0.742
368.51	0.742
368.71	0.741
368.92	0.744
369.13	0.742
369.34	0.742
369.55	0.741
369.75	0.742
369.96	0.747
370.17	0.747
370.38	0.744
370.58	0.742
370.79	0.747
371.00	0.746
371.21	0.738
371.41	0.742
371.62	0.746
371.83	0.742
372.04	0.740
372.24	0.734
372.45	0.735
372.66	0.736
372.87	0.734
373.07	0.730
373.28	0.730
373.49	0.733
373.70	0.724
373.90	0.723
374.11	0.731
374.32	0.730
374.53	0.729
374.73	0.730
374.94	0.731
375.15	0.732
375.36	0.730
375.56	0.739
375.77	0.739
375.98	0.740
376.19	0.737
376.39	0.732
376.60	0.736
376.81	0.736
377.02	0.734
377.22	0.734
377.43	0.733
377.64	0.732
377.84	0.724
378.05	0.728
378.26	0.734
378.47	0.733
378.67	0.730
378.88	0.728
379.09	0.728
379.30	0.728
379.50	0.726
379.71	0.728
379.92	0.731
380.12	0.730
380.33	0.722
380.54	0.719
380.75	0.726
380.95	0.726
381.16	0.724
381.37	0.724
381.57	0.726
381.78	0.726
381.99	0.726
382.20	0.725
382.40	0.728
382.61	0.729
382.82	0.726
383.02	0.719
383.23	0.722
383.44	0.722
383.64	0.721
383.85	0.723
384.06	0.726
384.27	0.725
384.47	0.723
384.68	0.723
384.89	0.728
385.09	0.728
385.30	0.727
385.51	0.726
385.71	0.730
385.92	0.730
386.13	0.730
386.33	0.732
386.54	0.733
386.75	0.732
386.95	0.729
387.16	0.724
387.37	0.727
387.58	0.727
387.78	0.725
387.99	0.722
388.20	0.724
388.40	0.720
388.61	0.715
388.82	0.719
389.02	0.721
389.23	0.721
389.44	0.720
389.64	0.721
389.85	0.732
390.06	0.732
390.26	0.733
390.47	0.732
390.68	0.734
390.88	0.733
391.09	0.728
391.30	0.727
391.50	0.728
391.71	0.727
391.92	0.724
392.12	0.716
392.33	0.717
392.53	0.718
392.74	0.718
392.95	0.718
393.15	0.720
393.36	0.722
393.57	0.720
393.77	0.723
393.98	0.725
394.19	0.724
394.39	0.724
394.60	0.725
394.81	0.726
395.01	0.725
395.22	0.724
395.43	0.725
395.63	0.730
395.84	0.732
396.04	0.728
396.25	0.730
396.46	0.732
396.66	0.731
396.87	0.728
397.08	0.725
397.28	0.727
397.49	0.727
397.69	0.723
397.90	0.719
398.11	0.719
398.31	0.720
398.52	0.716
398.73	0.718
398.93	0.717
399.14	0.716
399.34	0.715
399.55	0.717
399.76	0.718
399.96	0.719
400.17	0.718
400.37	0.717
400.58	0.724
400.79	0.726
400.99	0.723
401.20	0.728
401.41	0.731
401.61	0.731
401.82	0.737
402.02	0.736
402.23	0.737
402.44	0.736
402.64	0.736
402.85	0.730
403.05	0.729
403.26	0.728
403.47	0.721
403.67	0.720
403.88	0.720
404.08	0.714
404.29	0.712
404.50	0.712
404.70	0.713
404.91	0.712
405.11	0.709
405.32	0.710
405.52	0.710
405.73	0.710
405.94	0.709
406.14	0.712
406.35	0.714
406.55	0.714
406.76	0.712
406.97	0.713
407.17	0.715
407.38	0.715
407.58	0.713
407.79	0.716
407.99	0.719
408.20	0.719
408.41	0.715
408.61	0.713
408.82	0.714
409.02	0.714
409.23	0.712
409.43	0.711
409.64	0.711
409.84	0.711
410.05	0.708
410.26	0.706
410.46	0.706
410.67	0.705
410.87	0.707
411.08	0.709
411.28	0.710
411.49	0.712
411.69	0.709
411.90	0.711
412.11	0.712
412.31	0.712
412.52	0.711
412.72	0.712
412.93	0.712
413.13	0.711
413.34	0.708
413.54	0.709
413.75	0.711
413.95	0.711
414.16	0.708
414.37	0.712
414.57	0.712
414.78	0.715
414.98	0.713
415.19	0.715
415.39	0.712
415.60	0.714
415.80	0.713
416.01	0.712
416.21	0.713
416.42	0.713
416.62	0.708
416.83	0.708
417.03	0.707
417.24	0.708
417.44	0.705
417.65	0.705
417.86	0.705
418.06	0.703
418.27	0.701
418.47	0.703
418.68	0.704
418.88	0.705
419.09	0.703
419.29	0.703
419.50	0.704
419.70	0.704
419.91	0.703
420.11	0.701
420.32	0.703
420.52	0.703
420.73	0.701
420.93	0.702
421.14	0.703
421.34	0.703
421.55	0.699
421.75	0.698
421.96	0.699
422.16	0.699
422.37	0.698
422.57	0.695
422.78	0.696
422.98	0.693
423.19	0.691
423.39	0.689
423.60	0.692
423.80	0.694
424.01	0.692
424.21	0.694
424.42	0.695
424.62	0.695
424.83	0.694
425.03	0.694
425.23	0.695
425.44	0.696
425.64	0.697
425.85	0.696
426.05	0.696
426.26	0.696
426.46	0.692
426.67	0.692
426.87	0.697
427.08	0.698
427.28	0.696
427.49	0.697
427.69	0.697
427.90	0.696
428.10	0.693
428.31	0.694
428.51	0.695
428.71	0.695
428.92	0.696
429.12	0.692
429.33	0.693
429.53	0.697
429.74	0.701
429.94	0.702
430.15	0.701
430.35	0.700
430.56	0.697
430.76	0.697
430.96	0.697
431.17	0.695
431.37	0.692
431.58	0.690
431.78	0.687
431.99	0.679
432.19	0.681
432.40	0.682
432.60	0.683
432.80	0.685
433.01	0.684
433.21	0.684
433.42	0.685
433.62	0.686
433.83	0.685
434.03	0.688
434.23	0.690
434.44	0.689
434.64	0.687
434.85	0.693
435.05	0.694
435.26	0.694
435.46	0.692
435.66	0.692
435.87	0.692
436.07	0.692
436.28	0.688
436.48	0.685
436.69	0.684
436.89	0.684
437.09	0.677
437.30	0.676
437.50	0.676
437.71	0.688
437.91	0.687
438.11	0.688
438.32	0.692
438.52	0.693
438.73	0.692
438.93	0.690
439.13	0.690
439.34	0.694
439.54	0.692
439.75	0.692
439.95	0.681
440.15	0.686
440.36	0.685
440.56	0.682
440.77	0.682
440.97	0.682
441.17	0.682
441.38	0.682
441.58	0.679
441.79	0.679
441.99	0.678
442.19	0.677
442.40	0.674
442.60	0.675
442.81	0.673
443.01	0.673
443.21	0.673
443.42	0.672
443.62	0.671
443.82	0.671
444.03	0.672
444.23	0.671
444.44	0.671
444.64	0.670
444.84	0.671
445.05	0.670
445.25	0.668
445.45	0.668
445.66	0.671
445.86	0.670
446.06	0.672
446.27	0.671
446.47	0.674
446.68	0.672
446.88	0.671
447.08	0.671
447.29	0.673
447.49	0.673
447.69	0.673
447.90	0.671
448.10	0.674
448.30	0.671
448.51	0.673
448.71	0.670
448.91	0.673
449.12	0.671
449.32	0.673
449.52	0.671
449.73	0.674
449.93	0.673
450.14	0.674
450.34	0.673
450.54	0.676
450.75	0.673
450.95	0.672
451.15	0.672
451.36	0.674
451.56	0.671
451.76	0.670
451.97	0.668
452.17	0.668
452.37	0.666
452.58	0.663
452.78	0.662
452.98	0.664
453.19	0.664
453.39	0.665
453.59	0.663
453.79	0.664
454.00	0.664
454.20	0.663
454.40	0.663
454.61	0.665
454.81	0.666
455.01	0.665
455.22	0.665
455.42	0.667
455.62	0.664
455.83	0.664
456.03	0.668
456.23	0.669
456.44	0.670
456.64	0.669
456.84	0.669
457.04	0.669
457.25	0.668
457.45	0.665
457.65	0.664
457.86	0.665
458.06	0.663
458.26	0.659
458.47	0.657
458.67	0.658
458.87	0.658
459.07	0.656
459.28	0.658
459.48	0.661
459.68	0.661
459.89	0.660
460.09	0.659
460.29	0.661
460.49	0.662
460.70	0.661
460.90	0.661
461.10	0.662
461.31	0.661
461.51	0.658
461.71	0.660
461.91	0.661
462.12	0.661
462.32	0.660
462.52	0.661
462.72	0.663
462.93	0.664
463.13	0.662
463.33	0.663
463.53	0.665
463.74	0.664
463.94	0.659
464.14	0.660
464.35	0.661
464.55	0.661
464.75	0.660
464.95	0.658
465.16	0.660
465.36	0.658
465.56	0.657
465.76	0.656
465.97	0.657
466.17	0.657
466.37	0.655
466.57	0.656
466.78	0.657
466.98	0.656
467.18	0.654
467.38	0.653
467.59	0.655
467.79	0.656
467.99	0.655
468.19	0.656
468.39	0.659
468.60	0.660
468.80	0.658
469.00	0.660
469.20	0.661
469.41	0.661
469.61	0.660
469.81	0.661
470.01	0.660
470.22	0.661
470.42	0.659
470.62	0.656
470.82	0.657
471.02	0.656
471.23	0.654
471.43	0.655
471.63	0.657
471.83	0.656
472.04	0.655
472.24	0.654
472.44	0.659
472.64	0.660
472.84	0.658
473.05	0.658
473.25	0.660
473.45	0.659
473.65	0.658
473.85	0.658
474.06	0.660
474.26	0.659
474.46	0.661
474.66	0.657
474.86	0.657
475.07	0.657
475.27	0.655
475.47	0.652
475.67	0.653
475.87	0.655
476.08	0.652
476.28	0.652
476.48	0.654
476.68	0.652
476.88	0.650
477.09	0.651
477.29	0.653
477.49	0.653
477.69	0.652
477.89	0.653
478.09	0.652
478.30	0.654
478.50	0.652
478.70	0.652
478.90	0.652
479.10	0.655
479.31	0.656
479.51	0.655
479.71	0.656
479.91	0.655
480.11	0.654
480.31	0.654
480.52	0.653
480.72	0.653
480.92	0.652
481.12	0.651
481.32	0.649
481.52	0.646
481.72	0.646
481.93	0.650
482.13	0.650
482.33	0.650
482.53	0.648
482.73	0.649
482.93	0.650
483.14	0.649
483.34	0.649
483.54	0.649
483.74	0.649
483.94	0.648
484.14	0.644
484.34	0.644
484.55	0.644
484.75	0.644
484.95	0.642
485.15	0.641
485.35	0.642
485.55	0.641
485.75	0.639
485.96	0.639
486.16	0.640
486.36	0.639
486.56	0.637
486.76	0.637
486.96	0.637
487.16	0.636
487.36	0.635
487.57	0.635
487.77	0.635
487.97	0.636
488.17	0.635
488.37	0.634
488.57	0.635
488.77	0.635
488.97	0.634
489.18	0.634
489.38	0.636
489.58	0.637
489.78	0.636
489.98	0.636
490.18	0.636
490.38	0.637
490.58	0.635
490.78	0.636
490.98	0.637
491.19	0.637
491.39	0.637
491.59	0.636
491.79	0.638
491.99	0.639
492.19	0.639
492.39	0.642
492.59	0.642
492.79	0.644
492.99	0.644
493.20	0.645
493.40	0.645
493.60	0.647
493.80	0.645
494.00	0.643
494.20	0.643
494.40	0.643
494.60	0.640
494.80	0.644
495.00	0.643
495.20	0.641
495.40	0.639
495.61	0.641
495.81	0.640
496.01	0.643
496.21	0.644
496.41	0.643
496.61	0.644
496.81	0.643
497.01	0.638
497.21	0.637
497.41	0.637
497.61	0.637
497.81	0.634
498.01	0.635
498.21	0.634
498.41	0.631
498.61	0.631
498.82	0.633
499.02	0.634
499.22	0.635
499.42	0.635
499.62	0.636
499.82	0.637
500.02	0.639
500.22	0.637
500.42	0.639
500.62	0.640
500.82	0.640
501.02	0.638
501.22	0.638
501.42	0.639
501.62	0.641
501.82	0.640
502.02	0.640
502.22	0.640
502.42	0.642
502.62	0.639
502.82	0.639
503.02	0.640
503.22	0.640
503.42	0.638
503.63	0.637
503.83	0.635
504.03	0.634
504.23	0.632
504.43	0.633
504.63	0.634
504.83	0.633
505.03	0.632
505.23	0.634
505.43	0.636
505.63	0.636
505.83	0.636
506.03	0.637
506.23	0.640
506.43	0.640
506.63	0.639
506.83	0.638
507.03	0.640
507.23	0.640
507.43	0.637
507.63	0.638
507.83	0.638
508.03	0.638
508.23	0.638
508.43	0.636
508.63	0.637
508.83	0.638
509.03	0.639
509.23	0.638
509.43	0.640
509.63	0.640
509.83	0.639
510.03	0.642
510.23	0.643
510.43	0.644
510.63	0.645
510.83	0.645
511.03	0.646
511.23	0.643
511.43	0.643
511.63	0.644
511.83	0.646
512.03	0.647
512.22	0.643
512.42	0.642
512.62	0.643
512.82	0.643
513.02	0.642
513.22	0.641
513.42	0.643
513.62	0.645
513.82	0.643
514.02	0.643
514.22	0.643
514.42	0.644
514.62	0.644
514.82	0.644
515.02	0.646
515.22	0.650
515.42	0.649
515.62	0.651
515.82	0.651
516.02	0.652
516.22	0.652
516.42	0.654
516.62	0.655
516.82	0.656
517.01	0.654
517.21	0.653
517.41	0.656
517.61	0.657
517.81	0.653
518.01	0.652
518.21	0.652
518.41	0.650
518.61	0.648
518.81	0.649
519.01	0.649
519.21	0.650
519.41	0.649
519.61	0.644
519.81	0.646
520.00	0.646
520.20	0.647
520.40	0.650
520.60	0.651
520.80	0.650
521.00	0.651
521.20	0.652
521.40	0.657
521.60	0.658
521.80	0.657
522.00	0.657
522.20	0.659
522.39	0.658
522.59	0.656
522.79	0.657
522.99	0.659
523.19	0.657
523.39	0.655
523.59	0.652
523.79	0.655
523.99	0.658
524.19	0.657
524.38	0.656
524.58	0.657
524.78	0.657
524.98	0.656
525.18	0.658
525.38	0.659
525.58	0.659
525.78	0.658
525.98	0.656
526.18	0.656
526.37	0.656
526.57	0.658
526.77	0.657
526.97	0.658
527.17	0.659
527.37	0.655
527.57	0.657
527.77	0.658
527.96	0.658
528.16	0.657
528.36	0.658
528.56	0.660
528.76	0.657
528.96	0.657
529.16	0.658
529.36	0.660
529.55	0.660
529.75	0.658
529.95	0.658
530.15	0.659
530.35	0.662
530.55	0.659
530.75	0.660
530.94	0.661
531.14	0.662
531.34	0.660
531.54	0.658
531.74	0.661
531.94	0.664
532.13	0.662
532.33	0.664
532.53	0.663
532.73	0.662
532.93	0.660
533.13	0.661
533.33	0.661
533.52	0.662
533.72	0.665
533.92	0.663
534.12	0.660
534.32	0.661
534.52	0.659
534.71	0.660
534.91	0.663
535.11	0.665
535.31	0.663
535.51	0.665
535.71	0.667
535.90	0.664
536.10	0.665
536.30	0.668
536.50	0.668
536.70	0.668
536.89	0.666
537.09	0.666
537.29	0.667
537.49	0.668
537.69	0.666
537.89	0.667
538.08	0.666
538.28	0.664
538.48	0.664
538.68	0.666
538.88	0.668
539.07	0.668
539.27	0.666
539.47	0.666
539.67	0.666
539.87	0.667
540.06	0.666
540.26	0.667
540.46	0.669
540.66	0.666
540.86	0.664
541.05	0.664
541.25	0.665
541.45	0.665
541.65	0.663
541.84	0.665
542.04	0.665
542.24	0.665
542.44	0.664
542.64	0.666
542.83	0.669
543.03	0.669
543.23	0.667
543.43	0.668
543.62	0.669
543.82	0.669
544.02	0.668
544.22	0.669
544.42	0.672
544.61	0.673
544.81	0.669
545.01	0.668
545.21	0.670
545.40	0.671
545.60	0.670
545.80	0.672
546.00	0.672
546.19	0.671
546.39	0.670
546.59	0.668
546.79	0.669
546.98	0.670
547.18	0.670
547.38	0.670
547.58	0.672
547.77	0.672
547.97	0.668
548.17	0.670
548.37	0.671
548.56	0.670
548.76	0.670
548.96	0.672
549.16	0.674
549.35	0.674
549.55	0.672
549.75	0.672
549.95	0.676
550.14	0.677
550.34	0.675
550.54	0.680
550.73	0.684
550.93	0.684
551.13	0.681
551.33	0.679
551.52	0.680
551.72	0.680
551.92	0.678
552.12	0.679
552.31	0.679
552.51	0.679
552.71	0.675
552.90	0.675
553.10	0.676
553.30	0.676
553.50	0.676
553.69	0.677
553.89	0.678
554.09	0.677
554.28	0.674
554.48	0.675
554.68	0.677
554.87	0.677
555.07	0.673
555.27	0.674
555.47	0.675
555.66	0.675
555.86	0.674
556.06	0.677
556.25	0.679
556.45	0.686
556.65	0.684
556.84	0.687
557.04	0.690
557.24	0.692
557.43	0.691
557.63	0.695
557.83	0.697
558.02	0.697
558.22	0.701
558.42	0.701
558.61	0.694
558.81	0.694
559.01	0.691
559.21	0.691
559.40	0.691
559.60	0.692
559.80	0.688
559.99	0.689
560.19	0.691
560.39	0.685
560.58	0.682
560.78	0.683
560.97	0.687
561.17	0.685
561.37	0.682
561.56	0.683
561.76	0.685
561.96	0.685
562.15	0.682
562.35	0.684
562.55	0.685
562.74	0.686
562.94	0.684
563.14	0.682
563.33	0.682
563.53	0.682
563.73	0.680
563.92	0.681
564.12	0.684
564.31	0.686
564.51	0.684
564.71	0.686
564.90	0.688
565.10	0.689
565.30	0.692
565.49	0.693
565.69	0.695
565.89	0.695
566.08	0.693
566.28	0.694
566.47	0.695
566.67	0.694
566.87	0.691
567.06	0.693
567.26	0.699
567.46	0.696
567.65	0.695
567.85	0.697
568.04	0.699
568.24	0.699
568.44	0.696
568.63	0.694
568.83	0.696
569.02	0.695
569.22	0.690
569.42	0.686
569.61	0.688
569.81	0.687
570.00	0.685
570.20	0.686
570.40	0.687
570.59	0.687
570.79	0.686
570.98	0.684
571.18	0.685
571.38	0.685
571.57	0.683
571.77	0.681
571.96	0.685
572.16	0.682
572.35	0.676
572.55	0.677
572.75	0.675
572.94	0.675
573.14	0.673
573.33	0.674
573.53	0.674
573.73	0.673
573.92	0.671
574.12	0.668
574.31	0.671
574.51	0.673
574.70	0.670
574.90	0.672
575.09	0.674
575.29	0.675
575.49	0.672
575.68	0.673
575.88	0.674
576.07	0.675
576.27	0.672
576.46	0.671
576.66	0.670
576.86	0.669
577.05	0.667
577.25	0.665
577.44	0.666
577.64	0.666
577.83	0.664
578.03	0.665
578.22	0.664
578.42	0.665
578.61	0.663
578.81	0.664
579.00	0.664
579.20	0.663
579.40	0.662
579.59	0.661
579.79	0.661
579.98	0.661
580.18	0.660
580.37	0.661
580.57	0.663
580.76	0.668
580.96	0.666
581.15	0.666
581.35	0.669
581.54	0.668
581.74	0.668
581.93	0.670
582.13	0.671
582.32	0.668
582.52	0.665
582.71	0.664
582.91	0.660
583.10	0.660
583.30	0.659
583.49	0.658
583.69	0.662
583.88	0.663
584.08	0.662
584.27	0.664
584.47	0.667
584.66	0.669
584.86	0.668
585.05	0.670
585.25	0.672
585.44	0.672
585.64	0.670
585.83	0.667
586.03	0.667
586.22	0.665
586.42	0.661
586.61	0.662
586.81	0.663
587.00	0.663
587.20	0.661
587.39	0.661
587.59	0.663
587.78	0.664
587.98	0.665
588.17	0.666
588.37	0.668
588.56	0.670
588.76	0.667
588.95	0.667
589.15	0.671
589.34	0.673
589.54	0.672
589.73	0.673
589.92	0.677
590.12	0.677
590.31	0.675
590.51	0.681
590.70	0.683
590.90	0.683
591.09	0.682
591.29	0.681
591.48	0.680
591.68	0.681
591.87	0.679
592.06	0.678
592.26	0.680
592.45	0.679
592.65	0.673
592.84	0.672
593.04	0.675
593.23	0.677
593.43	0.674
593.62	0.673
593.81	0.674
594.01	0.673
594.20	0.671
594.40	0.669
594.59	0.671
594.79	0.672
594.98	0.670
595.17	0.669
595.37	0.670
595.56	0.672
595.76	0.671
595.95	0.673
596.14	0.676
596.34	0.677
596.53	0.676
596.73	0.678
596.92	0.680
597.12	0.683
597.31	0.683
597.50	0.683
597.70	0.685
597.89	0.684
598.09	0.681
598.28	0.682
598.47	0.684
598.67	0.682
598.86	0.678
599.06	0.680
599.25	0.679
599.44	0.677
599.64	0.674
599.83	0.672
600.03	0.675
600.22	0.675
600.41	0.675
600.61	0.672
600.80	0.675
601.00	0.675
601.19	0.671
601.38	0.670
601.58	0.672
601.77	0.674
601.96	0.676
602.16	0.676
602.35	0.685
602.55	0.682
602.74	0.684
602.93	0.685
603.13	0.691
603.32	0.692
603.51	0.692
603.71	0.696
603.90	0.697
604.09	0.698
604.29	0.696
604.48	0.690
604.68	0.692
604.87	0.691
605.06	0.687
605.26	0.684
605.45	0.685
605.64	0.684
605.84	0.679
606.03	0.678
606.22	0.677
606.42	0.676
606.61	0.672
606.80	0.672
607.00	0.673
607.19	0.673
607.38	0.671
607.58	0.672
607.77	0.674
607.96	0.674
608.16	0.672
608.35	0.675
608.54	0.678
608.74	0.681
608.93	0.686
609.12	0.689
609.32	0.691
609.51	0.695
609.70	0.694
609.90	0.697
610.09	0.701
610.28	0.707
610.48	0.702
610.67	0.703
610.86	0.704
611.06	0.699
611.25	0.697
611.44	0.698
611.64	0.697
611.83	0.700
612.02	0.696
612.21	0.695
612.41	0.694
612.60	0.693
612.79	0.689
612.99	0.689
613.18	0.691
613.37	0.689
613.57	0.686
613.76	0.687
613.95	0.685
614.14	0.684
614.34	0.681
614.53	0.682
614.72	0.685
614.92	0.684
615.11	0.681
615.30	0.678
615.49	0.678
615.69	0.681
615.88	0.678
616.07	0.679
616.26	0.681
616.46	0.682
616.65	0.679
616.84	0.678
617.04	0.679
617.23	0.683
617.42	0.684
617.61	0.688
617.81	0.688
618.00	0.689
618.19	0.688
618.38	0.692
618.58	0.695
618.77	0.697
618.96	0.696
619.15	0.698
619.35	0.699
619.54	0.700
619.73	0.696
619.92	0.698
620.12	0.703
620.31	0.703
620.50	0.699
620.69	0.698
620.89	0.701
621.08	0.701
621.27	0.702
621.46	0.700
621.66	0.703
621.85	0.704
622.04	0.701
622.23	0.702
622.43	0.703
622.62	0.703
622.81	0.703
623.00	0.702
623.19	0.705
623.39	0.704
623.58	0.702
623.77	0.701
623.96	0.703
624.16	0.702
624.35	0.696
624.54	0.698
624.73	0.702
624.92	0.699
625.12	0.696
625.31	0.697
625.50	0.700
625.69	0.701
625.88	0.697
626.08	0.697
626.27	0.699
626.46	0.700
626.65	0.697
626.84	0.696
627.04	0.702
627.23	0.703
627.42	0.698
627.61	0.700
627.80	0.702
628.00	0.702
628.19	0.701
628.38	0.704
628.57	0.706
628.76	0.706
628.96	0.703
629.15	0.704
629.34	0.706
629.53	0.707
629.72	0.702
629.91	0.702
630.11	0.706
630.30	0.706
630.49	0.709
630.68	0.709
630.87	0.711
631.06	0.713
631.26	0.708
631.45	0.709
631.64	0.717
631.83	0.719
632.02	0.717
632.21	0.717
632.41	0.723
632.60	0.718
632.79	0.716
632.98	0.718
633.17	0.718
633.36	0.720
633.55	0.717
633.75	0.713
633.94	0.715
634.13	0.715
634.32	0.714
634.51	0.708
634.70	0.710
634.89	0.710
635.09	0.706
635.28	0.707
635.47	0.707
635.66	0.709
635.85	0.706
636.04	0.706
636.23	0.710
636.43	0.710
636.62	0.711
636.81	0.709
637.00	0.711
637.19	0.715
637.38	0.712
637.57	0.711
637.76	0.712
637.95	0.712
638.15	0.710
638.34	0.706
638.53	0.709
638.72	0.710
638.91	0.708
639.10	0.706
639.29	0.706
639.48	0.706
639.67	0.707
639.87	0.706
640.06	0.711
640.25	0.711
640.44	0.713
640.63	0.714
640.82	0.716
641.01	0.717
641.20	0.717
641.39	0.719
641.58	0.722
641.78	0.720
641.97	0.717
642.16	0.731
642.35	0.731
642.54	0.728
642.73	0.723
642.92	0.721
643.11	0.724
643.30	0.724
643.49	0.719
643.68	0.721
643.87	0.723
644.06	0.723
644.25	0.703
644.45	0.706
644.64	0.707
644.83	0.708
645.02	0.704
645.21	0.703
645.40	0.705
645.59	0.704
645.78	0.699
645.97	0.702
646.16	0.702
646.35	0.702
646.54	0.701
646.73	0.702
646.92	0.705
647.11	0.704
647.30	0.702
647.49	0.702
647.68	0.702
647.88	0.700
648.07	0.694
648.26	0.697
648.45	0.699
648.64	0.695
648.83	0.692
649.02	0.694
649.21	0.704
649.40	0.702
649.59	0.698
649.78	0.698
649.97	0.712
650.16	0.711
650.35	0.705
650.54	0.708
650.73	0.715
650.92	0.712
651.11	0.706
651.30	0.703
651.49	0.708
651.68	0.709
651.87	0.706
652.06	0.696
652.25	0.700
652.44	0.703
652.63	0.702
652.82	0.704
653.01	0.705
653.20	0.703
653.39	0.692
653.58	0.690
653.77	0.689
653.96	0.684
654.15	0.676
654.34	0.674
654.53	0.669
654.72	0.662
654.91	0.652
655.10	0.648
655.29	0.645
655.48	0.643
655.67	0.638
655.86	0.635
656.05	0.634
656.24	0.633
656.43	0.628
656.62	0.627
656.81	0.627
657.00	0.623
657.19	0.620
657.38	0.619
657.57	0.618
657.76	0.619
657.95	0.617
658.14	0.620
658.33	0.622
658.51	0.626
658.70	0.626
658.89	0.628
659.08	0.637
659.27	0.645
659.46	0.646
659.65	0.653
659.84	0.657
660.03	0.660
660.22	0.660
660.41	0.665
660.60	0.665
660.79	0.666
660.98	0.673
661.17	0.671
661.36	0.671
661.55	0.672
661.74	0.671
661.92	0.674
662.11	0.675
662.30	0.674
662.49	0.668
662.68	0.667
662.87	0.670
663.06	0.664
663.25	0.666
663.44	0.665
663.63	0.667
663.82	0.665
664.01	0.660
664.20	0.659
664.38	0.660
664.57	0.661
664.76	0.661
664.95	0.661
665.14	0.665
665.33	0.660
665.52	0.667
665.71	0.670
665.90	0.670
666.09	0.671
666.28	0.669
666.46	0.669
666.65	0.669
666.84	0.667
667.03	0.662
667.22	0.660
667.41	0.663
667.60	0.653
667.79	0.647
667.98	0.648
668.16	0.650
668.35	0.649
668.54	0.645
668.73	0.645
668.92	0.645
669.11	0.644
669.30	0.639
669.49	0.635
669.67	0.636
669.86	0.638
670.05	0.636
670.24	0.633
670.43	0.630
670.62	0.630
670.81	0.626
671.00	0.626
671.18	0.626
671.37	0.626
671.56	0.623
671.75	0.622
671.94	0.619
672.13	0.617
672.32	0.613
672.50	0.613
672.69	0.612
672.88	0.612
673.07	0.608
673.26	0.610
673.45	0.611
673.63	0.611
673.82	0.609
674.01	0.610
674.20	0.610
674.39	0.609
674.58	0.609
674.76	0.609
674.95	0.608
675.14	0.608
675.33	0.603
675.52	0.602
675.71	0.601
675.89	0.600
676.08	0.596
676.27	0.597
676.46	0.597
676.65	0.597
676.84	0.596
677.02	0.598
677.21	0.600
677.40	0.599
677.59	0.598
677.78	0.599
677.96	0.601
678.15	0.600
678.34	0.598
678.53	0.599
678.72	0.599
678.90	0.595
679.09	0.592
679.28	0.588
679.47	0.588
679.66	0.588
679.84	0.585
680.03	0.582
680.22	0.581
680.41	0.582
680.60	0.578
680.78	0.578
680.97	0.581
681.16	0.581
681.35	0.580
681.53	0.579
681.72	0.580
681.91	0.582
682.10	0.580
682.29	0.583
682.47	0.580
682.66	0.578
682.85	0.576
683.04	0.574
683.22	0.574
683.41	0.575
683.60	0.574
683.79	0.575
683.97	0.574
684.16	0.573
684.35	0.570
684.54	0.571
684.72	0.573
684.91	0.574
685.10	0.572
685.29	0.573
685.47	0.570
685.66	0.569
685.85	0.566
686.04	0.565
686.22	0.567
686.41	0.570
686.60	0.568
686.79	0.570
686.97	0.571
687.16	0.572
687.35	0.569
687.54	0.573
687.72	0.577
687.91	0.577
688.10	0.579
688.29	0.579
688.47	0.576
688.66	0.576
688.85	0.573
689.03	0.571
689.22	0.575
689.41	0.575
689.60	0.571
689.78	0.568
689.97	0.569
690.16	0.566
690.34	0.562
690.53	0.562
690.72	0.562
690.91	0.560
691.09	0.557
691.28	0.552
691.47	0.550
691.65	0.548
691.84	0.545
692.03	0.544
692.21	0.542
692.40	0.542
692.59	0.540
692.77	0.539
692.96	0.540
693.15	0.541
693.34	0.539
693.52	0.539
693.71	0.539
693.90	0.541
694.08	0.541
694.27	0.542
694.46	0.552
694.64	0.552
694.83	0.551
695.02	0.550
695.20	0.550
695.39	0.549
695.58	0.549
695.76	0.550
695.95	0.549
696.14	0.547
696.32	0.545
696.51	0.535
696.70	0.535
696.88	0.535
697.07	0.534
697.26	0.536
697.44	0.537
697.63	0.536
697.81	0.533
698.00	0.533
698.19	0.533
698.37	0.533
698.56	0.533
698.75	0.533
698.93	0.533
699.12	0.533
699.31	0.532
699.49	0.532
699.68	0.533
699.87	0.535
700.05	0.535
700.24	0.535
700.42	0.537
700.61	0.536
700.80	0.534
700.98	0.534
701.17	0.535
701.36	0.534
701.54	0.534
701.73	0.535
701.91	0.532
702.10	0.532
702.29	0.530
702.47	0.529
702.66	0.531
702.84	0.532
703.03	0.530
703.22	0.530
703.40	0.530
703.59	0.531
703.77	0.531
703.96	0.531
704.15	0.531
704.33	0.531
704.52	0.530
704.70	0.529
704.89	0.529
705.08	0.528
705.26	0.525
705.45	0.525
705.63	0.524
705.82	0.521
706.00	0.520
706.19	0.520
706.38	0.521
706.56	0.520
706.75	0.519
706.93	0.517
707.12	0.518
707.30	0.519
707.49	0.516
707.68	0.514
707.86	0.514
708.05	0.513
708.23	0.510
708.42	0.510
708.60	0.513
708.79	0.512
708.98	0.511
709.16	0.510
709.35	0.512
709.53	0.516
709.72	0.515
709.90	0.517
710.09	0.518
710.27	0.520
710.46	0.523
710.64	0.522
710.83	0.523
711.02	0.525
711.20	0.524
711.39	0.523
711.57	0.521
711.76	0.521
711.94	0.519
712.13	0.520
712.31	0.520
712.50	0.516
712.68	0.513
712.87	0.514
713.05	0.514
713.24	0.515
713.42	0.515
713.61	0.516
713.79	0.517
713.98	0.517
714.16	0.518
714.35	0.517
714.54	0.518
714.72	0.519
714.91	0.516
715.09	0.523
715.28	0.525
715.46	0.524
715.65	0.522
715.83	0.521
716.02	0.524
716.20	0.520
716.39	0.520
716.57	0.521
716.76	0.523
716.94	0.523
717.12	0.516
717.31	0.517
717.49	0.520
717.68	0.523
717.86	0.522
718.05	0.523
718.23	0.526
718.42	0.528
718.60	0.529
718.79	0.537
718.97	0.539
719.16	0.539
719.34	0.536
719.53	0.536
719.71	0.536
719.90	0.537
720.08	0.535
720.27	0.535
720.45	0.534
720.63	0.533
720.82	0.526
721.00	0.528
721.19	0.532
721.37	0.530
721.56	0.531
721.74	0.532
721.93	0.541
722.11	0.547
722.30	0.547
722.48	0.551
722.66	0.552
722.85	0.552
723.03	0.553
723.22	0.551
723.40	0.555
723.59	0.555
723.77	0.559
723.95	0.552
724.14	0.555
724.32	0.557
724.51	0.557
724.69	0.559
724.88	0.558
725.06	0.556
725.24	0.557
725.43	0.558
725.61	0.560
725.80	0.555
725.98	0.554
726.16	0.550
726.35	0.556
726.53	0.555
726.72	0.553
726.90	0.564
727.09	0.564
727.27	0.570
727.45	0.568
727.64	0.576
727.82	0.584
728.01	0.587
728.19	0.584
728.37	0.589
728.56	0.592
728.74	0.598
728.92	0.586
729.11	0.589
729.29	0.587
729.48	0.590
729.66	0.580
729.84	0.579
730.03	0.583
730.21	0.584
730.40	0.575
730.58	0.575
730.76	0.575
730.95	0.577
731.13	0.578
731.31	0.590
731.50	0.598
731.68	0.602
731.86	0.599
732.05	0.613
732.23	0.616
732.42	0.619
732.60	0.623
732.78	0.628
732.97	0.645
733.15	0.652
733.33	0.642
733.52	0.648
733.70	0.658
733.88	0.666
734.07	0.653
734.25	0.678
734.43	0.684
734.62	0.686
734.80	0.682
734.98	0.672
735.17	0.678
735.35	0.683
735.53	0.672
735.72	0.675
735.90	0.697
736.08	0.715
736.27	0.694
736.45	0.703
736.63	0.715
736.82	0.724
737.00	0.724
737.18	0.735
737.37	0.763
737.55	0.787
737.73	0.781
737.92	0.780
738.10	0.777
738.28	0.795
738.46	0.784
738.65	0.797
738.83	0.815
739.01	0.867
739.20	0.858
739.38	0.842
739.56	0.831
739.75	0.836
739.93	0.804
740.11	0.826
740.29	0.824
740.48	0.832
740.66	0.811
740.84	0.807
741.03	0.772
741.21	0.780
741.39	0.764
741.57	0.776
741.76	0.789
741.94	0.796
742.12	0.764
742.31	0.772
742.49	0.790
742.67	0.814
742.85	0.829
743.04	0.833
743.22	0.840
743.40	0.888
743.58	0.872
743.77	0.887
743.95	0.912
744.13	0.957
744.31	0.942
744.50	0.934
744.68	0.924
744.86	0.900
745.04	0.907
745.23	0.964
745.41	0.951
745.59	0.957
745.77	0.925
745.96	0.921
746.14	0.925
746.32	0.921
746.50	0.913
746.69	0.902
746.87	0.909
747.05	0.896
747.23	0.832
747.42	0.813
747.60	0.833
747.78	0.837
747.96	0.861
748.14	0.825
748.33	0.852
748.51	0.848
748.69	0.842
748.87	0.866
749.06	0.864
749.24	0.863
749.42	0.857
749.60	0.839
749.78	0.845
749.97	0.804
750.15	0.801
750.33	0.800
750.51	0.819
750.69	0.826
750.88	0.833
751.06	0.840
751.24	0.860
751.42	0.852
751.60	0.849
751.79	0.918
751.97	0.956
752.15	0.959
752.33	0.927
752.51	0.984
752.69	0.992
752.88	0.963
753.06	1.007
753.24	0.992
753.42	1.019
753.60	1.164
753.78	1.040
753.97	1.061
754.15	1.067
754.33	1.093
754.51	0.991
754.69	0.977
754.87	0.999
755.06	0.936
755.24	0.933
755.42	0.941
755.60	0.849
755.78	0.857
755.96	0.811
756.15	0.812
756.33	0.814
756.51	0.829
756.69	0.818
756.87	0.787
757.05	0.806
757.23	0.793
757.42	0.766
757.60	0.765
757.78	0.752
757.96	0.748
758.14	0.736
758.32	0.725
758.50	0.735
758.69	0.738
758.87	0.732
759.05	0.733
759.23	0.741
759.41	0.742
759.59	0.739
759.77	0.761
759.95	0.786
760.13	0.831
760.32	0.830
760.50	0.825
760.68	0.843
760.86	0.843
761.04	0.819
761.22	0.823
761.40	0.864
761.58	0.865
761.76	0.838
761.95	0.821
762.13	0.777
762.31	0.777
762.49	0.751
762.67	0.767
762.85	0.781
763.03	0.777
763.21	0.759
763.39	0.742
763.57	0.742
763.75	0.738
763.94	0.727
764.12	0.729
764.30	0.752
764.48	0.756
764.66	0.724
764.84	0.720
765.02	0.753
765.20	0.764
765.38	0.746
765.56	0.751
765.74	0.788
765.92	0.789
766.10	0.796
766.28	0.788
766.46	0.814
766.65	0.813
766.83	0.803
767.01	0.788
767.19	0.787
767.37	0.788
767.55	0.778
767.73	0.758
767.91	0.759
768.09	0.749
768.27	0.737
768.45	0.727
768.63	0.733
768.81	0.736
768.99	0.713
769.17	0.734
769.35	0.746
769.53	0.742
769.71	0.726
769.89	0.733
770.07	0.735
770.25	0.723
770.43	0.704
770.61	0.724
770.79	0.729
770.97	0.737
771.15	0.712
771.33	0.715
771.51	0.717
771.69	0.727
771.87	0.734
772.05	0.741
772.24	0.746
772.42	0.755
772.60	0.733
772.78	0.785
772.96	0.812
773.14	0.807
773.32	0.786
773.49	0.792
773.67	0.790
773.85	0.771
774.03	0.761
774.21	0.789
774.39	0.798
774.57	0.818
774.75	0.754
774.93	0.747
775.11	0.769
775.29	0.779
775.47	0.780
775.65	0.788
775.83	0.805
776.01	0.826
776.19	0.786
776.37	0.785
776.55	0.787
776.73	0.784
776.91	0.780
777.09	0.761
777.27	0.755
777.45	0.745
777.63	0.728
777.81	0.723
777.99	0.709
778.17	0.706
778.35	0.690
778.53	0.678
778.71	0.683
778.89	0.673
779.07	0.664
779.24	0.672
779.42	0.672
779.60	0.688
779.78	0.685
779.96	0.690
780.14	0.698
780.32	0.715
780.50	0.702
780.68	0.701
780.86	0.693
781.04	0.710
781.22	0.714
781.40	0.723
781.58	0.712
781.75	0.706
781.93	0.692
782.11	0.691
782.29	0.679
782.47	0.677
782.65	0.667
782.83	0.692
783.01	0.686
783.19	0.680
783.37	0.669
783.55	0.672
783.72	0.688
783.90	0.697
784.08	0.691
784.26	0.701
784.44	0.719
784.62	0.721
784.80	0.692
784.98	0.696
785.16	0.702
785.33	0.714
785.51	0.704
785.69	0.692
785.87	0.689
786.05	0.698
786.23	0.695
786.41	0.695
786.59	0.701
786.77	0.702
786.94	0.691
787.12	0.692
787.30	0.693
787.48	0.689
787.66	0.679
787.84	0.681
788.02	0.672
788.19	0.671
788.37	0.658
788.55	0.659
788.73	0.658
788.91	0.654
789.09	0.640
789.27	0.631
789.44	0.640
789.62	0.645
789.80	0.653
789.98	0.676
790.16	0.665
790.34	0.662
790.51	0.650
790.69	0.668
790.87	0.673
791.05	0.670
791.23	0.664
791.41	0.666
791.58	0.673
791.76	0.655
791.94	0.628
792.12	0.634
792.30	0.636
792.48	0.634
792.65	0.627
792.83	0.632
793.01	0.638
793.19	0.637
793.37	0.625
793.54	0.622
793.72	0.631
793.90	0.627
794.08	0.621
794.26	0.621
794.43	0.629
794.61	0.616
794.79	0.607
794.97	0.605
795.15	0.608
795.32	0.611
795.50	0.601
795.68	0.597
795.86	0.600
796.04	0.599
796.21	0.595
796.39	0.592
796.57	0.604
796.75	0.609
796.92	0.611
797.10	0.614
797.28	0.615
797.46	0.618
797.64	0.621
797.81	0.629
797.99	0.634
798.17	0.638
798.35	0.634
798.52	0.638
798.70	0.635
798.88	0.643
799.06	0.645
799.23	0.648
799.41	0.653
799.59	0.645
799.77	0.635
799.94	0.641
800.12	0.648
800.30	0.664
800.48	0.663
800.65	0.662
800.83	0.651
801.01	0.644
801.19	0.642
801.36	0.641
801.54	0.644
801.72	0.653
801.90	0.641
802.07	0.637
802.25	0.623
802.43	0.608
802.60	0.606
802.78	0.613
802.96	0.618
803.14	0.613
803.31	0.612
803.49	0.611
803.67	0.607
803.84	0.612
804.02	0.604
804.20	0.606
804.38	0.610
804.55	0.609
804.73	0.597
804.91	0.595
805.08	0.605
805.26	0.601
805.44	0.662
805.61	0.666
805.79	0.666
805.97	0.665
806.15	0.659
806.32	0.656
806.50	0.662
806.68	0.662
806.85	0.655
807.03	0.649
807.21	0.666
807.38	0.602
807.56	0.591
807.74	0.600
807.91	0.607
808.09	0.608
808.27	0.625
808.44	0.650
808.62	0.657
808.80	0.659
808.97	0.654
809.15	0.648
809.33	0.664
809.50	0.671
809.68	0.658
809.86	0.667
810.03	0.696
810.21	0.677
810.39	0.659
810.56	0.664
810.74	0.687
810.91	0.753
811.09	0.744
811.27	0.762
811.44	0.765
811.62	0.769
811.80	0.752
811.97	0.724
812.15	0.725
812.33	0.720
812.50	0.708
812.68	0.694
812.85	0.643
813.03	0.643
813.21	0.614
813.38	0.609
813.56	0.610
813.74	0.619
813.91	0.627
814.09	0.652
814.26	0.645
814.44	0.649
814.62	0.641
814.79	0.642
814.97	0.647
815.14	0.651
815.32	0.653
815.50	0.668
815.67	0.669
815.85	0.660
816.02	0.651
816.20	0.660
816.38	0.670
816.55	0.676
816.73	0.678
816.90	0.687
817.08	0.714
817.26	0.720
817.43	0.704
817.61	0.725
817.78	0.745
817.96	0.725
818.13	0.714
818.31	0.715
818.49	0.724
818.66	0.714
818.84	0.706
819.01	0.686
819.19	0.692
819.36	0.693
819.54	0.668
819.71	0.707
819.89	0.721
820.07	0.732
820.24	0.725
820.42	0.724
820.59	0.740
820.77	0.758
820.94	0.751
821.12	0.764
821.29	0.776
821.47	0.776
821.64	0.716
821.82	0.726
822.00	0.723
822.17	0.726
822.35	0.724
822.52	0.726
822.70	0.719
822.87	0.731
823.05	0.714
823.22	0.726
823.40	0.750
823.57	0.772
823.75	0.756
823.92	0.780
824.10	0.797
824.27	0.826
824.45	0.819
824.62	0.872
824.80	0.881
824.97	0.895
825.15	0.884
825.32	0.892
825.50	0.888
825.67	0.894
825.85	0.873
826.02	0.885
826.20	0.909
826.37	1.013
826.55	0.947
826.72	1.105
826.90	1.152
827.07	1.194
827.25	1.150
827.42	1.274
827.60	1.378
827.77	1.515
827.95	1.482
828.12	1.525
828.30	1.274
828.47	1.352
828.65	1.094
828.82	1.117
829.00	1.150
829.17	1.204
829.34	1.197
829.52	1.227
829.69	2.877
829.87	-0.000
830.04	-0.000
830.22	-0.000
830.39	-0.000
830.57	-0.000
830.74	-0.000
830.92	-0.000
831.09	-0.000
831.26	-0.000
831.44	-0.000
831.61	-0.000
831.79	-0.000
831.96	-0.000
832.14	-0.000
832.31	-0.000
832.49	-0.000
832.66	-0.000
832.83	-0.000
833.01	-0.000
833.18	-0.000
833.36	-0.000
833.53	-0.000
833.70	-0.000
833.88	-0.000
834.05	-0.000
834.23	-0.000
834.40	-0.000
834.58	-0.000
834.75	-0.000
834.92	-0.000
835.10	-0.000
835.27	-0.000
835.45	-0.000
835.62	-0.000
835.79	-0.000
835.97	-0.000
836.14	-0.000
836.32	-0.000
836.49	-0.000
836.66	-0.000
836.84	-0.000
837.01	-0.000
837.18	-0.000
837.36	-0.000
837.53	-0.000
837.71	-0.000
837.88	-0.000
838.05	-0.000
838.23	-0.000
838.40	-0.000
838.58	-0.000
838.75	-0.000
838.92	-0.000
839.10	-0.000
839.27	-0.000
839.44	-0.000
839.62	-0.000
839.79	-0.000
839.96	-0.000
840.14	-0.000
840.31	-0.000
840.48	-0.000
840.66	-0.000
840.83	-0.000
841.01	-0.000
841.18	-0.000
841.35	-0.000
841.53	-0.000
841.70	-0.000
841.87	-0.000
842.05	-0.000
842.22	-0.000
842.39	-0.000
842.57	-0.000
842.74	-0.000
842.91	-0.000
843.09	-0.000
843.26	-0.000
843.43	-0.000
843.60	-0.000
843.78	-0.000
843.95	-0.000
844.12	-0.000
844.30	-0.000
844.47	-0.000
844.64	-0.000
844.82	-0.000
844.99	-0.000
845.16	-0.000
845.34	-0.000
845.51	-0.000
845.68	-0.000
845.85	-0.000
846.03	-0.000
846.20	-0.000
846.37	-0.000
846.55	-0.000
846.72	-0.000
846.89	-0.000
847.06	-0.000
847.24	-0.000
847.41	-0.000
847.58	-0.000
847.76	-0.000
847.93	-0.000
848.10	-0.000
848.27	-0.000
848.45	-0.000
848.62	-0.000
848.79	-0.000
848.97	-0.000
849.14	-0.000
849.31	-0.000
849.48	-0.000
849.66	-0.000
849.83	-0.000
850.00	-0.000
850.17	-0.000
850.35	-0.000
850.52	-0.000
850.69	-0.000
850.86	-0.000
851.04	-0.000
851.21	-0.000
851.38	-0.000
851.55	-0.000
851.72	-0.000
851.90	-0.000
852.07	-0.000
852.24	-0.000
852.41	-0.000
852.59	-0.000
852.76	-0.000
852.93	-0.000
853.10	-0.000
853.28	-0.000
853.45	-0.000
853.62	-0.000
853.79	-0.000
853.96	-0.000
854.14	-0.000
854.31	-0.000
854.48	-0.000
854.65	-0.000
854.82	-0.000
855.00	-0.000
855.17	-0.000
855.34	-0.000
855.51	-0.000
855.68	-0.000
855.86	-0.000
856.03	-0.000
856.20	-0.000
856.37	-0.000
856.54	-0.000
856.72	-0.000
856.89	-0.000
857.06	-0.000
857.23	-0.000
857.40	-0.000
857.57	-0.000
857.75	-0.000
857.92	-0.000
858.09	-0.000
858.26	-0.000
858.43	-0.000
858.60	-0.000
858.78	-0.000
858.95	-0.000
859.12	-0.000
859.29	-0.000
859.46	-0.000
859.63	-0.000
859.81	-0.000
859.98	-0.000
860.15	-0.000
860.32	-0.000
860.49	-0.000
860.66	-0.000
860.83	-0.000
861.01	-0.000
861.18	-0.000
861.35	-0.000
861.52	-0.000
861.69	-0.000
861.86	-0.000
862.03	-0.000
862.21	-0.000
862.38	-0.000
862.55	-0.000
862.72	-0.000
862.89	-0.000
863.06	-0.000
863.23	-0.000
863.40	-0.000
863.58	-0.000
863.75	-0.000
863.92	-0.000
864.09	-0.000
864.26	-0.000
864.43	-0.000
864.60	-0.000
864.77	-0.000
864.94	-0.000
865.11	-0.000
865.29	-0.000
865.46	-0.000
865.63	-0.000
865.80	-0.000
865.97	-0.000
866.14	-0.000
866.31	-0.000
866.48	-0.000
866.65	-0.000
866.82	-0.000
866.99	-0.000
867.16	-0.000
867.34	-0.000
867.51	-0.000
867.68	-0.000
867.85	-0.000
868.02	-0.000
868.19	-0.000
868.36	-0.000
868.53	-0.000
868.70	-0.000
868.87	-0.000
869.04	-0.000
869.21	-0.000
869.38	-0.000
869.55	-0.000
869.72	-0.000
869.89	-0.000
870.06	-0.000
870.24	-0.000
870.41	-0.000
870.58	-0.000
870.75	-0.000
870.92	-0.000
871.09	-0.000
871.26	-0.000
871.43	-0.000
871.60	-0.000
871.77	-0.000
871.94	-0.000
872.11	-0.000
872.28	-0.000
872.45	-0.000
872.62	-0.000
872.79	-0.000
872.96	-0.000
873.13	-0.000
873.30	-0.000
873.47	-0.000
873.64	-0.000
873.81	-0.000
873.98	-0.000
874.15	-0.000
874.32	-0.000
874.49	-0.000
874.66	-0.000
874.83	-0.000
875.00	-0.000
875.17	-0.000
875.34	-0.000
875.51	-0.000
875.68	-0.000
875.85	-0.000
876.02	-0.000
876.19	-0.000
876.36	-0.000
876.53	-0.000
876.70	-0.000
876.87	-0.000
877.04	-0.000
877.21	-0.000
877.38	-0.000
877.55	-0.000
877.72	-0.000
877.89	-0.000
878.06	-0.000
878.23	-0.000
878.39	-0.000
878.56	-0.000
878.73	-0.000
878.90	-0.000
879.07	-0.000
879.24	-0.000
879.41	-0.000
879.58	-0.000
879.75	-0.000
879.92	-0.000
880.09	-0.000
880.26	-0.000
880.43	-0.000
880.60	-0.000
880.77	-0.000
880.94	-0.000
881.11	-0.000
881.27	-0.000
881.44	-0.000
881.61	-0.000
881.78	-0.000
881.95	-0.000
882.12	-0.000
882.29	-0.000
882.46	-0.000
882.63	-0.000
882.80	-0.000
882.97	-0.000
883.14	-0.000
883.30	-0.000
883.47	-0.000
883.64	-0.000
883.81	-0.000
883.98	-0.000
884.15	-0.000
884.32	-0.000
884.49	-0.000
884.66	-0.000
884.82	-0.000
884.99	-0.000
885.16	-0.000
885.33	-0.000
885.50	-0.000
885.67	-0.000
885.84	-0.000
886.01	-0.000
886.17	-0.000
886.34	-0.000
886.51	-0.000
886.68	-0.000
886.85	-0.000
887.02	-0.000
887.19	-0.000
887.36	-0.000
887.52	-0.000
887.69	-0.000
887.86	-0.000
888.03	-0.000
888.20	-0.000
888.37	-0.000
888.54	-0.000
888.70	-0.000
888.87	-0.000
889.04	-0.000
889.21	-0.000
889.38	-0.000
889.55	-0.000
889.71	-0.000
889.88	-0.000
890.05	-0.000
890.22	-0.000
890.39	-0.000
>>>>>End Processed Spectral Data<<<<<
