SpectraSuite Data File
++++++++++++++++++++++++++++++++++++
Date: Fri Jun 19 14:44:41 CEST 2015
User: introlabs
Dark Spectrum Present: Yes
Reference Spectrum Present: Yes
Number of Sampled Component Spectra: 1
Spectrometers: USB4H08886
Integration Time (usec): 745692 (USB4H08886)
Spectra Averaged: 5 (USB4H08886)
Boxcar Smoothing: 5 (USB4H08886)
Correct for Electrical Dark: Yes (USB4H08886)
Strobe/Lamp Enabled: No (USB4H08886)
Correct for Detector Non-linearity: Yes (USB4H08886)
Correct for Stray Light: Yes (USB4H08886)
Number of Pixels in Processed Spectrum: 3648
>>>>>Begin Processed Spectral Data<<<<<
178.14	-0.000
178.36	-0.000
178.57	-0.000
178.79	-0.000
179.01	-0.000
179.22	-0.000
179.44	-0.000
179.65	-0.000
179.87	-0.000
180.08	-0.000
180.30	-0.000
180.52	-0.000
180.73	-0.000
180.95	-0.000
181.16	-0.000
181.38	-0.000
181.59	-0.000
181.81	-0.000
182.03	-0.000
182.24	-0.000
182.46	-0.000
182.67	-0.000
182.89	-0.000
183.10	-0.000
183.32	-0.000
183.54	-0.000
183.75	-0.000
183.97	-0.000
184.18	-0.000
184.40	-0.000
184.61	-0.000
184.83	-0.000
185.04	-0.000
185.26	-0.000
185.48	-0.000
185.69	-0.000
185.91	-0.000
186.12	-0.000
186.34	-0.000
186.55	-0.000
186.77	-0.000
186.98	-0.000
187.20	-0.000
187.42	-0.000
187.63	-0.000
187.85	-0.000
188.06	-0.000
188.28	-0.000
188.49	-0.000
188.71	-0.000
188.92	-0.000
189.14	-0.000
189.36	-0.000
189.57	-0.000
189.79	-0.000
190.00	-0.000
190.22	-0.000
190.43	-0.000
190.65	-0.000
190.86	-0.000
191.08	-0.000
191.29	-0.000
191.51	-0.000
191.72	-0.000
191.94	-0.000
192.16	-0.000
192.37	-0.000
192.59	-0.000
192.80	-0.000
193.02	-0.000
193.23	-0.000
193.45	-0.000
193.66	-0.000
193.88	-0.000
194.09	-0.000
194.31	-0.000
194.52	-0.000
194.74	-0.000
194.95	-0.000
195.17	-0.000
195.38	-0.000
195.60	-0.000
195.81	-0.000
196.03	-0.000
196.25	-0.000
196.46	-0.000
196.68	-0.000
196.89	-0.000
197.11	-0.000
197.32	-0.000
197.54	-0.000
197.75	-0.000
197.97	-0.000
198.18	-0.000
198.40	-0.000
198.61	-0.000
198.83	-0.000
199.04	-0.000
199.26	-0.000
199.47	-0.000
199.69	-0.000
199.90	-0.000
200.12	-0.000
200.33	-0.000
200.55	-0.000
200.76	-0.000
200.98	-0.000
201.19	-0.000
201.41	-0.000
201.62	-0.000
201.84	-0.000
202.05	-0.000
202.27	-0.000
202.48	-0.000
202.70	-0.000
202.91	-0.000
203.13	-0.000
203.34	-0.000
203.56	-0.000
203.77	-0.000
203.99	-0.000
204.20	-0.000
204.42	-0.000
204.63	-0.000
204.85	-0.000
205.06	-0.000
205.28	-0.000
205.49	-0.000
205.71	-0.000
205.92	-0.000
206.14	-0.000
206.35	-0.000
206.56	-0.000
206.78	-0.000
206.99	-0.000
207.21	-0.000
207.42	-0.000
207.64	-0.000
207.85	-0.000
208.07	-0.000
208.28	-0.000
208.50	-0.000
208.71	-0.000
208.93	-0.000
209.14	-0.000
209.36	-0.000
209.57	-0.000
209.79	-0.000
210.00	-0.000
210.22	-0.000
210.43	-0.000
210.64	-0.000
210.86	-0.000
211.07	-0.000
211.29	-0.000
211.50	-0.000
211.72	-0.000
211.93	-0.000
212.15	-0.000
212.36	-0.000
212.58	-0.000
212.79	-0.000
213.01	-0.000
213.22	-0.000
213.43	-0.000
213.65	-0.000
213.86	-0.000
214.08	-0.000
214.29	-0.000
214.51	-0.000
214.72	-0.000
214.94	-0.000
215.15	-0.000
215.36	-0.000
215.58	-0.000
215.79	-0.000
216.01	-0.000
216.22	-0.000
216.44	-0.000
216.65	-0.000
216.87	-0.000
217.08	-0.000
217.29	-0.000
217.51	-0.000
217.72	-0.000
217.94	-0.000
218.15	-0.000
218.37	-0.000
218.58	-0.000
218.80	-0.000
219.01	-0.000
219.22	-0.000
219.44	-0.000
219.65	-0.000
219.87	-0.000
220.08	-0.000
220.30	-0.000
220.51	-0.000
220.72	-0.000
220.94	-0.000
221.15	-0.000
221.37	-0.000
221.58	-0.000
221.79	-0.000
222.01	-0.000
222.22	-0.000
222.44	-0.000
222.65	-0.000
222.87	-0.000
223.08	-0.000
223.29	-0.000
223.51	-0.000
223.72	-0.000
223.94	-0.000
224.15	-0.000
224.36	-0.000
224.58	-0.000
224.79	-0.000
225.01	-0.000
225.22	-0.000
225.44	-0.000
225.65	-0.000
225.86	-0.000
226.08	-0.000
226.29	-0.000
226.51	-0.000
226.72	-0.000
226.93	-0.000
227.15	-0.000
227.36	-0.000
227.58	-0.000
227.79	-0.000
228.00	-0.000
228.22	-0.000
228.43	-0.000
228.65	-0.000
228.86	-0.000
229.07	-0.000
229.29	-0.000
229.50	-0.000
229.72	-0.000
229.93	-0.000
230.14	-0.000
230.36	-0.000
230.57	-0.000
230.78	-0.000
231.00	-0.000
231.21	-0.000
231.43	-0.000
231.64	-0.000
231.85	-0.000
232.07	-0.000
232.28	-0.000
232.50	-0.000
232.71	-0.000
232.92	-0.000
233.14	-0.000
233.35	-0.000
233.56	-0.000
233.78	-0.000
233.99	-0.000
234.21	-0.000
234.42	-0.000
234.63	-0.000
234.85	-0.000
235.06	-0.000
235.27	-0.000
235.49	-0.000
235.70	-0.000
235.91	-0.000
236.13	-0.000
236.34	-0.000
236.56	-0.000
236.77	-0.000
236.98	-0.000
237.20	-0.000
237.41	-0.000
237.62	-0.000
237.84	-0.000
238.05	-0.000
238.26	-0.000
238.48	-0.000
238.69	-0.000
238.91	-0.000
239.12	-0.000
239.33	-0.000
239.55	-0.000
239.76	-0.000
239.97	-0.000
240.19	-0.000
240.40	-0.000
240.61	-0.000
240.83	-0.000
241.04	-0.000
241.25	-0.000
241.47	-0.000
241.68	-0.000
241.89	-0.000
242.11	-0.000
242.32	-0.000
242.53	-0.000
242.75	-0.000
242.96	-0.000
243.17	-0.000
243.39	-0.000
243.60	-0.000
243.81	-0.000
244.03	-0.000
244.24	-0.000
244.45	-0.000
244.67	-0.000
244.88	-0.000
245.09	-0.000
245.31	-0.000
245.52	-0.000
245.73	-0.000
245.95	-0.000
246.16	-0.000
246.37	-0.000
246.59	-0.000
246.80	-0.000
247.01	-0.000
247.23	-0.000
247.44	-0.000
247.65	-0.000
247.87	-0.000
248.08	-0.000
248.29	-0.000
248.51	-0.000
248.72	-0.000
248.93	-0.000
249.15	-0.000
249.36	-0.000
249.57	-0.000
249.78	-0.000
250.00	-0.000
250.21	-0.000
250.42	-0.000
250.64	-0.000
250.85	-0.000
251.06	-0.000
251.28	-0.000
251.49	-0.000
251.70	-0.000
251.92	-0.000
252.13	-0.000
252.34	-0.000
252.55	-0.000
252.77	-0.000
252.98	-0.000
253.19	-0.000
253.41	-0.000
253.62	-0.000
253.83	-0.000
254.05	-0.000
254.26	-0.000
254.47	-0.000
254.68	-0.000
254.90	-0.000
255.11	-0.000
255.32	-0.000
255.54	-0.000
255.75	-0.000
255.96	-0.000
256.17	-0.000
256.39	-0.000
256.60	-0.000
256.81	-0.000
257.03	-0.000
257.24	-0.000
257.45	-0.000
257.66	-0.000
257.88	-0.000
258.09	-0.000
258.30	-0.000
258.51	-0.000
258.73	-0.000
258.94	-0.000
259.15	-0.000
259.37	-0.000
259.58	-0.000
259.79	-0.000
260.00	-0.000
260.22	-0.000
260.43	-0.000
260.64	-0.000
260.85	-0.000
261.07	-0.000
261.28	-0.000
261.49	-0.000
261.71	-0.000
261.92	-0.000
262.13	-0.000
262.34	-0.000
262.56	-0.000
262.77	-0.000
262.98	-0.000
263.19	-0.000
263.41	-0.000
263.62	-0.000
263.83	-0.000
264.04	-0.000
264.26	-0.000
264.47	-0.000
264.68	-0.000
264.89	-0.000
265.11	-0.000
265.32	-0.000
265.53	-0.000
265.74	-0.000
265.96	-0.000
266.17	-0.000
266.38	-0.000
266.59	-0.000
266.81	-0.000
267.02	-0.000
267.23	-0.000
267.44	-0.000
267.65	-0.000
267.87	-0.000
268.08	-0.000
268.29	-0.000
268.50	-0.000
268.72	-0.000
268.93	-0.000
269.14	-0.000
269.35	-0.000
269.57	-0.000
269.78	-0.000
269.99	-0.000
270.20	-0.000
270.41	-0.000
270.63	-0.000
270.84	-0.000
271.05	-0.000
271.26	-0.000
271.48	-0.000
271.69	-0.000
271.90	-0.000
272.11	-0.000
272.32	-0.000
272.54	-0.000
272.75	-0.000
272.96	-0.000
273.17	-0.000
273.39	-0.000
273.60	-0.000
273.81	-0.000
274.02	-0.000
274.23	-0.000
274.45	-0.000
274.66	-0.000
274.87	-0.000
275.08	-0.000
275.29	-0.000
275.51	-0.000
275.72	-0.000
275.93	-0.000
276.14	-0.000
276.35	-0.000
276.57	-0.000
276.78	-0.000
276.99	-0.000
277.20	-0.000
277.41	-0.000
277.63	-0.000
277.84	-0.000
278.05	-0.000
278.26	-0.000
278.47	-0.000
278.69	-0.000
278.90	-0.000
279.11	-0.000
279.32	-0.000
279.53	-0.000
279.74	-0.000
279.96	-0.000
280.17	-0.000
280.38	-0.000
280.59	-0.000
280.80	-0.000
281.02	-0.000
281.23	-0.000
281.44	-0.000
281.65	-0.000
281.86	-0.000
282.07	-0.000
282.29	-0.000
282.50	-0.000
282.71	-0.000
282.92	-0.000
283.13	-0.000
283.35	-0.000
283.56	-0.000
283.77	-0.000
283.98	-0.000
284.19	-0.000
284.40	-0.000
284.62	-0.000
284.83	-0.000
285.04	-0.000
285.25	-0.000
285.46	-0.000
285.67	-0.000
285.88	-0.000
286.10	-0.000
286.31	-0.000
286.52	-0.000
286.73	-0.000
286.94	-0.000
287.15	-0.000
287.37	-0.000
287.58	-0.000
287.79	-0.000
288.00	-0.000
288.21	-0.000
288.42	-0.000
288.63	-0.000
288.85	-0.000
289.06	-0.000
289.27	-0.000
289.48	-0.000
289.69	-0.000
289.90	-0.000
290.11	-0.000
290.33	-0.000
290.54	-0.000
290.75	-0.000
290.96	-0.000
291.17	-0.000
291.38	-0.000
291.59	-0.000
291.81	-0.000
292.02	-0.000
292.23	-0.000
292.44	-0.000
292.65	-0.000
292.86	-0.000
293.07	-0.000
293.28	-0.000
293.50	-0.000
293.71	-0.000
293.92	-0.000
294.13	-0.000
294.34	-0.000
294.55	-0.000
294.76	-0.000
294.97	-0.000
295.19	-0.000
295.40	-0.000
295.61	-0.000
295.82	-0.000
296.03	-0.000
296.24	-0.000
296.45	2.484
296.66	1.872
296.87	1.894
297.09	2.007
297.30	2.322
297.51	1.796
297.72	1.749
297.93	1.862
298.14	1.818
298.35	1.750
298.56	1.721
298.77	1.876
298.99	1.856
299.20	1.829
299.41	1.785
299.62	1.732
299.83	1.708
300.04	1.634
300.25	1.622
300.46	1.675
300.67	1.648
300.88	1.584
301.10	1.590
301.31	1.672
301.52	1.603
301.73	1.545
301.94	1.554
302.15	1.573
302.36	1.526
302.57	1.462
302.78	1.473
302.99	1.516
303.20	1.545
303.41	1.436
303.63	1.417
303.84	1.417
304.05	1.413
304.26	1.348
304.47	1.358
304.68	1.356
304.89	1.345
305.10	1.299
305.31	1.287
305.52	1.329
305.73	1.326
305.94	1.281
306.15	1.274
306.37	1.297
306.58	1.306
306.79	1.272
307.00	1.301
307.21	1.342
307.42	1.335
307.63	1.299
307.84	1.264
308.05	1.301
308.26	1.302
308.47	1.280
308.68	1.276
308.89	1.276
309.10	1.272
309.31	1.230
309.52	1.221
309.73	1.234
309.95	1.229
310.16	1.201
310.37	1.190
310.58	1.208
310.79	1.208
311.00	1.203
311.21	1.202
311.42	1.206
311.63	1.199
311.84	1.179
312.05	1.179
312.26	1.200
312.47	1.211
312.68	1.186
312.89	1.170
313.10	1.175
313.31	1.148
313.52	1.151
313.73	1.151
313.94	1.151
314.15	1.135
314.36	1.114
314.57	1.109
314.78	1.099
314.99	1.094
315.21	1.082
315.42	1.090
315.63	1.104
315.84	1.080
316.05	1.067
316.26	1.077
316.47	1.094
316.68	1.089
316.89	1.067
317.10	1.083
317.31	1.088
317.52	1.090
317.73	1.066
317.94	1.066
318.15	1.108
318.36	1.108
318.57	1.089
318.78	1.079
318.99	1.114
319.20	1.112
319.41	1.081
319.62	1.081
319.83	1.094
320.04	1.090
320.25	1.076
320.46	1.043
320.67	1.045
320.88	1.041
321.09	1.027
321.30	1.013
321.51	1.027
321.72	1.025
321.93	1.009
322.14	1.002
322.35	1.030
322.56	1.032
322.77	1.019
322.98	1.031
323.19	1.040
323.40	1.046
323.61	1.025
323.82	1.022
324.03	1.028
324.24	1.026
324.45	1.013
324.66	0.992
324.87	0.990
325.08	0.989
325.29	0.968
325.50	0.960
325.71	0.967
325.92	0.974
326.13	0.959
326.34	0.959
326.55	0.966
326.76	0.966
326.97	0.955
327.18	0.948
327.39	0.974
327.60	0.976
327.80	0.977
328.01	0.973
328.22	0.973
328.43	0.976
328.64	0.964
328.85	0.969
329.06	0.970
329.27	0.969
329.48	0.966
329.69	0.947
329.90	0.958
330.11	0.951
330.32	0.946
330.53	0.939
330.74	0.940
330.95	0.938
331.16	0.924
331.37	0.931
331.58	0.932
331.79	0.930
332.00	0.921
332.21	0.913
332.42	0.918
332.63	0.908
332.83	0.902
333.04	0.904
333.25	0.917
333.46	0.915
333.67	0.902
333.88	0.906
334.09	0.917
334.30	0.914
334.51	0.905
334.72	0.901
334.93	0.904
335.14	0.905
335.35	0.896
335.56	0.891
335.77	0.900
335.98	0.898
336.18	0.891
336.39	0.882
336.60	0.885
336.81	0.883
337.02	0.881
337.23	0.886
337.44	0.889
337.65	0.891
337.86	0.881
338.07	0.874
338.28	0.878
338.49	0.878
338.70	0.871
338.91	0.879
339.11	0.886
339.32	0.883
339.53	0.871
339.74	0.868
339.95	0.865
340.16	0.864
340.37	0.857
340.58	0.856
340.79	0.859
341.00	0.858
341.21	0.846
341.41	0.846
341.62	0.846
341.83	0.847
342.04	0.842
342.25	0.853
342.46	0.856
342.67	0.856
342.88	0.848
343.09	0.846
343.30	0.854
343.50	0.858
343.71	0.850
343.92	0.849
344.13	0.853
344.34	0.854
344.55	0.838
344.76	0.837
344.97	0.841
345.18	0.840
345.38	0.838
345.59	0.833
345.80	0.833
346.01	0.830
346.22	0.826
346.43	0.820
346.64	0.828
346.85	0.827
347.06	0.820
347.26	0.820
347.47	0.824
347.68	0.819
347.89	0.816
348.10	0.810
348.31	0.818
348.52	0.816
348.73	0.814
348.93	0.811
349.14	0.814
349.35	0.814
349.56	0.807
349.77	0.802
349.98	0.809
350.19	0.806
350.39	0.801
350.60	0.796
350.81	0.812
351.02	0.811
351.23	0.805
351.44	0.806
351.65	0.809
351.86	0.808
352.06	0.806
352.27	0.805
352.48	0.806
352.69	0.805
352.90	0.800
353.11	0.787
353.31	0.793
353.52	0.790
353.73	0.783
353.94	0.785
354.15	0.790
354.36	0.789
354.57	0.781
354.77	0.784
354.98	0.783
355.19	0.783
355.40	0.782
355.61	0.788
355.82	0.792
356.02	0.791
356.23	0.784
356.44	0.786
356.65	0.790
356.86	0.790
357.07	0.783
357.27	0.786
357.48	0.789
357.69	0.784
357.90	0.768
358.11	0.766
358.32	0.769
358.52	0.771
358.73	0.762
358.94	0.764
359.15	0.769
359.36	0.770
359.56	0.765
359.77	0.762
359.98	0.768
360.19	0.769
360.40	0.765
360.61	0.765
360.81	0.764
361.02	0.764
361.23	0.755
361.44	0.754
361.65	0.753
361.85	0.753
362.06	0.750
362.27	0.752
362.48	0.752
362.69	0.754
362.89	0.748
363.10	0.750
363.31	0.754
363.52	0.758
363.73	0.753
363.93	0.753
364.14	0.755
364.35	0.758
364.56	0.748
364.77	0.750
364.97	0.752
365.18	0.753
365.39	0.748
365.60	0.745
365.81	0.747
366.01	0.747
366.22	0.744
366.43	0.743
366.64	0.745
366.84	0.751
367.05	0.748
367.26	0.747
367.47	0.749
367.68	0.749
367.88	0.746
368.09	0.744
368.30	0.746
368.51	0.746
368.71	0.745
368.92	0.749
369.13	0.746
369.34	0.746
369.55	0.745
369.75	0.745
369.96	0.751
370.17	0.751
370.38	0.747
370.58	0.747
370.79	0.752
371.00	0.751
371.21	0.742
371.41	0.747
371.62	0.751
371.83	0.746
372.04	0.743
372.24	0.737
372.45	0.739
372.66	0.739
372.87	0.736
373.07	0.732
373.28	0.733
373.49	0.737
373.70	0.729
373.90	0.728
374.11	0.736
374.32	0.736
374.53	0.735
374.73	0.735
374.94	0.737
375.15	0.737
375.36	0.734
375.56	0.742
375.77	0.741
375.98	0.741
376.19	0.739
376.39	0.734
376.60	0.738
376.81	0.738
377.02	0.736
377.22	0.735
377.43	0.736
377.64	0.737
377.84	0.728
378.05	0.733
378.26	0.739
378.47	0.737
378.67	0.733
378.88	0.730
379.09	0.730
379.30	0.730
379.50	0.728
379.71	0.729
379.92	0.732
380.12	0.731
380.33	0.723
380.54	0.720
380.75	0.728
380.95	0.728
381.16	0.727
381.37	0.727
381.57	0.729
381.78	0.729
381.99	0.729
382.20	0.728
382.40	0.732
382.61	0.732
382.82	0.729
383.02	0.721
383.23	0.723
383.44	0.723
383.64	0.722
383.85	0.724
384.06	0.727
384.27	0.725
384.47	0.723
384.68	0.723
384.89	0.728
385.09	0.728
385.30	0.729
385.51	0.728
385.71	0.731
385.92	0.732
386.13	0.730
386.33	0.732
386.54	0.732
386.75	0.732
386.95	0.729
387.16	0.724
387.37	0.726
387.58	0.725
387.78	0.724
387.99	0.721
388.20	0.723
388.40	0.720
388.61	0.715
388.82	0.718
389.02	0.721
389.23	0.721
389.44	0.720
389.64	0.720
389.85	0.732
390.06	0.732
390.26	0.732
390.47	0.731
390.68	0.734
390.88	0.733
391.09	0.729
391.30	0.727
391.50	0.726
391.71	0.726
391.92	0.723
392.12	0.716
392.33	0.717
392.53	0.717
392.74	0.717
392.95	0.716
393.15	0.719
393.36	0.721
393.57	0.719
393.77	0.722
393.98	0.724
394.19	0.724
394.39	0.723
394.60	0.724
394.81	0.726
395.01	0.723
395.22	0.721
395.43	0.722
395.63	0.727
395.84	0.728
396.04	0.725
396.25	0.727
396.46	0.729
396.66	0.727
396.87	0.724
397.08	0.721
397.28	0.724
397.49	0.725
397.69	0.722
397.90	0.717
398.11	0.718
398.31	0.719
398.52	0.715
398.73	0.716
398.93	0.715
399.14	0.715
399.34	0.714
399.55	0.715
399.76	0.715
399.96	0.716
400.17	0.715
400.37	0.713
400.58	0.720
400.79	0.721
400.99	0.719
401.20	0.724
401.41	0.727
401.61	0.729
401.82	0.734
402.02	0.734
402.23	0.735
402.44	0.734
402.64	0.734
402.85	0.728
403.05	0.727
403.26	0.726
403.47	0.720
403.67	0.719
403.88	0.720
404.08	0.713
404.29	0.711
404.50	0.711
404.70	0.712
404.91	0.710
405.11	0.708
405.32	0.708
405.52	0.708
405.73	0.708
405.94	0.705
406.14	0.708
406.35	0.710
406.55	0.710
406.76	0.707
406.97	0.708
407.17	0.711
407.38	0.710
407.58	0.709
407.79	0.711
407.99	0.713
408.20	0.715
408.41	0.710
408.61	0.708
408.82	0.710
409.02	0.709
409.23	0.707
409.43	0.706
409.64	0.708
409.84	0.708
410.05	0.704
410.26	0.703
410.46	0.703
410.67	0.702
410.87	0.704
411.08	0.705
411.28	0.707
411.49	0.709
411.69	0.706
411.90	0.708
412.11	0.709
412.31	0.711
412.52	0.708
412.72	0.709
412.93	0.711
413.13	0.710
413.34	0.706
413.54	0.707
413.75	0.709
413.95	0.709
414.16	0.705
414.37	0.708
414.57	0.709
414.78	0.711
414.98	0.709
415.19	0.710
415.39	0.707
415.60	0.709
415.80	0.709
416.01	0.706
416.21	0.709
416.42	0.709
416.62	0.704
416.83	0.704
417.03	0.704
417.24	0.705
417.44	0.702
417.65	0.702
417.86	0.702
418.06	0.700
418.27	0.697
418.47	0.699
418.68	0.700
418.88	0.700
419.09	0.698
419.29	0.698
419.50	0.699
419.70	0.698
419.91	0.696
420.11	0.694
420.32	0.697
420.52	0.697
420.73	0.696
420.93	0.696
421.14	0.699
421.34	0.698
421.55	0.694
421.75	0.694
421.96	0.695
422.16	0.696
422.37	0.695
422.57	0.692
422.78	0.694
422.98	0.690
423.19	0.687
423.39	0.685
423.60	0.689
423.80	0.690
424.01	0.688
424.21	0.690
424.42	0.691
424.62	0.691
424.83	0.690
425.03	0.690
425.23	0.692
425.44	0.693
425.64	0.693
425.85	0.692
426.05	0.693
426.26	0.694
426.46	0.690
426.67	0.689
426.87	0.694
427.08	0.695
427.28	0.693
427.49	0.694
427.69	0.694
427.90	0.693
428.10	0.690
428.31	0.690
428.51	0.692
428.71	0.691
428.92	0.692
429.12	0.689
429.33	0.689
429.53	0.693
429.74	0.697
429.94	0.698
430.15	0.698
430.35	0.698
430.56	0.695
430.76	0.694
430.96	0.695
431.17	0.693
431.37	0.690
431.58	0.688
431.78	0.684
431.99	0.677
432.19	0.679
432.40	0.680
432.60	0.681
432.80	0.683
433.01	0.681
433.21	0.681
433.42	0.683
433.62	0.684
433.83	0.684
434.03	0.687
434.23	0.690
434.44	0.689
434.64	0.686
434.85	0.691
435.05	0.692
435.26	0.693
435.46	0.691
435.66	0.690
435.87	0.690
436.07	0.690
436.28	0.685
436.48	0.682
436.69	0.682
436.89	0.682
437.09	0.676
437.30	0.675
437.50	0.675
437.71	0.687
437.91	0.685
438.11	0.687
438.32	0.691
438.52	0.691
438.73	0.690
438.93	0.688
439.13	0.688
439.34	0.691
439.54	0.689
439.75	0.689
439.95	0.679
440.15	0.684
440.36	0.683
440.56	0.680
440.77	0.681
440.97	0.681
441.17	0.680
441.38	0.682
441.58	0.680
441.79	0.679
441.99	0.678
442.19	0.676
442.40	0.673
442.60	0.673
442.81	0.670
443.01	0.670
443.21	0.671
443.42	0.670
443.62	0.668
443.82	0.668
444.03	0.670
444.23	0.669
444.44	0.669
444.64	0.668
444.84	0.670
445.05	0.670
445.25	0.668
445.45	0.668
445.66	0.670
445.86	0.669
446.06	0.670
446.27	0.669
446.47	0.672
446.68	0.670
446.88	0.669
447.08	0.668
447.29	0.670
447.49	0.670
447.69	0.670
447.90	0.668
448.10	0.672
448.30	0.669
448.51	0.671
448.71	0.668
448.91	0.671
449.12	0.670
449.32	0.671
449.52	0.670
449.73	0.675
449.93	0.674
450.14	0.675
450.34	0.674
450.54	0.676
450.75	0.673
450.95	0.673
451.15	0.672
451.36	0.675
451.56	0.671
451.76	0.670
451.97	0.667
452.17	0.667
452.37	0.665
452.58	0.662
452.78	0.662
452.98	0.664
453.19	0.663
453.39	0.664
453.59	0.663
453.79	0.664
454.00	0.664
454.20	0.662
454.40	0.663
454.61	0.666
454.81	0.667
455.01	0.665
455.22	0.666
455.42	0.668
455.62	0.666
455.83	0.665
456.03	0.668
456.23	0.669
456.44	0.670
456.64	0.669
456.84	0.668
457.04	0.668
457.25	0.667
457.45	0.664
457.65	0.663
457.86	0.664
458.06	0.663
458.26	0.659
458.47	0.658
458.67	0.659
458.87	0.660
459.07	0.657
459.28	0.660
459.48	0.662
459.68	0.662
459.89	0.660
460.09	0.659
460.29	0.660
460.49	0.661
460.70	0.659
460.90	0.659
461.10	0.659
461.31	0.659
461.51	0.655
461.71	0.657
461.91	0.659
462.12	0.659
462.32	0.659
462.52	0.659
462.72	0.663
462.93	0.664
463.13	0.663
463.33	0.663
463.53	0.665
463.74	0.665
463.94	0.661
464.14	0.661
464.35	0.663
464.55	0.662
464.75	0.660
464.95	0.658
465.16	0.659
465.36	0.658
465.56	0.657
465.76	0.656
465.97	0.656
466.17	0.656
466.37	0.654
466.57	0.654
466.78	0.656
466.98	0.656
467.18	0.654
467.38	0.652
467.59	0.655
467.79	0.656
467.99	0.655
468.19	0.657
468.39	0.660
468.60	0.660
468.80	0.658
469.00	0.660
469.20	0.661
469.41	0.661
469.61	0.661
469.81	0.661
470.01	0.660
470.22	0.661
470.42	0.659
470.62	0.657
470.82	0.658
471.02	0.657
471.23	0.655
471.43	0.655
471.63	0.658
471.83	0.657
472.04	0.655
472.24	0.655
472.44	0.660
472.64	0.660
472.84	0.657
473.05	0.658
473.25	0.660
473.45	0.660
473.65	0.657
473.85	0.657
474.06	0.659
474.26	0.658
474.46	0.659
474.66	0.655
474.86	0.656
475.07	0.656
475.27	0.654
475.47	0.651
475.67	0.652
475.87	0.654
476.08	0.651
476.28	0.652
476.48	0.655
476.68	0.653
476.88	0.650
477.09	0.651
477.29	0.654
477.49	0.653
477.69	0.653
477.89	0.653
478.09	0.652
478.30	0.655
478.50	0.652
478.70	0.651
478.90	0.651
479.10	0.654
479.31	0.655
479.51	0.653
479.71	0.654
479.91	0.654
480.11	0.652
480.31	0.653
480.52	0.652
480.72	0.651
480.92	0.651
481.12	0.650
481.32	0.647
481.52	0.645
481.72	0.645
481.93	0.648
482.13	0.649
482.33	0.649
482.53	0.647
482.73	0.647
482.93	0.648
483.14	0.648
483.34	0.647
483.54	0.648
483.74	0.647
483.94	0.646
484.14	0.642
484.34	0.642
484.55	0.643
484.75	0.642
484.95	0.641
485.15	0.641
485.35	0.641
485.55	0.641
485.75	0.638
485.96	0.639
486.16	0.641
486.36	0.640
486.56	0.638
486.76	0.639
486.96	0.639
487.16	0.638
487.36	0.637
487.57	0.636
487.77	0.637
487.97	0.638
488.17	0.636
488.37	0.635
488.57	0.635
488.77	0.635
488.97	0.634
489.18	0.633
489.38	0.636
489.58	0.636
489.78	0.636
489.98	0.635
490.18	0.635
490.38	0.636
490.58	0.635
490.78	0.635
490.98	0.637
491.19	0.638
491.39	0.637
491.59	0.636
491.79	0.639
491.99	0.640
492.19	0.639
492.39	0.643
492.59	0.643
492.79	0.644
492.99	0.645
493.20	0.644
493.40	0.644
493.60	0.646
493.80	0.644
494.00	0.642
494.20	0.643
494.40	0.642
494.60	0.639
494.80	0.643
495.00	0.643
495.20	0.641
495.40	0.640
495.61	0.642
495.81	0.641
496.01	0.645
496.21	0.646
496.41	0.645
496.61	0.646
496.81	0.645
497.01	0.639
497.21	0.639
497.41	0.639
497.61	0.638
497.81	0.636
498.01	0.637
498.21	0.634
498.41	0.632
498.61	0.632
498.82	0.634
499.02	0.636
499.22	0.637
499.42	0.636
499.62	0.637
499.82	0.639
500.02	0.640
500.22	0.638
500.42	0.641
500.62	0.641
500.82	0.641
501.02	0.639
501.22	0.638
501.42	0.638
501.62	0.640
501.82	0.640
502.02	0.640
502.22	0.639
502.42	0.641
502.62	0.638
502.82	0.639
503.02	0.639
503.22	0.639
503.42	0.637
503.63	0.637
503.83	0.635
504.03	0.633
504.23	0.632
504.43	0.632
504.63	0.633
504.83	0.633
505.03	0.632
505.23	0.634
505.43	0.636
505.63	0.637
505.83	0.637
506.03	0.638
506.23	0.641
506.43	0.641
506.63	0.640
506.83	0.639
507.03	0.641
507.23	0.641
507.43	0.639
507.63	0.639
507.83	0.639
508.03	0.639
508.23	0.638
508.43	0.637
508.63	0.638
508.83	0.638
509.03	0.639
509.23	0.638
509.43	0.639
509.63	0.639
509.83	0.638
510.03	0.641
510.23	0.643
510.43	0.643
510.63	0.644
510.83	0.643
511.03	0.645
511.23	0.643
511.43	0.642
511.63	0.644
511.83	0.646
512.03	0.646
512.22	0.643
512.42	0.642
512.62	0.643
512.82	0.643
513.02	0.642
513.22	0.642
513.42	0.644
513.62	0.647
513.82	0.644
514.02	0.643
514.22	0.645
514.42	0.645
514.62	0.645
514.82	0.645
515.02	0.648
515.22	0.650
515.42	0.649
515.62	0.652
515.82	0.651
516.02	0.652
516.22	0.652
516.42	0.653
516.62	0.655
516.82	0.656
517.01	0.655
517.21	0.654
517.41	0.658
517.61	0.659
517.81	0.655
518.01	0.654
518.21	0.654
518.41	0.653
518.61	0.652
518.81	0.652
519.01	0.653
519.21	0.653
519.41	0.652
519.61	0.647
519.81	0.649
520.00	0.649
520.20	0.650
520.40	0.653
520.60	0.654
520.80	0.653
521.00	0.654
521.20	0.655
521.40	0.659
521.60	0.659
521.80	0.658
522.00	0.658
522.20	0.660
522.39	0.660
522.59	0.656
522.79	0.658
522.99	0.661
523.19	0.658
523.39	0.656
523.59	0.654
523.79	0.658
523.99	0.660
524.19	0.658
524.38	0.657
524.58	0.659
524.78	0.659
524.98	0.657
525.18	0.659
525.38	0.661
525.58	0.661
525.78	0.659
525.98	0.657
526.18	0.657
526.37	0.656
526.57	0.658
526.77	0.658
526.97	0.658
527.17	0.658
527.37	0.654
527.57	0.656
527.77	0.658
527.96	0.658
528.16	0.656
528.36	0.657
528.56	0.659
528.76	0.657
528.96	0.655
529.16	0.657
529.36	0.660
529.55	0.660
529.75	0.656
529.95	0.656
530.15	0.658
530.35	0.662
530.55	0.659
530.75	0.660
530.94	0.662
531.14	0.662
531.34	0.660
531.54	0.658
531.74	0.661
531.94	0.665
532.13	0.663
532.33	0.665
532.53	0.663
532.73	0.663
532.93	0.661
533.13	0.662
533.33	0.662
533.52	0.663
533.72	0.666
533.92	0.664
534.12	0.662
534.32	0.662
534.52	0.660
534.71	0.662
534.91	0.664
535.11	0.666
535.31	0.664
535.51	0.666
535.71	0.668
535.90	0.665
536.10	0.666
536.30	0.668
536.50	0.669
536.70	0.669
536.89	0.667
537.09	0.666
537.29	0.668
537.49	0.669
537.69	0.666
537.89	0.667
538.08	0.667
538.28	0.665
538.48	0.666
538.68	0.667
538.88	0.669
539.07	0.669
539.27	0.667
539.47	0.667
539.67	0.666
539.87	0.668
540.06	0.665
540.26	0.667
540.46	0.669
540.66	0.665
540.86	0.663
541.05	0.663
541.25	0.664
541.45	0.664
541.65	0.662
541.84	0.665
542.04	0.665
542.24	0.666
542.44	0.664
542.64	0.665
542.83	0.668
543.03	0.669
543.23	0.667
543.43	0.668
543.62	0.669
543.82	0.670
544.02	0.668
544.22	0.669
544.42	0.672
544.61	0.674
544.81	0.670
545.01	0.668
545.21	0.670
545.40	0.671
545.60	0.669
545.80	0.672
546.00	0.672
546.19	0.671
546.39	0.670
546.59	0.668
546.79	0.669
546.98	0.669
547.18	0.669
547.38	0.670
547.58	0.672
547.77	0.673
547.97	0.669
548.17	0.671
548.37	0.671
548.56	0.672
548.76	0.671
548.96	0.673
549.16	0.676
549.35	0.675
549.55	0.672
549.75	0.673
549.95	0.676
550.14	0.676
550.34	0.675
550.54	0.680
550.73	0.683
550.93	0.684
551.13	0.681
551.33	0.680
551.52	0.681
551.72	0.682
551.92	0.680
552.12	0.680
552.31	0.682
552.51	0.681
552.71	0.676
552.90	0.676
553.10	0.678
553.30	0.678
553.50	0.676
553.69	0.677
553.89	0.678
554.09	0.678
554.28	0.675
554.48	0.676
554.68	0.678
554.87	0.678
555.07	0.674
555.27	0.673
555.47	0.675
555.66	0.676
555.86	0.674
556.06	0.676
556.25	0.677
556.45	0.684
556.65	0.683
556.84	0.686
557.04	0.689
557.24	0.690
557.43	0.690
557.63	0.694
557.83	0.695
558.02	0.696
558.22	0.700
558.42	0.701
558.61	0.694
558.81	0.694
559.01	0.691
559.21	0.691
559.40	0.691
559.60	0.691
559.80	0.688
559.99	0.690
560.19	0.692
560.39	0.686
560.58	0.684
560.78	0.684
560.97	0.688
561.17	0.686
561.37	0.683
561.56	0.684
561.76	0.686
561.96	0.685
562.15	0.682
562.35	0.684
562.55	0.685
562.74	0.684
562.94	0.684
563.14	0.681
563.33	0.682
563.53	0.682
563.73	0.680
563.92	0.681
564.12	0.684
564.31	0.687
564.51	0.685
564.71	0.687
564.90	0.690
565.10	0.691
565.30	0.694
565.49	0.695
565.69	0.697
565.89	0.698
566.08	0.695
566.28	0.697
566.47	0.698
566.67	0.697
566.87	0.694
567.06	0.696
567.26	0.702
567.46	0.698
567.65	0.698
567.85	0.699
568.04	0.701
568.24	0.700
568.44	0.697
568.63	0.695
568.83	0.696
569.02	0.695
569.22	0.690
569.42	0.686
569.61	0.688
569.81	0.686
570.00	0.684
570.20	0.686
570.40	0.687
570.59	0.687
570.79	0.684
570.98	0.683
571.18	0.685
571.38	0.685
571.57	0.682
571.77	0.681
571.96	0.685
572.16	0.682
572.35	0.676
572.55	0.677
572.75	0.675
572.94	0.675
573.14	0.674
573.33	0.674
573.53	0.674
573.73	0.673
573.92	0.670
574.12	0.668
574.31	0.671
574.51	0.672
574.70	0.670
574.90	0.672
575.09	0.674
575.29	0.674
575.49	0.672
575.68	0.673
575.88	0.674
576.07	0.675
576.27	0.673
576.46	0.671
576.66	0.671
576.86	0.669
577.05	0.666
577.25	0.664
577.44	0.666
577.64	0.665
577.83	0.663
578.03	0.664
578.22	0.663
578.42	0.662
578.61	0.661
578.81	0.662
579.00	0.663
579.20	0.663
579.40	0.662
579.59	0.661
579.79	0.662
579.98	0.661
580.18	0.660
580.37	0.661
580.57	0.663
580.76	0.668
580.96	0.666
581.15	0.667
581.35	0.669
581.54	0.669
581.74	0.668
581.93	0.670
582.13	0.672
582.32	0.668
582.52	0.667
582.71	0.666
582.91	0.662
583.10	0.662
583.30	0.661
583.49	0.660
583.69	0.664
583.88	0.665
584.08	0.664
584.27	0.666
584.47	0.669
584.66	0.670
584.86	0.669
585.05	0.671
585.25	0.673
585.44	0.672
585.64	0.671
585.83	0.667
586.03	0.667
586.22	0.665
586.42	0.662
586.61	0.664
586.81	0.666
587.00	0.666
587.20	0.663
587.39	0.663
587.59	0.666
587.78	0.667
587.98	0.667
588.17	0.668
588.37	0.671
588.56	0.673
588.76	0.669
588.95	0.669
589.15	0.673
589.34	0.676
589.54	0.674
589.73	0.675
589.92	0.679
590.12	0.678
590.31	0.676
590.51	0.681
590.70	0.683
590.90	0.682
591.09	0.680
591.29	0.679
591.48	0.678
591.68	0.680
591.87	0.678
592.06	0.678
592.26	0.680
592.45	0.679
592.65	0.673
592.84	0.672
593.04	0.675
593.23	0.677
593.43	0.675
593.62	0.674
593.81	0.674
594.01	0.673
594.20	0.670
594.40	0.670
594.59	0.672
594.79	0.674
594.98	0.672
595.17	0.671
595.37	0.672
595.56	0.674
595.76	0.673
595.95	0.676
596.14	0.679
596.34	0.680
596.53	0.678
596.73	0.680
596.92	0.681
597.12	0.683
597.31	0.683
597.50	0.682
597.70	0.685
597.89	0.684
598.09	0.680
598.28	0.681
598.47	0.684
598.67	0.682
598.86	0.678
599.06	0.680
599.25	0.680
599.44	0.679
599.64	0.676
599.83	0.673
600.03	0.676
600.22	0.677
600.41	0.677
600.61	0.674
600.80	0.676
601.00	0.677
601.19	0.673
601.38	0.671
601.58	0.674
601.77	0.675
601.96	0.678
602.16	0.679
602.35	0.687
602.55	0.685
602.74	0.685
602.93	0.688
603.13	0.693
603.32	0.695
603.51	0.694
603.71	0.698
603.90	0.700
604.09	0.701
604.29	0.698
604.48	0.692
604.68	0.693
604.87	0.692
605.06	0.688
605.26	0.684
605.45	0.685
605.64	0.683
605.84	0.678
606.03	0.676
606.22	0.675
606.42	0.674
606.61	0.671
606.80	0.671
607.00	0.673
607.19	0.673
607.38	0.672
607.58	0.673
607.77	0.676
607.96	0.676
608.16	0.675
608.35	0.679
608.54	0.683
608.74	0.686
608.93	0.691
609.12	0.694
609.32	0.697
609.51	0.700
609.70	0.699
609.90	0.700
610.09	0.705
610.28	0.710
610.48	0.704
610.67	0.704
610.86	0.705
611.06	0.700
611.25	0.697
611.44	0.698
611.64	0.697
611.83	0.700
612.02	0.696
612.21	0.695
612.41	0.693
612.60	0.693
612.79	0.689
612.99	0.689
613.18	0.691
613.37	0.688
613.57	0.686
613.76	0.687
613.95	0.685
614.14	0.685
614.34	0.683
614.53	0.684
614.72	0.687
614.92	0.686
615.11	0.684
615.30	0.680
615.49	0.682
615.69	0.685
615.88	0.681
616.07	0.683
616.26	0.684
616.46	0.685
616.65	0.681
616.84	0.680
617.04	0.682
617.23	0.685
617.42	0.686
617.61	0.689
617.81	0.689
618.00	0.691
618.19	0.689
618.38	0.693
618.58	0.697
618.77	0.698
618.96	0.697
619.15	0.699
619.35	0.701
619.54	0.702
619.73	0.698
619.92	0.700
620.12	0.705
620.31	0.705
620.50	0.700
620.69	0.700
620.89	0.704
621.08	0.705
621.27	0.705
621.46	0.704
621.66	0.708
621.85	0.707
622.04	0.703
622.23	0.704
622.43	0.705
622.62	0.704
622.81	0.702
623.00	0.701
623.19	0.704
623.39	0.703
623.58	0.699
623.77	0.698
623.96	0.701
624.16	0.701
624.35	0.696
624.54	0.699
624.73	0.703
624.92	0.700
625.12	0.698
625.31	0.698
625.50	0.701
625.69	0.702
625.88	0.698
626.08	0.697
626.27	0.698
626.46	0.699
626.65	0.695
626.84	0.696
627.04	0.702
627.23	0.702
627.42	0.698
627.61	0.700
627.80	0.704
628.00	0.704
628.19	0.703
628.38	0.706
628.57	0.709
628.76	0.709
628.96	0.705
629.15	0.706
629.34	0.709
629.53	0.709
629.72	0.704
629.91	0.704
630.11	0.709
630.30	0.710
630.49	0.712
630.68	0.713
630.87	0.716
631.06	0.717
631.26	0.712
631.45	0.714
631.64	0.722
631.83	0.725
632.02	0.722
632.21	0.719
632.41	0.726
632.60	0.720
632.79	0.718
632.98	0.718
633.17	0.720
633.36	0.722
633.55	0.718
633.75	0.714
633.94	0.715
634.13	0.716
634.32	0.713
634.51	0.709
634.70	0.710
634.89	0.710
635.09	0.707
635.28	0.707
635.47	0.708
635.66	0.711
635.85	0.706
636.04	0.709
636.23	0.713
636.43	0.715
636.62	0.713
636.81	0.713
637.00	0.716
637.19	0.719
637.38	0.715
637.57	0.715
637.76	0.716
637.95	0.717
638.15	0.712
638.34	0.708
638.53	0.712
638.72	0.714
638.91	0.710
639.10	0.708
639.29	0.708
639.48	0.709
639.67	0.709
639.87	0.708
640.06	0.714
640.25	0.714
640.44	0.715
640.63	0.716
640.82	0.719
641.01	0.720
641.20	0.719
641.39	0.722
641.58	0.724
641.78	0.722
641.97	0.718
642.16	0.731
642.35	0.732
642.54	0.732
642.73	0.725
642.92	0.724
643.11	0.727
643.30	0.727
643.49	0.721
643.68	0.722
643.87	0.724
644.06	0.725
644.25	0.705
644.45	0.708
644.64	0.709
644.83	0.709
645.02	0.705
645.21	0.704
645.40	0.705
645.59	0.705
645.78	0.700
645.97	0.702
646.16	0.703
646.35	0.703
646.54	0.701
646.73	0.703
646.92	0.706
647.11	0.706
647.30	0.701
647.49	0.702
647.68	0.702
647.88	0.701
648.07	0.693
648.26	0.697
648.45	0.699
648.64	0.694
648.83	0.691
649.02	0.694
649.21	0.704
649.40	0.703
649.59	0.699
649.78	0.700
649.97	0.714
650.16	0.713
650.35	0.708
650.54	0.710
650.73	0.718
650.92	0.715
651.11	0.708
651.30	0.705
651.49	0.710
651.68	0.711
651.87	0.707
652.06	0.697
652.25	0.701
652.44	0.704
652.63	0.702
652.82	0.703
653.01	0.704
653.20	0.702
653.39	0.690
653.58	0.688
653.77	0.688
653.96	0.683
654.15	0.675
654.34	0.673
654.53	0.668
654.72	0.662
654.91	0.653
655.10	0.648
655.29	0.646
655.48	0.644
655.67	0.639
655.86	0.636
656.05	0.634
656.24	0.633
656.43	0.628
656.62	0.627
656.81	0.627
657.00	0.624
657.19	0.621
657.38	0.621
657.57	0.620
657.76	0.622
657.95	0.619
658.14	0.622
658.33	0.625
658.51	0.630
658.70	0.630
658.89	0.631
659.08	0.641
659.27	0.648
659.46	0.649
659.65	0.656
659.84	0.660
660.03	0.665
660.22	0.665
660.41	0.669
660.60	0.669
660.79	0.670
660.98	0.676
661.17	0.675
661.36	0.674
661.55	0.675
661.74	0.671
661.92	0.674
662.11	0.677
662.30	0.675
662.49	0.669
662.68	0.668
662.87	0.672
663.06	0.666
663.25	0.666
663.44	0.666
663.63	0.668
663.82	0.667
664.01	0.662
664.20	0.660
664.38	0.662
664.57	0.663
664.76	0.661
664.95	0.662
665.14	0.667
665.33	0.662
665.52	0.669
665.71	0.672
665.90	0.671
666.09	0.672
666.28	0.670
666.46	0.668
666.65	0.668
666.84	0.666
667.03	0.660
667.22	0.658
667.41	0.662
667.60	0.652
667.79	0.646
667.98	0.648
668.16	0.649
668.35	0.649
668.54	0.646
668.73	0.648
668.92	0.650
669.11	0.648
669.30	0.643
669.49	0.639
669.67	0.640
669.86	0.641
670.05	0.639
670.24	0.637
670.43	0.635
670.62	0.633
670.81	0.628
671.00	0.630
671.18	0.629
671.37	0.629
671.56	0.627
671.75	0.627
671.94	0.623
672.13	0.621
672.32	0.616
672.50	0.616
672.69	0.616
672.88	0.616
673.07	0.611
673.26	0.613
673.45	0.614
673.63	0.614
673.82	0.611
674.01	0.612
674.20	0.611
674.39	0.611
674.58	0.610
674.76	0.611
674.95	0.610
675.14	0.610
675.33	0.605
675.52	0.604
675.71	0.603
675.89	0.603
676.08	0.599
676.27	0.599
676.46	0.600
676.65	0.600
676.84	0.599
677.02	0.601
677.21	0.603
677.40	0.602
677.59	0.599
677.78	0.599
677.96	0.602
678.15	0.601
678.34	0.599
678.53	0.599
678.72	0.598
678.90	0.595
679.09	0.591
679.28	0.587
679.47	0.588
679.66	0.587
679.84	0.584
680.03	0.581
680.22	0.580
680.41	0.583
680.60	0.579
680.78	0.578
680.97	0.580
681.16	0.581
681.35	0.579
681.53	0.578
681.72	0.580
681.91	0.582
682.10	0.580
682.29	0.582
682.47	0.580
682.66	0.580
682.85	0.579
683.04	0.577
683.22	0.577
683.41	0.579
683.60	0.578
683.79	0.579
683.97	0.579
684.16	0.578
684.35	0.574
684.54	0.576
684.72	0.576
684.91	0.577
685.10	0.575
685.29	0.576
685.47	0.573
685.66	0.572
685.85	0.569
686.04	0.568
686.22	0.569
686.41	0.572
686.60	0.569
686.79	0.571
686.97	0.572
687.16	0.573
687.35	0.570
687.54	0.574
687.72	0.578
687.91	0.577
688.10	0.579
688.29	0.579
688.47	0.577
688.66	0.577
688.85	0.573
689.03	0.571
689.22	0.576
689.41	0.576
689.60	0.571
689.78	0.568
689.97	0.569
690.16	0.566
690.34	0.563
690.53	0.563
690.72	0.563
690.91	0.561
691.09	0.558
691.28	0.552
691.47	0.550
691.65	0.549
691.84	0.547
692.03	0.546
692.21	0.545
692.40	0.544
692.59	0.542
692.77	0.540
692.96	0.541
693.15	0.542
693.34	0.540
693.52	0.540
693.71	0.541
693.90	0.542
694.08	0.543
694.27	0.544
694.46	0.553
694.64	0.555
694.83	0.554
695.02	0.553
695.20	0.553
695.39	0.553
695.58	0.552
695.76	0.553
695.95	0.552
696.14	0.549
696.32	0.547
696.51	0.538
696.70	0.538
696.88	0.539
697.07	0.538
697.26	0.540
697.44	0.541
697.63	0.540
697.81	0.538
698.00	0.538
698.19	0.538
698.37	0.538
698.56	0.536
698.75	0.536
698.93	0.536
699.12	0.535
699.31	0.534
699.49	0.533
699.68	0.534
699.87	0.537
700.05	0.537
700.24	0.536
700.42	0.537
700.61	0.537
700.80	0.535
700.98	0.535
701.17	0.537
701.36	0.536
701.54	0.535
701.73	0.537
701.91	0.534
702.10	0.534
702.29	0.533
702.47	0.532
702.66	0.533
702.84	0.535
703.03	0.533
703.22	0.534
703.40	0.534
703.59	0.536
703.77	0.535
703.96	0.535
704.15	0.536
704.33	0.536
704.52	0.535
704.70	0.534
704.89	0.534
705.08	0.532
705.26	0.527
705.45	0.526
705.63	0.526
705.82	0.523
706.00	0.522
706.19	0.521
706.38	0.521
706.56	0.520
706.75	0.518
706.93	0.516
707.12	0.519
707.30	0.520
707.49	0.517
707.68	0.516
707.86	0.515
708.05	0.515
708.23	0.512
708.42	0.513
708.60	0.515
708.79	0.516
708.98	0.514
709.16	0.513
709.35	0.515
709.53	0.519
709.72	0.518
709.90	0.520
710.09	0.521
710.27	0.523
710.46	0.527
710.64	0.525
710.83	0.527
711.02	0.529
711.20	0.528
711.39	0.526
711.57	0.524
711.76	0.524
711.94	0.523
712.13	0.523
712.31	0.523
712.50	0.518
712.68	0.515
712.87	0.517
713.05	0.517
713.24	0.518
713.42	0.517
713.61	0.517
713.79	0.519
713.98	0.519
714.16	0.519
714.35	0.520
714.54	0.520
714.72	0.521
714.91	0.519
715.09	0.525
715.28	0.527
715.46	0.527
715.65	0.525
715.83	0.524
716.02	0.526
716.20	0.523
716.39	0.522
716.57	0.523
716.76	0.526
716.94	0.525
717.12	0.518
717.31	0.519
717.49	0.522
717.68	0.524
717.86	0.524
718.05	0.526
718.23	0.528
718.42	0.531
718.60	0.531
718.79	0.539
718.97	0.541
719.16	0.541
719.34	0.539
719.53	0.538
719.71	0.538
719.90	0.539
720.08	0.536
720.27	0.537
720.45	0.537
720.63	0.536
720.82	0.530
721.00	0.532
721.19	0.536
721.37	0.535
721.56	0.536
721.74	0.538
721.93	0.546
722.11	0.553
722.30	0.552
722.48	0.556
722.66	0.558
722.85	0.557
723.03	0.556
723.22	0.555
723.40	0.558
723.59	0.558
723.77	0.562
723.95	0.556
724.14	0.558
724.32	0.559
724.51	0.559
724.69	0.560
724.88	0.561
725.06	0.559
725.24	0.560
725.43	0.561
725.61	0.564
725.80	0.558
725.98	0.556
726.16	0.552
726.35	0.558
726.53	0.557
726.72	0.555
726.90	0.565
727.09	0.566
727.27	0.571
727.45	0.568
727.64	0.577
727.82	0.586
728.01	0.591
728.19	0.588
728.37	0.593
728.56	0.597
728.74	0.603
728.92	0.591
729.11	0.594
729.29	0.593
729.48	0.596
729.66	0.586
729.84	0.584
730.03	0.587
730.21	0.588
730.40	0.578
730.58	0.578
730.76	0.579
730.95	0.582
731.13	0.582
731.31	0.594
731.50	0.603
731.68	0.606
731.86	0.602
732.05	0.614
732.23	0.619
732.42	0.623
732.60	0.626
732.78	0.631
732.97	0.650
733.15	0.654
733.33	0.642
733.52	0.648
733.70	0.658
733.88	0.668
734.07	0.656
734.25	0.679
734.43	0.688
734.62	0.692
734.80	0.687
734.98	0.675
735.17	0.681
735.35	0.687
735.53	0.677
735.72	0.680
735.90	0.698
736.08	0.714
736.27	0.693
736.45	0.702
736.63	0.712
736.82	0.723
737.00	0.724
737.18	0.735
737.37	0.767
737.55	0.787
737.73	0.783
737.92	0.787
738.10	0.786
738.28	0.806
738.46	0.795
738.65	0.807
738.83	0.825
739.01	0.874
739.20	0.866
739.38	0.847
739.56	0.840
739.75	0.844
739.93	0.812
740.11	0.834
740.29	0.834
740.48	0.839
740.66	0.819
740.84	0.814
741.03	0.783
741.21	0.794
741.39	0.776
741.57	0.788
741.76	0.803
741.94	0.806
742.12	0.772
742.31	0.775
742.49	0.793
742.67	0.814
742.85	0.825
743.04	0.827
743.22	0.835
743.40	0.885
743.58	0.867
743.77	0.880
743.95	0.915
744.13	0.959
744.31	0.939
744.50	0.934
744.68	0.936
744.86	0.911
745.04	0.923
745.23	0.980
745.41	0.964
745.59	0.968
745.77	0.935
745.96	0.923
746.14	0.934
746.32	0.935
746.50	0.925
746.69	0.906
746.87	0.914
747.05	0.899
747.23	0.831
747.42	0.817
747.60	0.844
747.78	0.850
747.96	0.877
748.14	0.835
748.33	0.859
748.51	0.851
748.69	0.847
748.87	0.874
749.06	0.871
749.24	0.871
749.42	0.855
749.60	0.835
749.78	0.842
749.97	0.800
750.15	0.797
750.33	0.801
750.51	0.826
750.69	0.826
750.88	0.833
751.06	0.846
751.24	0.870
751.42	0.862
751.60	0.856
751.79	0.923
751.97	0.965
752.15	0.956
752.33	0.927
752.51	0.989
752.69	1.011
752.88	0.982
753.06	1.018
753.24	0.996
753.42	1.034
753.60	1.195
753.78	1.060
753.97	1.077
754.15	1.099
754.33	1.125
754.51	1.006
754.69	0.992
754.87	1.018
755.06	0.951
755.24	0.951
755.42	0.958
755.60	0.864
755.78	0.874
755.96	0.822
756.15	0.822
756.33	0.830
756.51	0.847
756.69	0.833
756.87	0.802
757.05	0.819
757.23	0.805
757.42	0.775
757.60	0.773
757.78	0.760
757.96	0.763
758.14	0.748
758.32	0.732
758.50	0.742
758.69	0.740
758.87	0.729
759.05	0.732
759.23	0.741
759.41	0.741
759.59	0.735
759.77	0.758
759.95	0.782
760.13	0.827
760.32	0.826
760.50	0.822
760.68	0.847
760.86	0.848
761.04	0.825
761.22	0.827
761.40	0.871
761.58	0.874
761.76	0.847
761.95	0.831
762.13	0.792
762.31	0.795
762.49	0.768
762.67	0.783
762.85	0.798
763.03	0.790
763.21	0.773
763.39	0.754
763.57	0.755
763.75	0.750
763.94	0.735
764.12	0.735
764.30	0.753
764.48	0.758
764.66	0.726
764.84	0.725
765.02	0.763
765.20	0.768
765.38	0.749
765.56	0.755
765.74	0.792
765.92	0.793
766.10	0.797
766.28	0.791
766.46	0.816
766.65	0.815
766.83	0.802
767.01	0.787
767.19	0.795
767.37	0.797
767.55	0.780
767.73	0.760
767.91	0.763
768.09	0.754
768.27	0.743
768.45	0.732
768.63	0.738
768.81	0.741
768.99	0.716
769.17	0.739
769.35	0.753
769.53	0.753
769.71	0.736
769.89	0.745
770.07	0.749
770.25	0.734
770.43	0.714
770.61	0.736
770.79	0.743
770.97	0.752
771.15	0.722
771.33	0.725
771.51	0.727
771.69	0.737
771.87	0.746
772.05	0.752
772.24	0.759
772.42	0.768
772.60	0.745
772.78	0.796
772.96	0.822
773.14	0.816
773.32	0.795
773.49	0.801
773.67	0.800
773.85	0.780
774.03	0.767
774.21	0.797
774.39	0.806
774.57	0.831
774.75	0.764
774.93	0.758
775.11	0.780
775.29	0.786
775.47	0.785
775.65	0.794
775.83	0.808
776.01	0.829
776.19	0.783
776.37	0.787
776.55	0.786
776.73	0.785
776.91	0.783
777.09	0.768
777.27	0.769
777.45	0.760
777.63	0.738
777.81	0.735
777.99	0.727
778.17	0.730
778.35	0.708
778.53	0.695
778.71	0.700
778.89	0.688
779.07	0.677
779.24	0.681
779.42	0.684
779.60	0.702
779.78	0.699
779.96	0.703
780.14	0.709
780.32	0.727
780.50	0.710
780.68	0.710
780.86	0.702
781.04	0.719
781.22	0.724
781.40	0.736
781.58	0.727
781.75	0.720
781.93	0.701
782.11	0.702
782.29	0.691
782.47	0.690
782.65	0.680
782.83	0.708
783.01	0.702
783.19	0.693
783.37	0.677
783.55	0.678
783.72	0.696
783.90	0.707
784.08	0.699
784.26	0.709
784.44	0.728
784.62	0.729
784.80	0.699
784.98	0.704
785.16	0.711
785.33	0.725
785.51	0.714
785.69	0.699
785.87	0.699
786.05	0.708
786.23	0.704
786.41	0.703
786.59	0.708
786.77	0.709
786.94	0.694
787.12	0.697
787.30	0.700
787.48	0.697
787.66	0.687
787.84	0.689
788.02	0.681
788.19	0.679
788.37	0.666
788.55	0.670
788.73	0.667
788.91	0.663
789.09	0.646
789.27	0.634
789.44	0.642
789.62	0.647
789.80	0.655
789.98	0.679
790.16	0.666
790.34	0.663
790.51	0.649
790.69	0.669
790.87	0.676
791.05	0.674
791.23	0.668
791.41	0.672
791.58	0.679
791.76	0.659
791.94	0.629
792.12	0.638
792.30	0.640
792.48	0.639
792.65	0.634
792.83	0.639
793.01	0.648
793.19	0.647
793.37	0.631
793.54	0.627
793.72	0.636
793.90	0.636
794.08	0.626
794.26	0.628
794.43	0.636
794.61	0.619
794.79	0.609
794.97	0.608
795.15	0.612
795.32	0.618
795.50	0.608
795.68	0.605
795.86	0.608
796.04	0.609
796.21	0.602
796.39	0.599
796.57	0.613
796.75	0.621
796.92	0.620
797.10	0.625
797.28	0.626
797.46	0.629
797.64	0.631
797.81	0.640
797.99	0.646
798.17	0.651
798.35	0.648
798.52	0.652
798.70	0.648
798.88	0.658
799.06	0.657
799.23	0.662
799.41	0.670
799.59	0.663
799.77	0.651
799.94	0.658
800.12	0.666
800.30	0.683
800.48	0.680
800.65	0.681
800.83	0.667
801.01	0.660
801.19	0.660
801.36	0.656
801.54	0.657
801.72	0.664
801.90	0.653
802.07	0.649
802.25	0.636
802.43	0.621
802.60	0.616
802.78	0.625
802.96	0.629
803.14	0.621
803.31	0.619
803.49	0.619
803.67	0.617
803.84	0.621
804.02	0.613
804.20	0.615
804.38	0.620
804.55	0.620
804.73	0.605
804.91	0.606
805.08	0.618
805.26	0.615
805.44	0.680
805.61	0.682
805.79	0.681
805.97	0.680
806.15	0.672
806.32	0.668
806.50	0.674
806.68	0.674
806.85	0.664
807.03	0.655
807.21	0.671
807.38	0.605
807.56	0.595
807.74	0.604
807.91	0.609
808.09	0.612
808.27	0.627
808.44	0.653
808.62	0.662
808.80	0.664
808.97	0.661
809.15	0.655
809.33	0.671
809.50	0.678
809.68	0.667
809.86	0.677
810.03	0.707
810.21	0.689
810.39	0.670
810.56	0.675
810.74	0.696
810.91	0.764
811.09	0.754
811.27	0.773
811.44	0.779
811.62	0.777
811.80	0.762
811.97	0.734
812.15	0.735
812.33	0.728
812.50	0.716
812.68	0.706
812.85	0.654
813.03	0.655
813.21	0.626
813.38	0.621
813.56	0.625
813.74	0.632
813.91	0.639
814.09	0.667
814.26	0.662
814.44	0.666
814.62	0.655
814.79	0.656
814.97	0.661
815.14	0.665
815.32	0.668
815.50	0.684
815.67	0.688
815.85	0.680
816.02	0.668
816.20	0.674
816.38	0.688
816.55	0.695
816.73	0.695
816.90	0.706
817.08	0.736
817.26	0.743
817.43	0.723
817.61	0.744
817.78	0.764
817.96	0.746
818.13	0.735
818.31	0.736
818.49	0.748
818.66	0.738
818.84	0.724
819.01	0.700
819.19	0.705
819.36	0.705
819.54	0.678
819.71	0.712
819.89	0.724
820.07	0.737
820.24	0.730
820.42	0.732
820.59	0.751
820.77	0.770
820.94	0.766
821.12	0.782
821.29	0.798
821.47	0.796
821.64	0.740
821.82	0.755
822.00	0.753
822.17	0.747
822.35	0.738
822.52	0.742
822.70	0.731
822.87	0.738
823.05	0.720
823.22	0.733
823.40	0.761
823.57	0.780
823.75	0.761
823.92	0.783
824.10	0.803
824.27	0.840
824.45	0.825
824.62	0.884
824.80	0.899
824.97	0.905
825.15	0.893
825.32	0.903
825.50	0.905
825.67	0.916
825.85	0.895
826.02	0.914
826.20	0.939
826.37	1.056
826.55	0.985
826.72	1.159
826.90	1.232
827.07	1.278
827.25	1.225
827.42	1.372
827.60	1.501
827.77	1.658
827.95	1.604
828.12	1.691
828.30	1.384
828.47	1.486
828.65	1.157
828.82	1.200
829.00	1.253
829.17	1.328
829.34	1.320
829.52	1.349
829.69	-0.000
829.87	-0.000
830.04	-0.000
830.22	-0.000
830.39	-0.000
830.57	-0.000
830.74	-0.000
830.92	-0.000
831.09	-0.000
831.26	-0.000
831.44	-0.000
831.61	-0.000
831.79	-0.000
831.96	-0.000
832.14	-0.000
832.31	-0.000
832.49	-0.000
832.66	-0.000
832.83	-0.000
833.01	-0.000
833.18	-0.000
833.36	-0.000
833.53	-0.000
833.70	-0.000
833.88	-0.000
834.05	-0.000
834.23	-0.000
834.40	-0.000
834.58	-0.000
834.75	-0.000
834.92	-0.000
835.10	-0.000
835.27	-0.000
835.45	-0.000
835.62	-0.000
835.79	-0.000
835.97	-0.000
836.14	-0.000
836.32	-0.000
836.49	-0.000
836.66	-0.000
836.84	-0.000
837.01	-0.000
837.18	-0.000
837.36	-0.000
837.53	-0.000
837.71	-0.000
837.88	-0.000
838.05	-0.000
838.23	-0.000
838.40	-0.000
838.58	-0.000
838.75	-0.000
838.92	-0.000
839.10	-0.000
839.27	-0.000
839.44	-0.000
839.62	-0.000
839.79	-0.000
839.96	-0.000
840.14	-0.000
840.31	-0.000
840.48	-0.000
840.66	-0.000
840.83	-0.000
841.01	-0.000
841.18	-0.000
841.35	-0.000
841.53	-0.000
841.70	-0.000
841.87	-0.000
842.05	-0.000
842.22	-0.000
842.39	-0.000
842.57	-0.000
842.74	-0.000
842.91	-0.000
843.09	-0.000
843.26	-0.000
843.43	-0.000
843.60	-0.000
843.78	-0.000
843.95	-0.000
844.12	-0.000
844.30	-0.000
844.47	-0.000
844.64	-0.000
844.82	-0.000
844.99	-0.000
845.16	-0.000
845.34	-0.000
845.51	-0.000
845.68	-0.000
845.85	-0.000
846.03	-0.000
846.20	-0.000
846.37	-0.000
846.55	-0.000
846.72	-0.000
846.89	-0.000
847.06	-0.000
847.24	-0.000
847.41	-0.000
847.58	-0.000
847.76	-0.000
847.93	-0.000
848.10	-0.000
848.27	-0.000
848.45	-0.000
848.62	-0.000
848.79	-0.000
848.97	-0.000
849.14	-0.000
849.31	-0.000
849.48	-0.000
849.66	-0.000
849.83	-0.000
850.00	-0.000
850.17	-0.000
850.35	-0.000
850.52	-0.000
850.69	-0.000
850.86	-0.000
851.04	-0.000
851.21	-0.000
851.38	-0.000
851.55	-0.000
851.72	-0.000
851.90	-0.000
852.07	-0.000
852.24	-0.000
852.41	-0.000
852.59	-0.000
852.76	-0.000
852.93	-0.000
853.10	-0.000
853.28	-0.000
853.45	-0.000
853.62	-0.000
853.79	-0.000
853.96	-0.000
854.14	-0.000
854.31	-0.000
854.48	-0.000
854.65	-0.000
854.82	-0.000
855.00	-0.000
855.17	-0.000
855.34	-0.000
855.51	-0.000
855.68	-0.000
855.86	-0.000
856.03	-0.000
856.20	-0.000
856.37	-0.000
856.54	-0.000
856.72	-0.000
856.89	-0.000
857.06	-0.000
857.23	-0.000
857.40	-0.000
857.57	-0.000
857.75	-0.000
857.92	-0.000
858.09	-0.000
858.26	-0.000
858.43	-0.000
858.60	-0.000
858.78	-0.000
858.95	-0.000
859.12	-0.000
859.29	-0.000
859.46	-0.000
859.63	-0.000
859.81	-0.000
859.98	-0.000
860.15	-0.000
860.32	-0.000
860.49	-0.000
860.66	-0.000
860.83	-0.000
861.01	-0.000
861.18	-0.000
861.35	-0.000
861.52	-0.000
861.69	-0.000
861.86	-0.000
862.03	-0.000
862.21	-0.000
862.38	-0.000
862.55	-0.000
862.72	-0.000
862.89	-0.000
863.06	-0.000
863.23	-0.000
863.40	-0.000
863.58	-0.000
863.75	-0.000
863.92	-0.000
864.09	-0.000
864.26	-0.000
864.43	-0.000
864.60	-0.000
864.77	-0.000
864.94	-0.000
865.11	-0.000
865.29	-0.000
865.46	-0.000
865.63	-0.000
865.80	-0.000
865.97	-0.000
866.14	-0.000
866.31	-0.000
866.48	-0.000
866.65	-0.000
866.82	-0.000
866.99	-0.000
867.16	-0.000
867.34	-0.000
867.51	-0.000
867.68	-0.000
867.85	-0.000
868.02	-0.000
868.19	-0.000
868.36	-0.000
868.53	-0.000
868.70	-0.000
868.87	-0.000
869.04	-0.000
869.21	-0.000
869.38	-0.000
869.55	-0.000
869.72	-0.000
869.89	-0.000
870.06	-0.000
870.24	-0.000
870.41	-0.000
870.58	-0.000
870.75	-0.000
870.92	-0.000
871.09	-0.000
871.26	-0.000
871.43	-0.000
871.60	-0.000
871.77	-0.000
871.94	-0.000
872.11	-0.000
872.28	-0.000
872.45	-0.000
872.62	-0.000
872.79	-0.000
872.96	-0.000
873.13	-0.000
873.30	-0.000
873.47	-0.000
873.64	-0.000
873.81	-0.000
873.98	-0.000
874.15	-0.000
874.32	-0.000
874.49	-0.000
874.66	-0.000
874.83	-0.000
875.00	-0.000
875.17	-0.000
875.34	-0.000
875.51	-0.000
875.68	-0.000
875.85	-0.000
876.02	-0.000
876.19	-0.000
876.36	-0.000
876.53	-0.000
876.70	-0.000
876.87	-0.000
877.04	-0.000
877.21	-0.000
877.38	-0.000
877.55	-0.000
877.72	-0.000
877.89	-0.000
878.06	-0.000
878.23	-0.000
878.39	-0.000
878.56	-0.000
878.73	-0.000
878.90	-0.000
879.07	-0.000
879.24	-0.000
879.41	-0.000
879.58	-0.000
879.75	-0.000
879.92	-0.000
880.09	-0.000
880.26	-0.000
880.43	-0.000
880.60	-0.000
880.77	-0.000
880.94	-0.000
881.11	-0.000
881.27	-0.000
881.44	-0.000
881.61	-0.000
881.78	-0.000
881.95	-0.000
882.12	-0.000
882.29	-0.000
882.46	-0.000
882.63	-0.000
882.80	-0.000
882.97	-0.000
883.14	-0.000
883.30	-0.000
883.47	-0.000
883.64	-0.000
883.81	-0.000
883.98	-0.000
884.15	-0.000
884.32	-0.000
884.49	-0.000
884.66	-0.000
884.82	-0.000
884.99	-0.000
885.16	-0.000
885.33	-0.000
885.50	-0.000
885.67	-0.000
885.84	-0.000
886.01	-0.000
886.17	-0.000
886.34	-0.000
886.51	-0.000
886.68	-0.000
886.85	-0.000
887.02	-0.000
887.19	-0.000
887.36	-0.000
887.52	-0.000
887.69	-0.000
887.86	-0.000
888.03	-0.000
888.20	-0.000
888.37	-0.000
888.54	-0.000
888.70	-0.000
888.87	-0.000
889.04	-0.000
889.21	-0.000
889.38	-0.000
889.55	-0.000
889.71	-0.000
889.88	-0.000
890.05	-0.000
890.22	-0.000
890.39	-0.000
>>>>>End Processed Spectral Data<<<<<
