SpectraSuite Data File
++++++++++++++++++++++++++++++++++++
Date: Fri Jun 19 14:38:57 CEST 2015
User: introlabs
Dark Spectrum Present: Yes
Reference Spectrum Present: Yes
Number of Sampled Component Spectra: 1
Spectrometers: USB4H08886
Integration Time (usec): 745692 (USB4H08886)
Spectra Averaged: 5 (USB4H08886)
Boxcar Smoothing: 5 (USB4H08886)
Correct for Electrical Dark: Yes (USB4H08886)
Strobe/Lamp Enabled: No (USB4H08886)
Correct for Detector Non-linearity: Yes (USB4H08886)
Correct for Stray Light: Yes (USB4H08886)
Number of Pixels in Processed Spectrum: 3648
>>>>>Begin Processed Spectral Data<<<<<
178.14	-0.000
178.36	-0.000
178.57	-0.000
178.79	-0.000
179.01	-0.000
179.22	-0.000
179.44	-0.000
179.65	-0.000
179.87	-0.000
180.08	-0.000
180.30	-0.000
180.52	-0.000
180.73	-0.000
180.95	-0.000
181.16	-0.000
181.38	-0.000
181.59	-0.000
181.81	-0.000
182.03	-0.000
182.24	-0.000
182.46	-0.000
182.67	-0.000
182.89	-0.000
183.10	-0.000
183.32	-0.000
183.54	-0.000
183.75	-0.000
183.97	-0.000
184.18	-0.000
184.40	-0.000
184.61	-0.000
184.83	-0.000
185.04	-0.000
185.26	-0.000
185.48	-0.000
185.69	-0.000
185.91	-0.000
186.12	-0.000
186.34	-0.000
186.55	-0.000
186.77	-0.000
186.98	-0.000
187.20	-0.000
187.42	-0.000
187.63	-0.000
187.85	-0.000
188.06	-0.000
188.28	-0.000
188.49	-0.000
188.71	-0.000
188.92	-0.000
189.14	-0.000
189.36	-0.000
189.57	-0.000
189.79	-0.000
190.00	-0.000
190.22	-0.000
190.43	-0.000
190.65	-0.000
190.86	-0.000
191.08	-0.000
191.29	-0.000
191.51	-0.000
191.72	-0.000
191.94	-0.000
192.16	-0.000
192.37	-0.000
192.59	-0.000
192.80	-0.000
193.02	-0.000
193.23	-0.000
193.45	-0.000
193.66	-0.000
193.88	-0.000
194.09	-0.000
194.31	-0.000
194.52	-0.000
194.74	-0.000
194.95	-0.000
195.17	-0.000
195.38	-0.000
195.60	-0.000
195.81	-0.000
196.03	-0.000
196.25	-0.000
196.46	-0.000
196.68	-0.000
196.89	-0.000
197.11	-0.000
197.32	-0.000
197.54	-0.000
197.75	-0.000
197.97	-0.000
198.18	-0.000
198.40	-0.000
198.61	-0.000
198.83	-0.000
199.04	-0.000
199.26	-0.000
199.47	-0.000
199.69	-0.000
199.90	-0.000
200.12	-0.000
200.33	-0.000
200.55	-0.000
200.76	-0.000
200.98	-0.000
201.19	-0.000
201.41	-0.000
201.62	-0.000
201.84	-0.000
202.05	-0.000
202.27	-0.000
202.48	-0.000
202.70	-0.000
202.91	-0.000
203.13	-0.000
203.34	-0.000
203.56	-0.000
203.77	-0.000
203.99	-0.000
204.20	-0.000
204.42	-0.000
204.63	-0.000
204.85	-0.000
205.06	-0.000
205.28	-0.000
205.49	-0.000
205.71	-0.000
205.92	-0.000
206.14	-0.000
206.35	-0.000
206.56	-0.000
206.78	-0.000
206.99	-0.000
207.21	-0.000
207.42	-0.000
207.64	-0.000
207.85	-0.000
208.07	-0.000
208.28	-0.000
208.50	-0.000
208.71	-0.000
208.93	-0.000
209.14	-0.000
209.36	-0.000
209.57	-0.000
209.79	-0.000
210.00	-0.000
210.22	-0.000
210.43	-0.000
210.64	-0.000
210.86	-0.000
211.07	-0.000
211.29	-0.000
211.50	-0.000
211.72	-0.000
211.93	-0.000
212.15	-0.000
212.36	-0.000
212.58	-0.000
212.79	-0.000
213.01	-0.000
213.22	-0.000
213.43	-0.000
213.65	-0.000
213.86	-0.000
214.08	-0.000
214.29	-0.000
214.51	-0.000
214.72	-0.000
214.94	-0.000
215.15	-0.000
215.36	-0.000
215.58	-0.000
215.79	-0.000
216.01	-0.000
216.22	-0.000
216.44	-0.000
216.65	-0.000
216.87	-0.000
217.08	-0.000
217.29	-0.000
217.51	-0.000
217.72	-0.000
217.94	-0.000
218.15	-0.000
218.37	-0.000
218.58	-0.000
218.80	-0.000
219.01	-0.000
219.22	-0.000
219.44	-0.000
219.65	-0.000
219.87	-0.000
220.08	-0.000
220.30	-0.000
220.51	-0.000
220.72	-0.000
220.94	-0.000
221.15	-0.000
221.37	-0.000
221.58	-0.000
221.79	-0.000
222.01	-0.000
222.22	-0.000
222.44	-0.000
222.65	-0.000
222.87	-0.000
223.08	-0.000
223.29	-0.000
223.51	-0.000
223.72	-0.000
223.94	-0.000
224.15	-0.000
224.36	-0.000
224.58	-0.000
224.79	-0.000
225.01	-0.000
225.22	-0.000
225.44	-0.000
225.65	-0.000
225.86	-0.000
226.08	-0.000
226.29	-0.000
226.51	-0.000
226.72	-0.000
226.93	-0.000
227.15	-0.000
227.36	-0.000
227.58	-0.000
227.79	-0.000
228.00	-0.000
228.22	-0.000
228.43	-0.000
228.65	-0.000
228.86	-0.000
229.07	-0.000
229.29	-0.000
229.50	-0.000
229.72	-0.000
229.93	-0.000
230.14	-0.000
230.36	-0.000
230.57	-0.000
230.78	-0.000
231.00	-0.000
231.21	-0.000
231.43	-0.000
231.64	-0.000
231.85	-0.000
232.07	-0.000
232.28	-0.000
232.50	-0.000
232.71	-0.000
232.92	-0.000
233.14	-0.000
233.35	-0.000
233.56	-0.000
233.78	-0.000
233.99	-0.000
234.21	-0.000
234.42	-0.000
234.63	-0.000
234.85	-0.000
235.06	-0.000
235.27	-0.000
235.49	-0.000
235.70	-0.000
235.91	-0.000
236.13	-0.000
236.34	-0.000
236.56	-0.000
236.77	-0.000
236.98	-0.000
237.20	-0.000
237.41	-0.000
237.62	-0.000
237.84	-0.000
238.05	-0.000
238.26	-0.000
238.48	-0.000
238.69	-0.000
238.91	-0.000
239.12	-0.000
239.33	-0.000
239.55	-0.000
239.76	-0.000
239.97	-0.000
240.19	-0.000
240.40	-0.000
240.61	-0.000
240.83	-0.000
241.04	-0.000
241.25	-0.000
241.47	-0.000
241.68	-0.000
241.89	-0.000
242.11	-0.000
242.32	-0.000
242.53	-0.000
242.75	-0.000
242.96	-0.000
243.17	-0.000
243.39	-0.000
243.60	-0.000
243.81	-0.000
244.03	-0.000
244.24	-0.000
244.45	-0.000
244.67	-0.000
244.88	-0.000
245.09	-0.000
245.31	-0.000
245.52	-0.000
245.73	-0.000
245.95	-0.000
246.16	-0.000
246.37	-0.000
246.59	-0.000
246.80	-0.000
247.01	-0.000
247.23	-0.000
247.44	-0.000
247.65	-0.000
247.87	-0.000
248.08	-0.000
248.29	-0.000
248.51	-0.000
248.72	-0.000
248.93	-0.000
249.15	-0.000
249.36	-0.000
249.57	-0.000
249.78	-0.000
250.00	-0.000
250.21	-0.000
250.42	-0.000
250.64	-0.000
250.85	-0.000
251.06	-0.000
251.28	-0.000
251.49	-0.000
251.70	-0.000
251.92	-0.000
252.13	-0.000
252.34	-0.000
252.55	-0.000
252.77	-0.000
252.98	-0.000
253.19	-0.000
253.41	-0.000
253.62	-0.000
253.83	-0.000
254.05	-0.000
254.26	-0.000
254.47	-0.000
254.68	-0.000
254.90	-0.000
255.11	-0.000
255.32	-0.000
255.54	-0.000
255.75	-0.000
255.96	-0.000
256.17	-0.000
256.39	-0.000
256.60	-0.000
256.81	-0.000
257.03	-0.000
257.24	-0.000
257.45	-0.000
257.66	-0.000
257.88	-0.000
258.09	-0.000
258.30	-0.000
258.51	-0.000
258.73	-0.000
258.94	-0.000
259.15	-0.000
259.37	-0.000
259.58	-0.000
259.79	-0.000
260.00	-0.000
260.22	-0.000
260.43	-0.000
260.64	-0.000
260.85	-0.000
261.07	-0.000
261.28	-0.000
261.49	-0.000
261.71	-0.000
261.92	-0.000
262.13	-0.000
262.34	-0.000
262.56	-0.000
262.77	-0.000
262.98	-0.000
263.19	-0.000
263.41	-0.000
263.62	-0.000
263.83	-0.000
264.04	-0.000
264.26	-0.000
264.47	-0.000
264.68	-0.000
264.89	-0.000
265.11	-0.000
265.32	-0.000
265.53	-0.000
265.74	-0.000
265.96	-0.000
266.17	-0.000
266.38	-0.000
266.59	-0.000
266.81	-0.000
267.02	-0.000
267.23	-0.000
267.44	-0.000
267.65	-0.000
267.87	-0.000
268.08	-0.000
268.29	-0.000
268.50	-0.000
268.72	-0.000
268.93	-0.000
269.14	-0.000
269.35	-0.000
269.57	-0.000
269.78	-0.000
269.99	-0.000
270.20	-0.000
270.41	-0.000
270.63	-0.000
270.84	-0.000
271.05	-0.000
271.26	-0.000
271.48	-0.000
271.69	-0.000
271.90	-0.000
272.11	-0.000
272.32	-0.000
272.54	-0.000
272.75	-0.000
272.96	-0.000
273.17	-0.000
273.39	-0.000
273.60	-0.000
273.81	-0.000
274.02	-0.000
274.23	-0.000
274.45	-0.000
274.66	-0.000
274.87	-0.000
275.08	-0.000
275.29	-0.000
275.51	-0.000
275.72	-0.000
275.93	-0.000
276.14	-0.000
276.35	-0.000
276.57	-0.000
276.78	-0.000
276.99	-0.000
277.20	-0.000
277.41	-0.000
277.63	-0.000
277.84	-0.000
278.05	-0.000
278.26	-0.000
278.47	-0.000
278.69	-0.000
278.90	-0.000
279.11	-0.000
279.32	-0.000
279.53	-0.000
279.74	-0.000
279.96	-0.000
280.17	-0.000
280.38	-0.000
280.59	-0.000
280.80	-0.000
281.02	-0.000
281.23	-0.000
281.44	-0.000
281.65	-0.000
281.86	-0.000
282.07	-0.000
282.29	-0.000
282.50	-0.000
282.71	-0.000
282.92	-0.000
283.13	-0.000
283.35	-0.000
283.56	-0.000
283.77	-0.000
283.98	-0.000
284.19	-0.000
284.40	-0.000
284.62	-0.000
284.83	-0.000
285.04	-0.000
285.25	-0.000
285.46	-0.000
285.67	-0.000
285.88	-0.000
286.10	-0.000
286.31	-0.000
286.52	-0.000
286.73	-0.000
286.94	-0.000
287.15	-0.000
287.37	-0.000
287.58	-0.000
287.79	-0.000
288.00	-0.000
288.21	-0.000
288.42	-0.000
288.63	-0.000
288.85	-0.000
289.06	-0.000
289.27	-0.000
289.48	-0.000
289.69	-0.000
289.90	-0.000
290.11	-0.000
290.33	-0.000
290.54	-0.000
290.75	-0.000
290.96	-0.000
291.17	-0.000
291.38	-0.000
291.59	-0.000
291.81	-0.000
292.02	-0.000
292.23	-0.000
292.44	-0.000
292.65	-0.000
292.86	-0.000
293.07	-0.000
293.28	-0.000
293.50	-0.000
293.71	-0.000
293.92	-0.000
294.13	-0.000
294.34	-0.000
294.55	-0.000
294.76	-0.000
294.97	-0.000
295.19	-0.000
295.40	-0.000
295.61	-0.000
295.82	-0.000
296.03	-0.000
296.24	-0.000
296.45	2.250
296.66	1.828
296.87	1.871
297.09	1.997
297.30	2.315
297.51	1.801
297.72	1.756
297.93	1.852
298.14	1.804
298.35	1.730
298.56	1.705
298.77	1.852
298.99	1.826
299.20	1.781
299.41	1.746
299.62	1.699
299.83	1.682
300.04	1.608
300.25	1.606
300.46	1.645
300.67	1.635
300.88	1.574
301.10	1.579
301.31	1.658
301.52	1.591
301.73	1.528
301.94	1.530
302.15	1.552
302.36	1.505
302.57	1.438
302.78	1.444
302.99	1.485
303.20	1.503
303.41	1.402
303.63	1.386
303.84	1.393
304.05	1.390
304.26	1.328
304.47	1.334
304.68	1.336
304.89	1.329
305.10	1.289
305.31	1.282
305.52	1.328
305.73	1.322
305.94	1.279
306.15	1.273
306.37	1.298
306.58	1.305
306.79	1.272
307.00	1.295
307.21	1.338
307.42	1.330
307.63	1.289
307.84	1.252
308.05	1.291
308.26	1.291
308.47	1.267
308.68	1.260
308.89	1.265
309.10	1.263
309.31	1.223
309.52	1.212
309.73	1.232
309.95	1.225
310.16	1.195
310.37	1.186
310.58	1.208
310.79	1.206
311.00	1.202
311.21	1.203
311.42	1.201
311.63	1.194
311.84	1.174
312.05	1.167
312.26	1.191
312.47	1.205
312.68	1.180
312.89	1.159
313.10	1.167
313.31	1.139
313.52	1.141
313.73	1.142
313.94	1.144
314.15	1.125
314.36	1.106
314.57	1.098
314.78	1.085
314.99	1.078
315.21	1.067
315.42	1.072
315.63	1.085
315.84	1.064
316.05	1.050
316.26	1.059
316.47	1.078
316.68	1.072
316.89	1.052
317.10	1.071
317.31	1.079
317.52	1.082
317.73	1.060
317.94	1.059
318.15	1.100
318.36	1.100
318.57	1.083
318.78	1.073
318.99	1.110
319.20	1.108
319.41	1.074
319.62	1.071
319.83	1.084
320.04	1.079
320.25	1.066
320.46	1.032
320.67	1.036
320.88	1.030
321.09	1.017
321.30	1.003
321.51	1.017
321.72	1.015
321.93	1.001
322.14	0.995
322.35	1.021
322.56	1.024
322.77	1.011
322.98	1.024
323.19	1.033
323.40	1.038
323.61	1.015
323.82	1.011
324.03	1.018
324.24	1.015
324.45	1.001
324.66	0.982
324.87	0.978
325.08	0.978
325.29	0.957
325.50	0.954
325.71	0.960
325.92	0.968
326.13	0.953
326.34	0.954
326.55	0.962
326.76	0.961
326.97	0.950
327.18	0.944
327.39	0.969
327.60	0.970
327.80	0.966
328.01	0.965
328.22	0.965
328.43	0.968
328.64	0.954
328.85	0.959
329.06	0.960
329.27	0.959
329.48	0.956
329.69	0.937
329.90	0.947
330.11	0.940
330.32	0.933
330.53	0.926
330.74	0.926
330.95	0.924
331.16	0.910
331.37	0.918
331.58	0.918
331.79	0.918
332.00	0.908
332.21	0.901
332.42	0.906
332.63	0.896
332.83	0.892
333.04	0.896
333.25	0.909
333.46	0.906
333.67	0.893
333.88	0.896
334.09	0.905
334.30	0.903
334.51	0.895
334.72	0.891
334.93	0.895
335.14	0.893
335.35	0.885
335.56	0.880
335.77	0.889
335.98	0.888
336.18	0.881
336.39	0.875
336.60	0.879
336.81	0.878
337.02	0.877
337.23	0.881
337.44	0.885
337.65	0.887
337.86	0.877
338.07	0.871
338.28	0.876
338.49	0.875
338.70	0.866
338.91	0.872
339.11	0.879
339.32	0.875
339.53	0.864
339.74	0.861
339.95	0.857
340.16	0.855
340.37	0.847
340.58	0.845
340.79	0.850
341.00	0.850
341.21	0.840
341.41	0.839
341.62	0.842
341.83	0.842
342.04	0.837
342.25	0.848
342.46	0.852
342.67	0.850
342.88	0.842
343.09	0.841
343.30	0.848
343.50	0.852
343.71	0.842
343.92	0.840
344.13	0.845
344.34	0.845
344.55	0.828
344.76	0.827
344.97	0.833
345.18	0.833
345.38	0.829
345.59	0.824
345.80	0.823
346.01	0.820
346.22	0.816
346.43	0.810
346.64	0.818
346.85	0.817
347.06	0.810
347.26	0.810
347.47	0.814
347.68	0.809
347.89	0.806
348.10	0.800
348.31	0.807
348.52	0.807
348.73	0.804
348.93	0.801
349.14	0.804
349.35	0.804
349.56	0.797
349.77	0.792
349.98	0.799
350.19	0.796
350.39	0.791
350.60	0.786
350.81	0.803
351.02	0.801
351.23	0.797
351.44	0.799
351.65	0.802
351.86	0.800
352.06	0.799
352.27	0.798
352.48	0.799
352.69	0.800
352.90	0.794
353.11	0.780
353.31	0.787
353.52	0.782
353.73	0.774
353.94	0.776
354.15	0.782
354.36	0.781
354.57	0.774
354.77	0.776
354.98	0.775
355.19	0.774
355.40	0.774
355.61	0.781
355.82	0.785
356.02	0.785
356.23	0.778
356.44	0.780
356.65	0.784
356.86	0.783
357.07	0.777
357.27	0.780
357.48	0.783
357.69	0.779
357.90	0.763
358.11	0.760
358.32	0.764
358.52	0.766
358.73	0.756
358.94	0.758
359.15	0.763
359.36	0.764
359.56	0.759
359.77	0.756
359.98	0.762
360.19	0.762
360.40	0.758
360.61	0.759
360.81	0.758
361.02	0.759
361.23	0.751
361.44	0.749
361.65	0.748
361.85	0.748
362.06	0.745
362.27	0.747
362.48	0.748
362.69	0.750
362.89	0.743
363.10	0.745
363.31	0.750
363.52	0.753
363.73	0.748
363.93	0.749
364.14	0.751
364.35	0.753
364.56	0.744
364.77	0.746
364.97	0.748
365.18	0.750
365.39	0.744
365.60	0.741
365.81	0.742
366.01	0.742
366.22	0.739
366.43	0.738
366.64	0.740
366.84	0.746
367.05	0.742
367.26	0.742
367.47	0.743
367.68	0.744
367.88	0.740
368.09	0.738
368.30	0.740
368.51	0.739
368.71	0.738
368.92	0.742
369.13	0.740
369.34	0.739
369.55	0.738
369.75	0.737
369.96	0.744
370.17	0.744
370.38	0.742
370.58	0.741
370.79	0.747
371.00	0.745
371.21	0.736
371.41	0.743
371.62	0.747
371.83	0.742
372.04	0.740
372.24	0.733
372.45	0.734
372.66	0.734
372.87	0.730
373.07	0.726
373.28	0.728
373.49	0.730
373.70	0.721
373.90	0.720
374.11	0.729
374.32	0.729
374.53	0.728
374.73	0.728
374.94	0.730
375.15	0.730
375.36	0.728
375.56	0.737
375.77	0.737
375.98	0.737
376.19	0.734
376.39	0.728
376.60	0.731
376.81	0.732
377.02	0.730
377.22	0.729
377.43	0.729
377.64	0.729
377.84	0.720
378.05	0.725
378.26	0.731
378.47	0.730
378.67	0.728
378.88	0.725
379.09	0.726
379.30	0.727
379.50	0.724
379.71	0.727
379.92	0.729
380.12	0.728
380.33	0.720
380.54	0.715
380.75	0.722
380.95	0.722
381.16	0.720
381.37	0.720
381.57	0.721
381.78	0.721
381.99	0.721
382.20	0.720
382.40	0.723
382.61	0.724
382.82	0.721
383.02	0.715
383.23	0.718
383.44	0.717
383.64	0.715
383.85	0.717
384.06	0.721
384.27	0.718
384.47	0.716
384.68	0.717
384.89	0.722
385.09	0.721
385.30	0.721
385.51	0.720
385.71	0.724
385.92	0.724
386.13	0.723
386.33	0.724
386.54	0.725
386.75	0.725
386.95	0.721
387.16	0.716
387.37	0.720
387.58	0.720
387.78	0.718
387.99	0.716
388.20	0.718
388.40	0.716
388.61	0.712
388.82	0.715
389.02	0.717
389.23	0.717
389.44	0.716
389.64	0.716
389.85	0.727
390.06	0.726
390.26	0.726
390.47	0.725
390.68	0.728
390.88	0.725
391.09	0.721
391.30	0.720
391.50	0.721
391.71	0.721
391.92	0.718
392.12	0.709
392.33	0.711
392.53	0.711
392.74	0.711
392.95	0.710
393.15	0.713
393.36	0.714
393.57	0.712
393.77	0.715
393.98	0.717
394.19	0.716
394.39	0.716
394.60	0.717
394.81	0.719
395.01	0.717
395.22	0.716
395.43	0.717
395.63	0.722
395.84	0.723
396.04	0.719
396.25	0.721
396.46	0.723
396.66	0.721
396.87	0.719
397.08	0.716
397.28	0.719
397.49	0.720
397.69	0.717
397.90	0.711
398.11	0.713
398.31	0.714
398.52	0.710
398.73	0.711
398.93	0.711
399.14	0.711
399.34	0.709
399.55	0.710
399.76	0.710
399.96	0.711
400.17	0.710
400.37	0.708
400.58	0.714
400.79	0.716
400.99	0.713
401.20	0.718
401.41	0.720
401.61	0.721
401.82	0.726
402.02	0.726
402.23	0.727
402.44	0.727
402.64	0.727
402.85	0.721
403.05	0.720
403.26	0.720
403.47	0.714
403.67	0.713
403.88	0.713
404.08	0.707
404.29	0.705
404.50	0.705
404.70	0.705
404.91	0.704
405.11	0.702
405.32	0.702
405.52	0.702
405.73	0.702
405.94	0.700
406.14	0.703
406.35	0.705
406.55	0.705
406.76	0.702
406.97	0.703
407.17	0.706
407.38	0.706
407.58	0.704
407.79	0.707
407.99	0.709
408.20	0.710
408.41	0.705
408.61	0.703
408.82	0.705
409.02	0.705
409.23	0.703
409.43	0.702
409.64	0.703
409.84	0.703
410.05	0.699
410.26	0.697
410.46	0.697
410.67	0.697
410.87	0.699
411.08	0.701
411.28	0.703
411.49	0.704
411.69	0.702
411.90	0.704
412.11	0.706
412.31	0.707
412.52	0.705
412.72	0.706
412.93	0.706
413.13	0.705
413.34	0.701
413.54	0.702
413.75	0.703
413.95	0.702
414.16	0.698
414.37	0.702
414.57	0.702
414.78	0.704
414.98	0.702
415.19	0.703
415.39	0.701
415.60	0.703
415.80	0.703
416.01	0.701
416.21	0.703
416.42	0.704
416.62	0.698
416.83	0.699
417.03	0.699
417.24	0.699
417.44	0.696
417.65	0.696
417.86	0.696
418.06	0.694
418.27	0.692
418.47	0.694
418.68	0.694
418.88	0.694
419.09	0.692
419.29	0.693
419.50	0.693
419.70	0.693
419.91	0.691
420.11	0.689
420.32	0.691
420.52	0.690
420.73	0.689
420.93	0.690
421.14	0.692
421.34	0.691
421.55	0.688
421.75	0.687
421.96	0.689
422.16	0.689
422.37	0.688
422.57	0.685
422.78	0.687
422.98	0.684
423.19	0.682
423.39	0.680
423.60	0.684
423.80	0.685
424.01	0.683
424.21	0.686
424.42	0.687
424.62	0.687
424.83	0.686
425.03	0.686
425.23	0.687
425.44	0.688
425.64	0.688
425.85	0.687
426.05	0.688
426.26	0.689
426.46	0.685
426.67	0.684
426.87	0.689
427.08	0.689
427.28	0.687
427.49	0.688
427.69	0.689
427.90	0.688
428.10	0.686
428.31	0.685
428.51	0.687
428.71	0.686
428.92	0.687
429.12	0.684
429.33	0.684
429.53	0.688
429.74	0.692
429.94	0.692
430.15	0.692
430.35	0.691
430.56	0.688
430.76	0.687
430.96	0.688
431.17	0.685
431.37	0.683
431.58	0.682
431.78	0.679
431.99	0.672
432.19	0.674
432.40	0.675
432.60	0.676
432.80	0.678
433.01	0.676
433.21	0.676
433.42	0.678
433.62	0.678
433.83	0.678
434.03	0.680
434.23	0.683
434.44	0.682
434.64	0.679
434.85	0.685
435.05	0.686
435.26	0.686
435.46	0.684
435.66	0.684
435.87	0.684
436.07	0.684
436.28	0.680
436.48	0.677
436.69	0.676
436.89	0.676
437.09	0.670
437.30	0.669
437.50	0.670
437.71	0.682
437.91	0.681
438.11	0.683
438.32	0.687
438.52	0.687
438.73	0.686
438.93	0.684
439.13	0.684
439.34	0.688
439.54	0.685
439.75	0.685
439.95	0.675
440.15	0.679
440.36	0.677
440.56	0.674
440.77	0.675
440.97	0.675
441.17	0.673
441.38	0.675
441.58	0.672
441.79	0.672
441.99	0.670
442.19	0.669
442.40	0.667
442.60	0.667
442.81	0.665
443.01	0.665
443.21	0.666
443.42	0.666
443.62	0.664
443.82	0.664
444.03	0.666
444.23	0.666
444.44	0.666
444.64	0.665
444.84	0.667
445.05	0.666
445.25	0.664
445.45	0.664
445.66	0.666
445.86	0.664
446.06	0.665
446.27	0.665
446.47	0.668
446.68	0.666
446.88	0.665
447.08	0.665
447.29	0.667
447.49	0.667
447.69	0.667
447.90	0.666
448.10	0.669
448.30	0.666
448.51	0.667
448.71	0.664
448.91	0.666
449.12	0.665
449.32	0.666
449.52	0.665
449.73	0.668
449.93	0.667
450.14	0.667
450.34	0.667
450.54	0.670
450.75	0.667
450.95	0.666
451.15	0.666
451.36	0.669
451.56	0.666
451.76	0.665
451.97	0.662
452.17	0.663
452.37	0.662
452.58	0.658
452.78	0.658
452.98	0.660
453.19	0.660
453.39	0.660
453.59	0.659
453.79	0.660
454.00	0.660
454.20	0.659
454.40	0.659
454.61	0.661
454.81	0.662
455.01	0.660
455.22	0.661
455.42	0.663
455.62	0.660
455.83	0.660
456.03	0.664
456.23	0.665
456.44	0.665
456.64	0.664
456.84	0.664
457.04	0.664
457.25	0.663
457.45	0.660
457.65	0.658
457.86	0.660
458.06	0.658
458.26	0.653
458.47	0.652
458.67	0.654
458.87	0.654
459.07	0.651
459.28	0.653
459.48	0.656
459.68	0.656
459.89	0.655
460.09	0.653
460.29	0.654
460.49	0.655
460.70	0.654
460.90	0.654
461.10	0.655
461.31	0.656
461.51	0.653
461.71	0.655
461.91	0.656
462.12	0.657
462.32	0.656
462.52	0.657
462.72	0.660
462.93	0.660
463.13	0.659
463.33	0.660
463.53	0.660
463.74	0.659
463.94	0.655
464.14	0.655
464.35	0.656
464.55	0.656
464.75	0.655
464.95	0.652
465.16	0.654
465.36	0.653
465.56	0.652
465.76	0.652
465.97	0.653
466.17	0.653
466.37	0.651
466.57	0.652
466.78	0.653
466.98	0.653
467.18	0.650
467.38	0.649
467.59	0.650
467.79	0.652
467.99	0.650
468.19	0.652
468.39	0.655
468.60	0.655
468.80	0.653
469.00	0.654
469.20	0.655
469.41	0.656
469.61	0.655
469.81	0.656
470.01	0.655
470.22	0.655
470.42	0.653
470.62	0.651
470.82	0.652
471.02	0.652
471.23	0.650
471.43	0.650
471.63	0.652
471.83	0.652
472.04	0.650
472.24	0.649
472.44	0.654
472.64	0.654
472.84	0.652
473.05	0.652
473.25	0.655
473.45	0.654
473.65	0.653
473.85	0.654
474.06	0.655
474.26	0.655
474.46	0.656
474.66	0.653
474.86	0.654
475.07	0.654
475.27	0.652
475.47	0.649
475.67	0.649
475.87	0.651
476.08	0.648
476.28	0.649
476.48	0.650
476.68	0.649
476.88	0.647
477.09	0.648
477.29	0.650
477.49	0.650
477.69	0.648
477.89	0.649
478.09	0.648
478.30	0.650
478.50	0.647
478.70	0.646
478.90	0.646
479.10	0.649
479.31	0.650
479.51	0.648
479.71	0.649
479.91	0.649
480.11	0.648
480.31	0.649
480.52	0.647
480.72	0.647
480.92	0.646
481.12	0.645
481.32	0.643
481.52	0.641
481.72	0.641
481.93	0.645
482.13	0.646
482.33	0.645
482.53	0.643
482.73	0.644
482.93	0.645
483.14	0.645
483.34	0.644
483.54	0.645
483.74	0.644
483.94	0.643
484.14	0.639
484.34	0.639
484.55	0.640
484.75	0.640
484.95	0.638
485.15	0.637
485.35	0.638
485.55	0.637
485.75	0.635
485.96	0.635
486.16	0.636
486.36	0.636
486.56	0.634
486.76	0.634
486.96	0.635
487.16	0.634
487.36	0.633
487.57	0.632
487.77	0.633
487.97	0.633
488.17	0.632
488.37	0.631
488.57	0.631
488.77	0.631
488.97	0.630
489.18	0.629
489.38	0.632
489.58	0.633
489.78	0.632
489.98	0.632
490.18	0.632
490.38	0.633
490.58	0.631
490.78	0.632
490.98	0.634
491.19	0.634
491.39	0.634
491.59	0.631
491.79	0.634
491.99	0.635
492.19	0.634
492.39	0.637
492.59	0.637
492.79	0.640
492.99	0.639
493.20	0.639
493.40	0.640
493.60	0.641
493.80	0.640
494.00	0.638
494.20	0.638
494.40	0.638
494.60	0.635
494.80	0.640
495.00	0.639
495.20	0.637
495.40	0.636
495.61	0.638
495.81	0.638
496.01	0.642
496.21	0.643
496.41	0.643
496.61	0.643
496.81	0.642
497.01	0.637
497.21	0.636
497.41	0.637
497.61	0.637
497.81	0.634
498.01	0.635
498.21	0.632
498.41	0.629
498.61	0.629
498.82	0.631
499.02	0.633
499.22	0.633
499.42	0.633
499.62	0.634
499.82	0.635
500.02	0.636
500.22	0.634
500.42	0.637
500.62	0.637
500.82	0.637
501.02	0.635
501.22	0.634
501.42	0.635
501.62	0.637
501.82	0.636
502.02	0.637
502.22	0.636
502.42	0.638
502.62	0.635
502.82	0.636
503.02	0.637
503.22	0.636
503.42	0.634
503.63	0.634
503.83	0.632
504.03	0.631
504.23	0.630
504.43	0.631
504.63	0.631
504.83	0.631
505.03	0.630
505.23	0.631
505.43	0.633
505.63	0.633
505.83	0.633
506.03	0.634
506.23	0.636
506.43	0.637
506.63	0.635
506.83	0.634
507.03	0.636
507.23	0.636
507.43	0.633
507.63	0.634
507.83	0.634
508.03	0.634
508.23	0.634
508.43	0.633
508.63	0.635
508.83	0.636
509.03	0.636
509.23	0.635
509.43	0.637
509.63	0.637
509.83	0.636
510.03	0.638
510.23	0.640
510.43	0.641
510.63	0.641
510.83	0.641
511.03	0.642
511.23	0.640
511.43	0.640
511.63	0.642
511.83	0.645
512.03	0.644
512.22	0.641
512.42	0.640
512.62	0.642
512.82	0.641
513.02	0.640
513.22	0.640
513.42	0.642
513.62	0.644
513.82	0.642
514.02	0.641
514.22	0.643
514.42	0.643
514.62	0.643
514.82	0.643
515.02	0.646
515.22	0.648
515.42	0.647
515.62	0.649
515.82	0.648
516.02	0.650
516.22	0.650
516.42	0.651
516.62	0.653
516.82	0.654
517.01	0.653
517.21	0.652
517.41	0.656
517.61	0.656
517.81	0.652
518.01	0.651
518.21	0.650
518.41	0.649
518.61	0.648
518.81	0.648
519.01	0.649
519.21	0.648
519.41	0.648
519.61	0.642
519.81	0.644
520.00	0.645
520.20	0.646
520.40	0.649
520.60	0.650
520.80	0.648
521.00	0.648
521.20	0.649
521.40	0.654
521.60	0.654
521.80	0.653
522.00	0.653
522.20	0.656
522.39	0.655
522.59	0.652
522.79	0.653
522.99	0.655
523.19	0.654
523.39	0.652
523.59	0.650
523.79	0.653
523.99	0.655
524.19	0.654
524.38	0.653
524.58	0.654
524.78	0.654
524.98	0.652
525.18	0.654
525.38	0.656
525.58	0.656
525.78	0.654
525.98	0.653
526.18	0.653
526.37	0.652
526.57	0.654
526.77	0.653
526.97	0.654
527.17	0.655
527.37	0.651
527.57	0.652
527.77	0.655
527.96	0.655
528.16	0.654
528.36	0.655
528.56	0.657
528.76	0.655
528.96	0.655
529.16	0.656
529.36	0.659
529.55	0.659
529.75	0.657
529.95	0.656
530.15	0.657
530.35	0.660
530.55	0.657
530.75	0.658
530.94	0.659
531.14	0.659
531.34	0.657
531.54	0.656
531.74	0.659
531.94	0.662
532.13	0.660
532.33	0.662
532.53	0.661
532.73	0.661
532.93	0.658
533.13	0.659
533.33	0.659
533.52	0.659
533.72	0.662
533.92	0.660
534.12	0.658
534.32	0.658
534.52	0.656
534.71	0.657
534.91	0.660
535.11	0.662
535.31	0.660
535.51	0.663
535.71	0.665
535.90	0.662
536.10	0.664
536.30	0.666
536.50	0.667
536.70	0.668
536.89	0.666
537.09	0.665
537.29	0.667
537.49	0.668
537.69	0.665
537.89	0.665
538.08	0.665
538.28	0.663
538.48	0.664
538.68	0.665
538.88	0.666
539.07	0.666
539.27	0.665
539.47	0.664
539.67	0.664
539.87	0.665
540.06	0.663
540.26	0.663
540.46	0.666
540.66	0.663
540.86	0.660
541.05	0.661
541.25	0.662
541.45	0.662
541.65	0.660
541.84	0.662
542.04	0.663
542.24	0.664
542.44	0.663
542.64	0.664
542.83	0.667
543.03	0.667
543.23	0.665
543.43	0.666
543.62	0.668
543.82	0.668
544.02	0.666
544.22	0.666
544.42	0.669
544.61	0.670
544.81	0.667
545.01	0.665
545.21	0.668
545.40	0.668
545.60	0.666
545.80	0.669
546.00	0.669
546.19	0.669
546.39	0.668
546.59	0.665
546.79	0.667
546.98	0.667
547.18	0.666
547.38	0.667
547.58	0.669
547.77	0.670
547.97	0.666
548.17	0.668
548.37	0.669
548.56	0.668
548.76	0.668
548.96	0.670
549.16	0.672
549.35	0.671
549.55	0.669
549.75	0.670
549.95	0.673
550.14	0.673
550.34	0.671
550.54	0.676
550.73	0.680
550.93	0.680
551.13	0.677
551.33	0.676
551.52	0.677
551.72	0.677
551.92	0.675
552.12	0.676
552.31	0.677
552.51	0.677
552.71	0.672
552.90	0.672
553.10	0.673
553.30	0.673
553.50	0.673
553.69	0.675
553.89	0.675
554.09	0.675
554.28	0.672
554.48	0.673
554.68	0.675
554.87	0.675
555.07	0.672
555.27	0.673
555.47	0.675
555.66	0.675
555.86	0.673
556.06	0.676
556.25	0.677
556.45	0.685
556.65	0.684
556.84	0.686
557.04	0.689
557.24	0.691
557.43	0.691
557.63	0.694
557.83	0.695
558.02	0.696
558.22	0.699
558.42	0.699
558.61	0.692
558.81	0.692
559.01	0.688
559.21	0.688
559.40	0.689
559.60	0.688
559.80	0.684
559.99	0.685
560.19	0.688
560.39	0.682
560.58	0.679
560.78	0.680
560.97	0.684
561.17	0.682
561.37	0.679
561.56	0.680
561.76	0.682
561.96	0.682
562.15	0.680
562.35	0.682
562.55	0.683
562.74	0.683
562.94	0.682
563.14	0.680
563.33	0.680
563.53	0.682
563.73	0.679
563.92	0.681
564.12	0.683
564.31	0.684
564.51	0.682
564.71	0.684
564.90	0.687
565.10	0.687
565.30	0.690
565.49	0.692
565.69	0.693
565.89	0.693
566.08	0.690
566.28	0.692
566.47	0.694
566.67	0.692
566.87	0.690
567.06	0.691
567.26	0.698
567.46	0.693
567.65	0.692
567.85	0.694
568.04	0.697
568.24	0.696
568.44	0.693
568.63	0.691
568.83	0.693
569.02	0.691
569.22	0.686
569.42	0.683
569.61	0.685
569.81	0.684
570.00	0.682
570.20	0.683
570.40	0.685
570.59	0.685
570.79	0.683
570.98	0.681
571.18	0.683
571.38	0.683
571.57	0.680
571.77	0.677
571.96	0.681
572.16	0.678
572.35	0.673
572.55	0.674
572.75	0.672
572.94	0.672
573.14	0.670
573.33	0.670
573.53	0.671
573.73	0.671
573.92	0.669
574.12	0.667
574.31	0.669
574.51	0.670
574.70	0.667
574.90	0.668
575.09	0.671
575.29	0.671
575.49	0.668
575.68	0.669
575.88	0.670
576.07	0.671
576.27	0.668
576.46	0.667
576.66	0.667
576.86	0.666
577.05	0.664
577.25	0.662
577.44	0.663
577.64	0.663
577.83	0.661
578.03	0.662
578.22	0.662
578.42	0.662
578.61	0.660
578.81	0.661
579.00	0.661
579.20	0.661
579.40	0.660
579.59	0.659
579.79	0.659
579.98	0.659
580.18	0.659
580.37	0.660
580.57	0.662
580.76	0.667
580.96	0.665
581.15	0.665
581.35	0.668
581.54	0.668
581.74	0.667
581.93	0.669
582.13	0.670
582.32	0.667
582.52	0.665
582.71	0.664
582.91	0.660
583.10	0.660
583.30	0.659
583.49	0.657
583.69	0.661
583.88	0.662
584.08	0.661
584.27	0.663
584.47	0.666
584.66	0.668
584.86	0.667
585.05	0.669
585.25	0.672
585.44	0.671
585.64	0.669
585.83	0.666
586.03	0.667
586.22	0.665
586.42	0.661
586.61	0.662
586.81	0.665
587.00	0.664
587.20	0.662
587.39	0.663
587.59	0.665
587.78	0.666
587.98	0.666
588.17	0.667
588.37	0.669
588.56	0.671
588.76	0.667
588.95	0.667
589.15	0.671
589.34	0.673
589.54	0.671
589.73	0.672
589.92	0.675
590.12	0.675
590.31	0.672
590.51	0.678
590.70	0.679
590.90	0.680
591.09	0.678
591.29	0.676
591.48	0.676
591.68	0.677
591.87	0.676
592.06	0.675
592.26	0.677
592.45	0.677
592.65	0.671
592.84	0.670
593.04	0.673
593.23	0.675
593.43	0.673
593.62	0.672
593.81	0.672
594.01	0.671
594.20	0.669
594.40	0.669
594.59	0.671
594.79	0.671
594.98	0.670
595.17	0.669
595.37	0.670
595.56	0.672
595.76	0.672
595.95	0.673
596.14	0.677
596.34	0.677
596.53	0.676
596.73	0.677
596.92	0.679
597.12	0.681
597.31	0.681
597.50	0.680
597.70	0.682
597.89	0.681
598.09	0.677
598.28	0.679
598.47	0.681
598.67	0.680
598.86	0.676
599.06	0.678
599.25	0.678
599.44	0.676
599.64	0.673
599.83	0.671
600.03	0.674
600.22	0.675
600.41	0.674
600.61	0.672
600.80	0.675
601.00	0.675
601.19	0.671
601.38	0.670
601.58	0.673
601.77	0.674
601.96	0.676
602.16	0.676
602.35	0.685
602.55	0.682
602.74	0.683
602.93	0.684
603.13	0.690
603.32	0.691
603.51	0.690
603.71	0.693
603.90	0.695
604.09	0.696
604.29	0.693
604.48	0.687
604.68	0.689
604.87	0.687
605.06	0.684
605.26	0.680
605.45	0.681
605.64	0.680
605.84	0.676
606.03	0.675
606.22	0.674
606.42	0.673
606.61	0.670
606.80	0.669
607.00	0.670
607.19	0.671
607.38	0.670
607.58	0.671
607.77	0.674
607.96	0.674
608.16	0.672
608.35	0.677
608.54	0.680
608.74	0.683
608.93	0.688
609.12	0.691
609.32	0.694
609.51	0.696
609.70	0.695
609.90	0.696
610.09	0.701
610.28	0.706
610.48	0.700
610.67	0.701
610.86	0.702
611.06	0.696
611.25	0.694
611.44	0.695
611.64	0.696
611.83	0.698
612.02	0.694
612.21	0.693
612.41	0.692
612.60	0.690
612.79	0.687
612.99	0.687
613.18	0.689
613.37	0.687
613.57	0.684
613.76	0.685
613.95	0.683
614.14	0.683
614.34	0.680
614.53	0.681
614.72	0.684
614.92	0.684
615.11	0.681
615.30	0.678
615.49	0.680
615.69	0.683
615.88	0.679
616.07	0.680
616.26	0.682
616.46	0.683
616.65	0.679
616.84	0.679
617.04	0.680
617.23	0.684
617.42	0.684
617.61	0.688
617.81	0.688
618.00	0.690
618.19	0.688
618.38	0.692
618.58	0.696
618.77	0.697
618.96	0.697
619.15	0.698
619.35	0.700
619.54	0.701
619.73	0.696
619.92	0.698
620.12	0.702
620.31	0.703
620.50	0.697
620.69	0.697
620.89	0.701
621.08	0.701
621.27	0.701
621.46	0.699
621.66	0.703
621.85	0.703
622.04	0.699
622.23	0.700
622.43	0.700
622.62	0.700
622.81	0.699
623.00	0.699
623.19	0.702
623.39	0.701
623.58	0.698
623.77	0.697
623.96	0.699
624.16	0.700
624.35	0.695
624.54	0.698
624.73	0.702
624.92	0.700
625.12	0.697
625.31	0.697
625.50	0.700
625.69	0.701
625.88	0.698
626.08	0.697
626.27	0.699
626.46	0.700
626.65	0.697
626.84	0.696
627.04	0.701
627.23	0.701
627.42	0.697
627.61	0.699
627.80	0.702
628.00	0.703
628.19	0.701
628.38	0.704
628.57	0.707
628.76	0.706
628.96	0.703
629.15	0.704
629.34	0.707
629.53	0.707
629.72	0.702
629.91	0.703
630.11	0.707
630.30	0.707
630.49	0.710
630.68	0.711
630.87	0.715
631.06	0.718
631.26	0.712
631.45	0.715
631.64	0.723
631.83	0.725
632.02	0.722
632.21	0.720
632.41	0.727
632.60	0.721
632.79	0.718
632.98	0.719
633.17	0.719
633.36	0.722
633.55	0.718
633.75	0.713
633.94	0.715
634.13	0.715
634.32	0.712
634.51	0.706
634.70	0.708
634.89	0.709
635.09	0.704
635.28	0.705
635.47	0.705
635.66	0.709
635.85	0.704
636.04	0.706
636.23	0.711
636.43	0.713
636.62	0.712
636.81	0.710
637.00	0.713
637.19	0.716
637.38	0.712
637.57	0.712
637.76	0.714
637.95	0.715
638.15	0.711
638.34	0.707
638.53	0.710
638.72	0.712
638.91	0.710
639.10	0.708
639.29	0.708
639.48	0.710
639.67	0.710
639.87	0.709
640.06	0.715
640.25	0.715
640.44	0.716
640.63	0.716
640.82	0.717
641.01	0.717
641.20	0.717
641.39	0.719
641.58	0.720
641.78	0.719
641.97	0.715
642.16	0.729
642.35	0.729
642.54	0.729
642.73	0.724
642.92	0.722
643.11	0.725
643.30	0.725
643.49	0.719
643.68	0.722
643.87	0.723
644.06	0.723
644.25	0.703
644.45	0.705
644.64	0.706
644.83	0.706
645.02	0.703
645.21	0.703
645.40	0.705
645.59	0.706
645.78	0.700
645.97	0.702
646.16	0.704
646.35	0.703
646.54	0.701
646.73	0.702
646.92	0.704
647.11	0.704
647.30	0.700
647.49	0.701
647.68	0.700
647.88	0.700
648.07	0.692
648.26	0.695
648.45	0.697
648.64	0.693
648.83	0.691
649.02	0.693
649.21	0.704
649.40	0.703
649.59	0.699
649.78	0.700
649.97	0.713
650.16	0.713
650.35	0.707
650.54	0.710
650.73	0.718
650.92	0.715
651.11	0.707
651.30	0.704
651.49	0.708
651.68	0.709
651.87	0.706
652.06	0.696
652.25	0.699
652.44	0.703
652.63	0.699
652.82	0.699
653.01	0.699
653.20	0.697
653.39	0.685
653.58	0.683
653.77	0.682
653.96	0.677
654.15	0.669
654.34	0.668
654.53	0.663
654.72	0.657
654.91	0.648
655.10	0.645
655.29	0.643
655.48	0.641
655.67	0.636
655.86	0.633
656.05	0.632
656.24	0.632
656.43	0.626
656.62	0.625
656.81	0.625
657.00	0.624
657.19	0.621
657.38	0.620
657.57	0.620
657.76	0.622
657.95	0.620
658.14	0.623
658.33	0.625
658.51	0.631
658.70	0.631
658.89	0.633
659.08	0.642
659.27	0.649
659.46	0.649
659.65	0.655
659.84	0.659
660.03	0.662
660.22	0.664
660.41	0.668
660.60	0.667
660.79	0.668
660.98	0.674
661.17	0.672
661.36	0.671
661.55	0.672
661.74	0.670
661.92	0.672
662.11	0.674
662.30	0.673
662.49	0.666
662.68	0.664
662.87	0.668
663.06	0.662
663.25	0.663
663.44	0.663
663.63	0.664
663.82	0.662
664.01	0.657
664.20	0.656
664.38	0.658
664.57	0.658
664.76	0.659
664.95	0.659
665.14	0.665
665.33	0.659
665.52	0.666
665.71	0.671
665.90	0.671
666.09	0.673
666.28	0.670
666.46	0.669
666.65	0.671
666.84	0.669
667.03	0.662
667.22	0.659
667.41	0.663
667.60	0.653
667.79	0.645
667.98	0.646
668.16	0.646
668.35	0.647
668.54	0.643
668.73	0.644
668.92	0.644
669.11	0.644
669.30	0.638
669.49	0.634
669.67	0.636
669.86	0.638
670.05	0.636
670.24	0.634
670.43	0.631
670.62	0.631
670.81	0.625
671.00	0.627
671.18	0.627
671.37	0.626
671.56	0.625
671.75	0.623
671.94	0.621
672.13	0.618
672.32	0.614
672.50	0.614
672.69	0.614
672.88	0.615
673.07	0.610
673.26	0.612
673.45	0.613
673.63	0.613
673.82	0.609
674.01	0.611
674.20	0.611
674.39	0.610
674.58	0.610
674.76	0.609
674.95	0.608
675.14	0.608
675.33	0.603
675.52	0.601
675.71	0.601
675.89	0.600
676.08	0.595
676.27	0.596
676.46	0.596
676.65	0.596
676.84	0.595
677.02	0.597
677.21	0.600
677.40	0.599
677.59	0.596
677.78	0.597
677.96	0.600
678.15	0.600
678.34	0.598
678.53	0.598
678.72	0.598
678.90	0.595
679.09	0.590
679.28	0.586
679.47	0.587
679.66	0.586
679.84	0.583
680.03	0.580
680.22	0.579
680.41	0.580
680.60	0.577
680.78	0.576
680.97	0.579
681.16	0.579
681.35	0.577
681.53	0.577
681.72	0.578
681.91	0.580
682.10	0.578
682.29	0.580
682.47	0.578
682.66	0.577
682.85	0.576
683.04	0.574
683.22	0.574
683.41	0.576
683.60	0.574
683.79	0.575
683.97	0.574
684.16	0.574
684.35	0.570
684.54	0.572
684.72	0.572
684.91	0.573
685.10	0.572
685.29	0.573
685.47	0.570
685.66	0.569
685.85	0.566
686.04	0.566
686.22	0.569
686.41	0.571
686.60	0.568
686.79	0.571
686.97	0.572
687.16	0.573
687.35	0.571
687.54	0.574
687.72	0.578
687.91	0.578
688.10	0.579
688.29	0.579
688.47	0.578
688.66	0.578
688.85	0.573
689.03	0.571
689.22	0.575
689.41	0.575
689.60	0.570
689.78	0.568
689.97	0.568
690.16	0.566
690.34	0.561
690.53	0.561
690.72	0.561
690.91	0.559
691.09	0.556
691.28	0.551
691.47	0.550
691.65	0.549
691.84	0.545
692.03	0.544
692.21	0.542
692.40	0.542
692.59	0.539
692.77	0.538
692.96	0.540
693.15	0.541
693.34	0.539
693.52	0.538
693.71	0.539
693.90	0.540
694.08	0.541
694.27	0.542
694.46	0.551
694.64	0.552
694.83	0.551
695.02	0.549
695.20	0.549
695.39	0.549
695.58	0.549
695.76	0.550
695.95	0.550
696.14	0.549
696.32	0.547
696.51	0.537
696.70	0.538
696.88	0.539
697.07	0.538
697.26	0.539
697.44	0.540
697.63	0.538
697.81	0.536
698.00	0.536
698.19	0.535
698.37	0.535
698.56	0.535
698.75	0.535
698.93	0.535
699.12	0.534
699.31	0.533
699.49	0.533
699.68	0.534
699.87	0.536
700.05	0.536
700.24	0.535
700.42	0.537
700.61	0.536
700.80	0.534
700.98	0.534
701.17	0.536
701.36	0.535
701.54	0.535
701.73	0.536
701.91	0.534
702.10	0.533
702.29	0.531
702.47	0.529
702.66	0.531
702.84	0.532
703.03	0.531
703.22	0.531
703.40	0.532
703.59	0.532
703.77	0.532
703.96	0.531
704.15	0.532
704.33	0.532
704.52	0.531
704.70	0.530
704.89	0.529
705.08	0.527
705.26	0.524
705.45	0.523
705.63	0.524
705.82	0.520
706.00	0.519
706.19	0.519
706.38	0.520
706.56	0.519
706.75	0.517
706.93	0.516
707.12	0.518
707.30	0.519
707.49	0.517
707.68	0.514
707.86	0.514
708.05	0.514
708.23	0.511
708.42	0.512
708.60	0.514
708.79	0.514
708.98	0.513
709.16	0.512
709.35	0.514
709.53	0.518
709.72	0.516
709.90	0.519
710.09	0.520
710.27	0.522
710.46	0.525
710.64	0.524
710.83	0.526
711.02	0.527
711.20	0.526
711.39	0.524
711.57	0.522
711.76	0.523
711.94	0.522
712.13	0.523
712.31	0.523
712.50	0.519
712.68	0.516
712.87	0.517
713.05	0.517
713.24	0.518
713.42	0.517
713.61	0.517
713.79	0.517
713.98	0.517
714.16	0.517
714.35	0.517
714.54	0.518
714.72	0.518
714.91	0.515
715.09	0.522
715.28	0.525
715.46	0.524
715.65	0.522
715.83	0.522
716.02	0.525
716.20	0.521
716.39	0.520
716.57	0.522
716.76	0.524
716.94	0.524
717.12	0.517
717.31	0.518
717.49	0.521
717.68	0.522
717.86	0.523
718.05	0.524
718.23	0.527
718.42	0.530
718.60	0.530
718.79	0.539
718.97	0.542
719.16	0.542
719.34	0.540
719.53	0.539
719.71	0.540
719.90	0.541
720.08	0.537
720.27	0.538
720.45	0.538
720.63	0.536
720.82	0.529
721.00	0.532
721.19	0.535
721.37	0.534
721.56	0.534
721.74	0.537
721.93	0.545
722.11	0.552
722.30	0.551
722.48	0.556
722.66	0.558
722.85	0.557
723.03	0.557
723.22	0.555
723.40	0.559
723.59	0.559
723.77	0.563
723.95	0.557
724.14	0.558
724.32	0.559
724.51	0.558
724.69	0.560
724.88	0.560
725.06	0.558
725.24	0.559
725.43	0.560
725.61	0.562
725.80	0.555
725.98	0.553
726.16	0.549
726.35	0.555
726.53	0.554
726.72	0.551
726.90	0.562
727.09	0.562
727.27	0.568
727.45	0.564
727.64	0.573
727.82	0.582
728.01	0.586
728.19	0.583
728.37	0.589
728.56	0.593
728.74	0.598
728.92	0.586
729.11	0.588
729.29	0.587
729.48	0.589
729.66	0.579
729.84	0.579
730.03	0.582
730.21	0.585
730.40	0.575
730.58	0.576
730.76	0.577
730.95	0.580
731.13	0.580
731.31	0.595
731.50	0.605
731.68	0.608
731.86	0.604
732.05	0.618
732.23	0.620
732.42	0.623
732.60	0.626
732.78	0.631
732.97	0.650
733.15	0.655
733.33	0.642
733.52	0.646
733.70	0.657
733.88	0.666
734.07	0.654
734.25	0.680
734.43	0.689
734.62	0.691
734.80	0.685
734.98	0.676
735.17	0.685
735.35	0.692
735.53	0.682
735.72	0.685
735.90	0.708
736.08	0.725
736.27	0.700
736.45	0.710
736.63	0.723
736.82	0.734
737.00	0.732
737.18	0.742
737.37	0.771
737.55	0.795
737.73	0.788
737.92	0.790
738.10	0.787
738.28	0.805
738.46	0.790
738.65	0.802
738.83	0.820
739.01	0.873
739.20	0.862
739.38	0.843
739.56	0.833
739.75	0.837
739.93	0.801
740.11	0.825
740.29	0.828
740.48	0.835
740.66	0.813
740.84	0.809
741.03	0.777
741.21	0.787
741.39	0.771
741.57	0.785
741.76	0.802
741.94	0.807
742.12	0.772
742.31	0.777
742.49	0.796
742.67	0.817
742.85	0.830
743.04	0.830
743.22	0.839
743.40	0.890
743.58	0.868
743.77	0.884
743.95	0.921
744.13	0.969
744.31	0.951
744.50	0.947
744.68	0.954
744.86	0.928
745.04	0.942
745.23	1.004
745.41	0.984
745.59	0.996
745.77	0.962
745.96	0.948
746.14	0.956
746.32	0.954
746.50	0.943
746.69	0.925
746.87	0.933
747.05	0.917
747.23	0.847
747.42	0.833
747.60	0.860
747.78	0.864
747.96	0.894
748.14	0.852
748.33	0.879
748.51	0.871
748.69	0.859
748.87	0.888
749.06	0.885
749.24	0.883
749.42	0.865
749.60	0.845
749.78	0.849
749.97	0.803
750.15	0.796
750.33	0.802
750.51	0.828
750.69	0.835
750.88	0.836
751.06	0.846
751.24	0.874
751.42	0.871
751.60	0.865
751.79	0.937
751.97	0.982
752.15	0.981
752.33	0.943
752.51	1.008
752.69	1.024
752.88	0.994
753.06	1.039
753.24	1.016
753.42	1.046
753.60	1.195
753.78	1.061
753.97	1.078
754.15	1.095
754.33	1.125
754.51	0.998
754.69	0.991
754.87	1.013
755.06	0.944
755.24	0.941
755.42	0.951
755.60	0.865
755.78	0.871
755.96	0.820
756.15	0.821
756.33	0.824
756.51	0.843
756.69	0.826
756.87	0.797
757.05	0.815
757.23	0.802
757.42	0.771
757.60	0.768
757.78	0.758
757.96	0.758
758.14	0.744
758.32	0.730
758.50	0.741
758.69	0.741
758.87	0.734
759.05	0.738
759.23	0.745
759.41	0.748
759.59	0.741
759.77	0.760
759.95	0.787
760.13	0.834
760.32	0.836
760.50	0.833
760.68	0.855
760.86	0.856
761.04	0.830
761.22	0.833
761.40	0.880
761.58	0.882
761.76	0.856
761.95	0.836
762.13	0.793
762.31	0.794
762.49	0.763
762.67	0.778
762.85	0.789
763.03	0.785
763.21	0.769
763.39	0.752
763.57	0.756
763.75	0.751
763.94	0.736
764.12	0.737
764.30	0.758
764.48	0.761
764.66	0.729
764.84	0.729
765.02	0.766
765.20	0.773
765.38	0.754
765.56	0.760
765.74	0.799
765.92	0.801
766.10	0.806
766.28	0.797
766.46	0.828
766.65	0.826
766.83	0.814
767.01	0.799
767.19	0.806
767.37	0.805
767.55	0.791
767.73	0.772
767.91	0.774
768.09	0.763
768.27	0.753
768.45	0.744
768.63	0.752
768.81	0.751
768.99	0.726
769.17	0.746
769.35	0.759
769.53	0.755
769.71	0.735
769.89	0.744
770.07	0.752
770.25	0.737
770.43	0.713
770.61	0.734
770.79	0.741
770.97	0.751
771.15	0.722
771.33	0.725
771.51	0.729
771.69	0.742
771.87	0.753
772.05	0.755
772.24	0.762
772.42	0.772
772.60	0.750
772.78	0.808
772.96	0.834
773.14	0.832
773.32	0.809
773.49	0.816
773.67	0.813
773.85	0.790
774.03	0.780
774.21	0.811
774.39	0.821
774.57	0.843
774.75	0.772
774.93	0.764
775.11	0.786
775.29	0.791
775.47	0.789
775.65	0.796
775.83	0.816
776.01	0.836
776.19	0.792
776.37	0.795
776.55	0.795
776.73	0.791
776.91	0.788
777.09	0.771
777.27	0.772
777.45	0.763
777.63	0.744
777.81	0.737
777.99	0.726
778.17	0.722
778.35	0.701
778.53	0.690
778.71	0.696
778.89	0.684
779.07	0.673
779.24	0.678
779.42	0.678
779.60	0.694
779.78	0.692
779.96	0.696
780.14	0.706
780.32	0.726
780.50	0.709
780.68	0.708
780.86	0.701
781.04	0.717
781.22	0.721
781.40	0.732
781.58	0.723
781.75	0.715
781.93	0.699
782.11	0.698
782.29	0.685
782.47	0.684
782.65	0.673
782.83	0.697
783.01	0.696
783.19	0.689
783.37	0.677
783.55	0.682
783.72	0.701
783.90	0.712
784.08	0.704
784.26	0.716
784.44	0.737
784.62	0.739
784.80	0.708
784.98	0.709
785.16	0.715
785.33	0.729
785.51	0.714
785.69	0.701
785.87	0.701
786.05	0.714
786.23	0.710
786.41	0.709
786.59	0.717
786.77	0.719
786.94	0.708
787.12	0.711
787.30	0.711
787.48	0.708
787.66	0.696
787.84	0.697
788.02	0.688
788.19	0.684
788.37	0.669
788.55	0.670
788.73	0.670
788.91	0.663
789.09	0.645
789.27	0.635
789.44	0.645
789.62	0.651
789.80	0.657
789.98	0.680
790.16	0.670
790.34	0.666
790.51	0.653
790.69	0.673
790.87	0.682
791.05	0.681
791.23	0.674
791.41	0.675
791.58	0.683
791.76	0.665
791.94	0.635
792.12	0.643
792.30	0.646
792.48	0.645
792.65	0.638
792.83	0.642
793.01	0.649
793.19	0.649
793.37	0.633
793.54	0.629
793.72	0.639
793.90	0.638
794.08	0.626
794.26	0.628
794.43	0.634
794.61	0.618
794.79	0.608
794.97	0.606
795.15	0.611
795.32	0.616
795.50	0.607
795.68	0.603
795.86	0.608
796.04	0.610
796.21	0.604
796.39	0.603
796.57	0.617
796.75	0.625
796.92	0.627
797.10	0.632
797.28	0.635
797.46	0.638
797.64	0.637
797.81	0.646
797.99	0.650
798.17	0.654
798.35	0.649
798.52	0.652
798.70	0.649
798.88	0.655
799.06	0.654
799.23	0.654
799.41	0.659
799.59	0.653
799.77	0.641
799.94	0.648
800.12	0.657
800.30	0.673
800.48	0.671
800.65	0.670
800.83	0.662
801.01	0.653
801.19	0.653
801.36	0.651
801.54	0.655
801.72	0.663
801.90	0.650
802.07	0.644
802.25	0.630
802.43	0.615
802.60	0.612
802.78	0.618
802.96	0.623
803.14	0.617
803.31	0.616
803.49	0.615
803.67	0.612
803.84	0.618
804.02	0.610
804.20	0.614
804.38	0.618
804.55	0.617
804.73	0.603
804.91	0.604
805.08	0.615
805.26	0.611
805.44	0.674
805.61	0.677
805.79	0.676
805.97	0.675
806.15	0.669
806.32	0.665
806.50	0.671
806.68	0.672
806.85	0.664
807.03	0.655
807.21	0.671
807.38	0.605
807.56	0.596
807.74	0.607
807.91	0.613
808.09	0.613
808.27	0.631
808.44	0.655
808.62	0.664
808.80	0.665
808.97	0.660
809.15	0.656
809.33	0.673
809.50	0.680
809.68	0.667
809.86	0.675
810.03	0.707
810.21	0.687
810.39	0.671
810.56	0.676
810.74	0.701
810.91	0.772
811.09	0.761
811.27	0.782
811.44	0.788
811.62	0.784
811.80	0.769
811.97	0.737
812.15	0.738
812.33	0.733
812.50	0.718
812.68	0.706
812.85	0.652
813.03	0.652
813.21	0.622
813.38	0.616
813.56	0.622
813.74	0.631
813.91	0.638
814.09	0.666
814.26	0.659
814.44	0.663
814.62	0.653
814.79	0.655
814.97	0.660
815.14	0.664
815.32	0.669
815.50	0.684
815.67	0.686
815.85	0.676
816.02	0.665
816.20	0.674
816.38	0.689
816.55	0.694
816.73	0.694
816.90	0.702
817.08	0.729
817.26	0.734
817.43	0.715
817.61	0.738
817.78	0.760
817.96	0.740
818.13	0.729
818.31	0.725
818.49	0.736
818.66	0.728
818.84	0.721
819.01	0.702
819.19	0.709
819.36	0.709
819.54	0.679
819.71	0.717
819.89	0.728
820.07	0.740
820.24	0.737
820.42	0.740
820.59	0.760
820.77	0.777
820.94	0.768
821.12	0.782
821.29	0.795
821.47	0.798
821.64	0.737
821.82	0.754
822.00	0.750
822.17	0.748
822.35	0.739
822.52	0.739
822.70	0.729
822.87	0.736
823.05	0.716
823.22	0.728
823.40	0.753
823.57	0.777
823.75	0.757
823.92	0.786
824.10	0.802
824.27	0.838
824.45	0.827
824.62	0.890
824.80	0.903
824.97	0.917
825.15	0.904
825.32	0.921
825.50	0.922
825.67	0.931
825.85	0.901
826.02	0.922
826.20	0.949
826.37	1.069
826.55	0.986
826.72	1.172
826.90	1.234
827.07	1.296
827.25	1.233
827.42	1.388
827.60	1.540
827.77	1.735
827.95	1.666
828.12	1.762
828.30	1.408
828.47	1.534
828.65	1.201
828.82	1.273
829.00	1.338
829.17	1.436
829.34	1.453
829.52	1.525
829.69	-0.000
829.87	-0.000
830.04	-0.000
830.22	-0.000
830.39	-0.000
830.57	-0.000
830.74	-0.000
830.92	-0.000
831.09	-0.000
831.26	-0.000
831.44	-0.000
831.61	-0.000
831.79	-0.000
831.96	-0.000
832.14	-0.000
832.31	-0.000
832.49	-0.000
832.66	-0.000
832.83	-0.000
833.01	-0.000
833.18	-0.000
833.36	-0.000
833.53	-0.000
833.70	-0.000
833.88	-0.000
834.05	-0.000
834.23	-0.000
834.40	-0.000
834.58	-0.000
834.75	-0.000
834.92	-0.000
835.10	-0.000
835.27	-0.000
835.45	-0.000
835.62	-0.000
835.79	-0.000
835.97	-0.000
836.14	-0.000
836.32	-0.000
836.49	-0.000
836.66	-0.000
836.84	-0.000
837.01	-0.000
837.18	-0.000
837.36	-0.000
837.53	-0.000
837.71	-0.000
837.88	-0.000
838.05	-0.000
838.23	-0.000
838.40	-0.000
838.58	-0.000
838.75	-0.000
838.92	-0.000
839.10	-0.000
839.27	-0.000
839.44	-0.000
839.62	-0.000
839.79	-0.000
839.96	-0.000
840.14	-0.000
840.31	-0.000
840.48	-0.000
840.66	-0.000
840.83	-0.000
841.01	-0.000
841.18	-0.000
841.35	-0.000
841.53	-0.000
841.70	-0.000
841.87	-0.000
842.05	-0.000
842.22	-0.000
842.39	-0.000
842.57	-0.000
842.74	-0.000
842.91	-0.000
843.09	-0.000
843.26	-0.000
843.43	-0.000
843.60	-0.000
843.78	-0.000
843.95	-0.000
844.12	-0.000
844.30	-0.000
844.47	-0.000
844.64	-0.000
844.82	-0.000
844.99	-0.000
845.16	-0.000
845.34	-0.000
845.51	-0.000
845.68	-0.000
845.85	-0.000
846.03	-0.000
846.20	-0.000
846.37	-0.000
846.55	-0.000
846.72	-0.000
846.89	-0.000
847.06	-0.000
847.24	-0.000
847.41	-0.000
847.58	-0.000
847.76	-0.000
847.93	-0.000
848.10	-0.000
848.27	-0.000
848.45	-0.000
848.62	-0.000
848.79	-0.000
848.97	-0.000
849.14	-0.000
849.31	-0.000
849.48	-0.000
849.66	-0.000
849.83	-0.000
850.00	-0.000
850.17	-0.000
850.35	-0.000
850.52	-0.000
850.69	-0.000
850.86	-0.000
851.04	-0.000
851.21	-0.000
851.38	-0.000
851.55	-0.000
851.72	-0.000
851.90	-0.000
852.07	-0.000
852.24	-0.000
852.41	-0.000
852.59	-0.000
852.76	-0.000
852.93	-0.000
853.10	-0.000
853.28	-0.000
853.45	-0.000
853.62	-0.000
853.79	-0.000
853.96	-0.000
854.14	-0.000
854.31	-0.000
854.48	-0.000
854.65	-0.000
854.82	-0.000
855.00	-0.000
855.17	-0.000
855.34	-0.000
855.51	-0.000
855.68	-0.000
855.86	-0.000
856.03	-0.000
856.20	-0.000
856.37	-0.000
856.54	-0.000
856.72	-0.000
856.89	-0.000
857.06	-0.000
857.23	-0.000
857.40	-0.000
857.57	-0.000
857.75	-0.000
857.92	-0.000
858.09	-0.000
858.26	-0.000
858.43	-0.000
858.60	-0.000
858.78	-0.000
858.95	-0.000
859.12	-0.000
859.29	-0.000
859.46	-0.000
859.63	-0.000
859.81	-0.000
859.98	-0.000
860.15	-0.000
860.32	-0.000
860.49	-0.000
860.66	-0.000
860.83	-0.000
861.01	-0.000
861.18	-0.000
861.35	-0.000
861.52	-0.000
861.69	-0.000
861.86	-0.000
862.03	-0.000
862.21	-0.000
862.38	-0.000
862.55	-0.000
862.72	-0.000
862.89	-0.000
863.06	-0.000
863.23	-0.000
863.40	-0.000
863.58	-0.000
863.75	-0.000
863.92	-0.000
864.09	-0.000
864.26	-0.000
864.43	-0.000
864.60	-0.000
864.77	-0.000
864.94	-0.000
865.11	-0.000
865.29	-0.000
865.46	-0.000
865.63	-0.000
865.80	-0.000
865.97	-0.000
866.14	-0.000
866.31	-0.000
866.48	-0.000
866.65	-0.000
866.82	-0.000
866.99	-0.000
867.16	-0.000
867.34	-0.000
867.51	-0.000
867.68	-0.000
867.85	-0.000
868.02	-0.000
868.19	-0.000
868.36	-0.000
868.53	-0.000
868.70	-0.000
868.87	-0.000
869.04	-0.000
869.21	-0.000
869.38	-0.000
869.55	-0.000
869.72	-0.000
869.89	-0.000
870.06	-0.000
870.24	-0.000
870.41	-0.000
870.58	-0.000
870.75	-0.000
870.92	-0.000
871.09	-0.000
871.26	-0.000
871.43	-0.000
871.60	-0.000
871.77	-0.000
871.94	-0.000
872.11	-0.000
872.28	-0.000
872.45	-0.000
872.62	-0.000
872.79	-0.000
872.96	-0.000
873.13	-0.000
873.30	-0.000
873.47	-0.000
873.64	-0.000
873.81	-0.000
873.98	-0.000
874.15	-0.000
874.32	-0.000
874.49	-0.000
874.66	-0.000
874.83	-0.000
875.00	-0.000
875.17	-0.000
875.34	-0.000
875.51	-0.000
875.68	-0.000
875.85	-0.000
876.02	-0.000
876.19	-0.000
876.36	-0.000
876.53	-0.000
876.70	-0.000
876.87	-0.000
877.04	-0.000
877.21	-0.000
877.38	-0.000
877.55	-0.000
877.72	-0.000
877.89	-0.000
878.06	-0.000
878.23	-0.000
878.39	-0.000
878.56	-0.000
878.73	-0.000
878.90	-0.000
879.07	-0.000
879.24	-0.000
879.41	-0.000
879.58	-0.000
879.75	-0.000
879.92	-0.000
880.09	-0.000
880.26	-0.000
880.43	-0.000
880.60	-0.000
880.77	-0.000
880.94	-0.000
881.11	-0.000
881.27	-0.000
881.44	-0.000
881.61	-0.000
881.78	-0.000
881.95	-0.000
882.12	-0.000
882.29	-0.000
882.46	-0.000
882.63	-0.000
882.80	-0.000
882.97	-0.000
883.14	-0.000
883.30	-0.000
883.47	-0.000
883.64	-0.000
883.81	-0.000
883.98	-0.000
884.15	-0.000
884.32	-0.000
884.49	-0.000
884.66	-0.000
884.82	-0.000
884.99	-0.000
885.16	-0.000
885.33	-0.000
885.50	-0.000
885.67	-0.000
885.84	-0.000
886.01	-0.000
886.17	-0.000
886.34	-0.000
886.51	-0.000
886.68	-0.000
886.85	-0.000
887.02	-0.000
887.19	-0.000
887.36	-0.000
887.52	-0.000
887.69	-0.000
887.86	-0.000
888.03	-0.000
888.20	-0.000
888.37	-0.000
888.54	-0.000
888.70	-0.000
888.87	-0.000
889.04	-0.000
889.21	-0.000
889.38	-0.000
889.55	-0.000
889.71	-0.000
889.88	-0.000
890.05	-0.000
890.22	-0.000
890.39	-0.000
>>>>>End Processed Spectral Data<<<<<
