SpectraSuite Data File
++++++++++++++++++++++++++++++++++++
Date: Fri Jun 19 12:47:36 CEST 2015
User: introlabs
Dark Spectrum Present: Yes
Reference Spectrum Present: Yes
Number of Sampled Component Spectra: 1
Spectrometers: USB4H08886
Integration Time (usec): 745692 (USB4H08886)
Spectra Averaged: 5 (USB4H08886)
Boxcar Smoothing: 5 (USB4H08886)
Correct for Electrical Dark: Yes (USB4H08886)
Strobe/Lamp Enabled: No (USB4H08886)
Correct for Detector Non-linearity: Yes (USB4H08886)
Correct for Stray Light: Yes (USB4H08886)
Number of Pixels in Processed Spectrum: 3648
>>>>>Begin Processed Spectral Data<<<<<
178.14	-0.000
178.36	-0.000
178.57	-0.000
178.79	-0.000
179.01	-0.000
179.22	-0.000
179.44	-0.000
179.65	-0.000
179.87	-0.000
180.08	-0.000
180.30	-0.000
180.52	-0.000
180.73	-0.000
180.95	-0.000
181.16	-0.000
181.38	-0.000
181.59	-0.000
181.81	-0.000
182.03	-0.000
182.24	-0.000
182.46	-0.000
182.67	-0.000
182.89	-0.000
183.10	-0.000
183.32	-0.000
183.54	-0.000
183.75	-0.000
183.97	-0.000
184.18	-0.000
184.40	-0.000
184.61	-0.000
184.83	-0.000
185.04	-0.000
185.26	-0.000
185.48	-0.000
185.69	-0.000
185.91	-0.000
186.12	-0.000
186.34	-0.000
186.55	-0.000
186.77	-0.000
186.98	-0.000
187.20	-0.000
187.42	-0.000
187.63	-0.000
187.85	-0.000
188.06	-0.000
188.28	-0.000
188.49	-0.000
188.71	-0.000
188.92	-0.000
189.14	-0.000
189.36	-0.000
189.57	-0.000
189.79	-0.000
190.00	-0.000
190.22	-0.000
190.43	-0.000
190.65	-0.000
190.86	-0.000
191.08	-0.000
191.29	-0.000
191.51	-0.000
191.72	-0.000
191.94	-0.000
192.16	-0.000
192.37	-0.000
192.59	-0.000
192.80	-0.000
193.02	-0.000
193.23	-0.000
193.45	-0.000
193.66	-0.000
193.88	-0.000
194.09	-0.000
194.31	-0.000
194.52	-0.000
194.74	-0.000
194.95	-0.000
195.17	-0.000
195.38	-0.000
195.60	-0.000
195.81	-0.000
196.03	-0.000
196.25	-0.000
196.46	-0.000
196.68	-0.000
196.89	-0.000
197.11	-0.000
197.32	-0.000
197.54	-0.000
197.75	-0.000
197.97	-0.000
198.18	-0.000
198.40	-0.000
198.61	-0.000
198.83	-0.000
199.04	-0.000
199.26	-0.000
199.47	-0.000
199.69	-0.000
199.90	-0.000
200.12	-0.000
200.33	-0.000
200.55	-0.000
200.76	-0.000
200.98	-0.000
201.19	-0.000
201.41	-0.000
201.62	-0.000
201.84	-0.000
202.05	-0.000
202.27	-0.000
202.48	-0.000
202.70	-0.000
202.91	-0.000
203.13	-0.000
203.34	-0.000
203.56	-0.000
203.77	-0.000
203.99	-0.000
204.20	-0.000
204.42	-0.000
204.63	-0.000
204.85	-0.000
205.06	-0.000
205.28	-0.000
205.49	-0.000
205.71	-0.000
205.92	-0.000
206.14	-0.000
206.35	-0.000
206.56	-0.000
206.78	-0.000
206.99	-0.000
207.21	-0.000
207.42	-0.000
207.64	-0.000
207.85	-0.000
208.07	-0.000
208.28	-0.000
208.50	-0.000
208.71	-0.000
208.93	-0.000
209.14	-0.000
209.36	-0.000
209.57	-0.000
209.79	-0.000
210.00	-0.000
210.22	-0.000
210.43	-0.000
210.64	-0.000
210.86	-0.000
211.07	-0.000
211.29	-0.000
211.50	-0.000
211.72	-0.000
211.93	-0.000
212.15	-0.000
212.36	-0.000
212.58	-0.000
212.79	-0.000
213.01	-0.000
213.22	-0.000
213.43	-0.000
213.65	-0.000
213.86	-0.000
214.08	-0.000
214.29	-0.000
214.51	-0.000
214.72	-0.000
214.94	-0.000
215.15	-0.000
215.36	-0.000
215.58	-0.000
215.79	-0.000
216.01	-0.000
216.22	-0.000
216.44	-0.000
216.65	-0.000
216.87	-0.000
217.08	-0.000
217.29	-0.000
217.51	-0.000
217.72	-0.000
217.94	-0.000
218.15	-0.000
218.37	-0.000
218.58	-0.000
218.80	-0.000
219.01	-0.000
219.22	-0.000
219.44	-0.000
219.65	-0.000
219.87	-0.000
220.08	-0.000
220.30	-0.000
220.51	-0.000
220.72	-0.000
220.94	-0.000
221.15	-0.000
221.37	-0.000
221.58	-0.000
221.79	-0.000
222.01	-0.000
222.22	-0.000
222.44	-0.000
222.65	-0.000
222.87	-0.000
223.08	-0.000
223.29	-0.000
223.51	-0.000
223.72	-0.000
223.94	-0.000
224.15	-0.000
224.36	-0.000
224.58	-0.000
224.79	-0.000
225.01	-0.000
225.22	-0.000
225.44	-0.000
225.65	-0.000
225.86	-0.000
226.08	-0.000
226.29	-0.000
226.51	-0.000
226.72	-0.000
226.93	-0.000
227.15	-0.000
227.36	-0.000
227.58	-0.000
227.79	-0.000
228.00	-0.000
228.22	-0.000
228.43	-0.000
228.65	-0.000
228.86	-0.000
229.07	-0.000
229.29	-0.000
229.50	-0.000
229.72	-0.000
229.93	-0.000
230.14	-0.000
230.36	-0.000
230.57	-0.000
230.78	-0.000
231.00	-0.000
231.21	-0.000
231.43	-0.000
231.64	-0.000
231.85	-0.000
232.07	-0.000
232.28	-0.000
232.50	-0.000
232.71	-0.000
232.92	-0.000
233.14	-0.000
233.35	-0.000
233.56	-0.000
233.78	-0.000
233.99	-0.000
234.21	-0.000
234.42	-0.000
234.63	-0.000
234.85	-0.000
235.06	-0.000
235.27	-0.000
235.49	-0.000
235.70	-0.000
235.91	-0.000
236.13	-0.000
236.34	-0.000
236.56	-0.000
236.77	-0.000
236.98	-0.000
237.20	-0.000
237.41	-0.000
237.62	-0.000
237.84	-0.000
238.05	-0.000
238.26	-0.000
238.48	-0.000
238.69	-0.000
238.91	-0.000
239.12	-0.000
239.33	-0.000
239.55	-0.000
239.76	-0.000
239.97	-0.000
240.19	-0.000
240.40	-0.000
240.61	-0.000
240.83	-0.000
241.04	-0.000
241.25	-0.000
241.47	-0.000
241.68	-0.000
241.89	-0.000
242.11	-0.000
242.32	-0.000
242.53	-0.000
242.75	-0.000
242.96	-0.000
243.17	-0.000
243.39	-0.000
243.60	-0.000
243.81	-0.000
244.03	-0.000
244.24	-0.000
244.45	-0.000
244.67	-0.000
244.88	-0.000
245.09	-0.000
245.31	-0.000
245.52	-0.000
245.73	-0.000
245.95	-0.000
246.16	-0.000
246.37	-0.000
246.59	-0.000
246.80	-0.000
247.01	-0.000
247.23	-0.000
247.44	-0.000
247.65	-0.000
247.87	-0.000
248.08	-0.000
248.29	-0.000
248.51	-0.000
248.72	-0.000
248.93	-0.000
249.15	-0.000
249.36	-0.000
249.57	-0.000
249.78	-0.000
250.00	-0.000
250.21	-0.000
250.42	-0.000
250.64	-0.000
250.85	-0.000
251.06	-0.000
251.28	-0.000
251.49	-0.000
251.70	-0.000
251.92	-0.000
252.13	-0.000
252.34	-0.000
252.55	-0.000
252.77	-0.000
252.98	-0.000
253.19	-0.000
253.41	-0.000
253.62	-0.000
253.83	-0.000
254.05	-0.000
254.26	-0.000
254.47	-0.000
254.68	-0.000
254.90	-0.000
255.11	-0.000
255.32	-0.000
255.54	-0.000
255.75	-0.000
255.96	-0.000
256.17	-0.000
256.39	-0.000
256.60	-0.000
256.81	-0.000
257.03	-0.000
257.24	-0.000
257.45	-0.000
257.66	-0.000
257.88	-0.000
258.09	-0.000
258.30	-0.000
258.51	-0.000
258.73	-0.000
258.94	-0.000
259.15	-0.000
259.37	-0.000
259.58	-0.000
259.79	-0.000
260.00	-0.000
260.22	-0.000
260.43	-0.000
260.64	-0.000
260.85	-0.000
261.07	-0.000
261.28	-0.000
261.49	-0.000
261.71	-0.000
261.92	-0.000
262.13	-0.000
262.34	-0.000
262.56	-0.000
262.77	-0.000
262.98	-0.000
263.19	-0.000
263.41	-0.000
263.62	-0.000
263.83	-0.000
264.04	-0.000
264.26	-0.000
264.47	-0.000
264.68	-0.000
264.89	-0.000
265.11	-0.000
265.32	-0.000
265.53	-0.000
265.74	-0.000
265.96	-0.000
266.17	-0.000
266.38	-0.000
266.59	-0.000
266.81	-0.000
267.02	-0.000
267.23	-0.000
267.44	-0.000
267.65	-0.000
267.87	-0.000
268.08	-0.000
268.29	-0.000
268.50	-0.000
268.72	-0.000
268.93	-0.000
269.14	-0.000
269.35	-0.000
269.57	-0.000
269.78	-0.000
269.99	-0.000
270.20	-0.000
270.41	-0.000
270.63	-0.000
270.84	-0.000
271.05	-0.000
271.26	-0.000
271.48	-0.000
271.69	-0.000
271.90	-0.000
272.11	-0.000
272.32	-0.000
272.54	-0.000
272.75	-0.000
272.96	-0.000
273.17	-0.000
273.39	-0.000
273.60	-0.000
273.81	-0.000
274.02	-0.000
274.23	-0.000
274.45	-0.000
274.66	-0.000
274.87	-0.000
275.08	-0.000
275.29	-0.000
275.51	-0.000
275.72	-0.000
275.93	-0.000
276.14	-0.000
276.35	-0.000
276.57	-0.000
276.78	-0.000
276.99	-0.000
277.20	-0.000
277.41	-0.000
277.63	-0.000
277.84	-0.000
278.05	-0.000
278.26	-0.000
278.47	-0.000
278.69	-0.000
278.90	-0.000
279.11	-0.000
279.32	-0.000
279.53	-0.000
279.74	-0.000
279.96	-0.000
280.17	-0.000
280.38	-0.000
280.59	-0.000
280.80	-0.000
281.02	-0.000
281.23	-0.000
281.44	-0.000
281.65	-0.000
281.86	-0.000
282.07	-0.000
282.29	-0.000
282.50	-0.000
282.71	-0.000
282.92	-0.000
283.13	-0.000
283.35	-0.000
283.56	-0.000
283.77	-0.000
283.98	-0.000
284.19	-0.000
284.40	-0.000
284.62	-0.000
284.83	-0.000
285.04	-0.000
285.25	-0.000
285.46	-0.000
285.67	-0.000
285.88	-0.000
286.10	-0.000
286.31	-0.000
286.52	-0.000
286.73	-0.000
286.94	-0.000
287.15	-0.000
287.37	-0.000
287.58	-0.000
287.79	-0.000
288.00	-0.000
288.21	-0.000
288.42	-0.000
288.63	-0.000
288.85	-0.000
289.06	-0.000
289.27	-0.000
289.48	-0.000
289.69	-0.000
289.90	-0.000
290.11	-0.000
290.33	-0.000
290.54	-0.000
290.75	-0.000
290.96	-0.000
291.17	-0.000
291.38	-0.000
291.59	-0.000
291.81	-0.000
292.02	-0.000
292.23	-0.000
292.44	-0.000
292.65	-0.000
292.86	-0.000
293.07	-0.000
293.28	-0.000
293.50	-0.000
293.71	-0.000
293.92	-0.000
294.13	-0.000
294.34	-0.000
294.55	-0.000
294.76	-0.000
294.97	-0.000
295.19	-0.000
295.40	-0.000
295.61	-0.000
295.82	-0.000
296.03	-0.000
296.24	-0.000
296.45	-0.000
296.66	2.086
296.87	2.094
297.09	2.384
297.30	-0.000
297.51	1.930
297.72	1.846
297.93	2.016
298.14	1.947
298.35	1.867
298.56	1.803
298.77	2.026
298.99	1.967
299.20	1.890
299.41	1.838
299.62	1.796
299.83	1.797
300.04	1.697
300.25	1.681
300.46	1.747
300.67	1.709
300.88	1.625
301.10	1.624
301.31	1.733
301.52	1.651
301.73	1.572
301.94	1.569
302.15	1.602
302.36	1.543
302.57	1.468
302.78	1.478
302.99	1.535
303.20	1.559
303.41	1.447
303.63	1.420
303.84	1.436
304.05	1.435
304.26	1.364
304.47	1.366
304.68	1.375
304.89	1.364
305.10	1.311
305.31	1.298
305.52	1.347
305.73	1.340
305.94	1.296
306.15	1.285
306.37	1.308
306.58	1.313
306.79	1.272
307.00	1.294
307.21	1.333
307.42	1.324
307.63	1.280
307.84	1.244
308.05	1.280
308.26	1.278
308.47	1.251
308.68	1.246
308.89	1.249
309.10	1.248
309.31	1.204
309.52	1.198
309.73	1.216
309.95	1.209
310.16	1.177
310.37	1.168
310.58	1.190
310.79	1.188
311.00	1.183
311.21	1.185
311.42	1.191
311.63	1.183
311.84	1.159
312.05	1.160
312.26	1.185
312.47	1.199
312.68	1.172
312.89	1.153
313.10	1.164
313.31	1.136
313.52	1.135
313.73	1.136
313.94	1.142
314.15	1.126
314.36	1.101
314.57	1.094
314.78	1.082
314.99	1.075
315.21	1.059
315.42	1.062
315.63	1.076
315.84	1.052
316.05	1.034
316.26	1.042
316.47	1.060
316.68	1.055
316.89	1.032
317.10	1.053
317.31	1.059
317.52	1.061
317.73	1.038
317.94	1.038
318.15	1.082
318.36	1.084
318.57	1.065
318.78	1.053
318.99	1.090
319.20	1.087
319.41	1.049
319.62	1.050
319.83	1.065
320.04	1.060
320.25	1.044
320.46	1.011
320.67	1.016
320.88	1.010
321.09	0.995
321.30	0.982
321.51	0.997
321.72	0.997
321.93	0.980
322.14	0.973
322.35	0.999
322.56	1.000
322.77	0.986
322.98	0.997
323.19	1.006
323.40	1.012
323.61	0.987
323.82	0.981
324.03	0.988
324.24	0.985
324.45	0.971
324.66	0.953
324.87	0.951
325.08	0.949
325.29	0.928
325.50	0.921
325.71	0.927
325.92	0.936
326.13	0.923
326.34	0.922
326.55	0.932
326.76	0.932
326.97	0.920
327.18	0.915
327.39	0.942
327.60	0.943
327.80	0.941
328.01	0.943
328.22	0.942
328.43	0.945
328.64	0.933
328.85	0.938
329.06	0.939
329.27	0.939
329.48	0.932
329.69	0.914
329.90	0.924
330.11	0.917
330.32	0.908
330.53	0.901
330.74	0.903
330.95	0.900
331.16	0.884
331.37	0.892
331.58	0.892
331.79	0.892
332.00	0.883
332.21	0.877
332.42	0.882
332.63	0.874
332.83	0.869
333.04	0.870
333.25	0.883
333.46	0.882
333.67	0.867
333.88	0.870
334.09	0.880
334.30	0.878
334.51	0.868
334.72	0.864
334.93	0.868
335.14	0.867
335.35	0.861
335.56	0.857
335.77	0.866
335.98	0.865
336.18	0.858
336.39	0.853
336.60	0.857
336.81	0.855
337.02	0.853
337.23	0.858
337.44	0.861
337.65	0.862
337.86	0.850
338.07	0.845
338.28	0.852
338.49	0.848
338.70	0.839
338.91	0.847
339.11	0.855
339.32	0.851
339.53	0.838
339.74	0.836
339.95	0.834
340.16	0.833
340.37	0.824
340.58	0.822
340.79	0.827
341.00	0.828
341.21	0.815
341.41	0.818
341.62	0.820
341.83	0.821
342.04	0.816
342.25	0.826
342.46	0.832
342.67	0.831
342.88	0.823
343.09	0.822
343.30	0.829
343.50	0.832
343.71	0.820
343.92	0.819
344.13	0.825
344.34	0.825
344.55	0.809
344.76	0.807
344.97	0.812
345.18	0.811
345.38	0.806
345.59	0.802
345.80	0.802
346.01	0.800
346.22	0.795
346.43	0.789
346.64	0.799
346.85	0.799
347.06	0.791
347.26	0.792
347.47	0.797
347.68	0.793
347.89	0.788
348.10	0.783
348.31	0.791
348.52	0.790
348.73	0.786
348.93	0.782
349.14	0.785
349.35	0.785
349.56	0.777
349.77	0.772
349.98	0.778
350.19	0.777
350.39	0.773
350.60	0.768
350.81	0.784
351.02	0.784
351.23	0.778
351.44	0.780
351.65	0.784
351.86	0.781
352.06	0.780
352.27	0.780
352.48	0.781
352.69	0.780
352.90	0.775
353.11	0.762
353.31	0.768
353.52	0.765
353.73	0.756
353.94	0.757
354.15	0.763
354.36	0.763
354.57	0.754
354.77	0.756
354.98	0.756
355.19	0.755
355.40	0.754
355.61	0.760
355.82	0.765
356.02	0.765
356.23	0.759
356.44	0.760
356.65	0.764
356.86	0.765
357.07	0.759
357.27	0.762
357.48	0.765
357.69	0.761
357.90	0.745
358.11	0.743
358.32	0.747
358.52	0.750
358.73	0.739
358.94	0.742
359.15	0.746
359.36	0.747
359.56	0.742
359.77	0.740
359.98	0.747
360.19	0.747
360.40	0.743
360.61	0.744
360.81	0.742
361.02	0.743
361.23	0.734
361.44	0.733
361.65	0.734
361.85	0.733
362.06	0.731
362.27	0.733
362.48	0.735
362.69	0.737
362.89	0.731
363.10	0.732
363.31	0.738
363.52	0.742
363.73	0.736
363.93	0.737
364.14	0.740
364.35	0.742
364.56	0.730
364.77	0.732
364.97	0.734
365.18	0.735
365.39	0.730
365.60	0.726
365.81	0.728
366.01	0.728
366.22	0.724
366.43	0.723
366.64	0.726
366.84	0.732
367.05	0.728
367.26	0.728
367.47	0.731
367.68	0.730
367.88	0.726
368.09	0.724
368.30	0.727
368.51	0.727
368.71	0.726
368.92	0.731
369.13	0.729
369.34	0.729
369.55	0.728
369.75	0.728
369.96	0.735
370.17	0.736
370.38	0.731
370.58	0.731
370.79	0.736
371.00	0.735
371.21	0.725
371.41	0.729
371.62	0.734
371.83	0.729
372.04	0.726
372.24	0.719
372.45	0.721
372.66	0.721
372.87	0.716
373.07	0.712
373.28	0.714
373.49	0.717
373.70	0.707
373.90	0.706
374.11	0.716
374.32	0.716
374.53	0.714
374.73	0.714
374.94	0.718
375.15	0.719
375.36	0.716
375.56	0.725
375.77	0.726
375.98	0.727
376.19	0.723
376.39	0.716
376.60	0.720
376.81	0.720
377.02	0.717
377.22	0.717
377.43	0.717
377.64	0.717
377.84	0.708
378.05	0.712
378.26	0.718
378.47	0.719
378.67	0.716
378.88	0.713
379.09	0.715
379.30	0.715
379.50	0.711
379.71	0.713
379.92	0.716
380.12	0.715
380.33	0.706
380.54	0.702
380.75	0.709
380.95	0.709
381.16	0.706
381.37	0.706
381.57	0.708
381.78	0.709
381.99	0.708
382.20	0.707
382.40	0.711
382.61	0.711
382.82	0.707
383.02	0.700
383.23	0.704
383.44	0.704
383.64	0.702
383.85	0.705
384.06	0.708
384.27	0.705
384.47	0.702
384.68	0.703
384.89	0.709
385.09	0.708
385.30	0.707
385.51	0.706
385.71	0.709
385.92	0.709
386.13	0.706
386.33	0.708
386.54	0.709
386.75	0.709
386.95	0.704
387.16	0.699
387.37	0.702
387.58	0.702
387.78	0.700
387.99	0.697
388.20	0.700
388.40	0.698
388.61	0.694
388.82	0.696
389.02	0.699
389.23	0.699
389.44	0.697
389.64	0.696
389.85	0.708
390.06	0.707
390.26	0.707
390.47	0.705
390.68	0.707
390.88	0.705
391.09	0.700
391.30	0.699
391.50	0.699
391.71	0.699
391.92	0.696
392.12	0.688
392.33	0.689
392.53	0.689
392.74	0.689
392.95	0.689
393.15	0.692
393.36	0.693
393.57	0.690
393.77	0.694
393.98	0.696
394.19	0.696
394.39	0.696
394.60	0.697
394.81	0.698
395.01	0.697
395.22	0.694
395.43	0.695
395.63	0.700
395.84	0.701
396.04	0.696
396.25	0.697
396.46	0.699
396.66	0.697
396.87	0.693
397.08	0.691
397.28	0.692
397.49	0.694
397.69	0.690
397.90	0.684
398.11	0.686
398.31	0.686
398.52	0.682
398.73	0.683
398.93	0.682
399.14	0.682
399.34	0.680
399.55	0.681
399.76	0.682
399.96	0.682
400.17	0.681
400.37	0.679
400.58	0.686
400.79	0.687
400.99	0.685
401.20	0.690
401.41	0.693
401.61	0.695
401.82	0.699
402.02	0.698
402.23	0.699
402.44	0.699
402.64	0.698
402.85	0.693
403.05	0.692
403.26	0.691
403.47	0.685
403.67	0.683
403.88	0.684
404.08	0.678
404.29	0.676
404.50	0.676
404.70	0.676
404.91	0.675
405.11	0.672
405.32	0.672
405.52	0.672
405.73	0.672
405.94	0.669
406.14	0.671
406.35	0.674
406.55	0.674
406.76	0.671
406.97	0.671
407.17	0.674
407.38	0.673
407.58	0.671
407.79	0.674
407.99	0.676
408.20	0.678
408.41	0.673
408.61	0.672
408.82	0.673
409.02	0.672
409.23	0.670
409.43	0.669
409.64	0.671
409.84	0.670
410.05	0.667
410.26	0.666
410.46	0.665
410.67	0.664
410.87	0.665
411.08	0.666
411.28	0.668
411.49	0.670
411.69	0.668
411.90	0.669
412.11	0.672
412.31	0.672
412.52	0.671
412.72	0.671
412.93	0.673
413.13	0.672
413.34	0.668
413.54	0.669
413.75	0.669
413.95	0.669
414.16	0.666
414.37	0.668
414.57	0.668
414.78	0.671
414.98	0.668
415.19	0.669
415.39	0.667
415.60	0.669
415.80	0.669
416.01	0.668
416.21	0.670
416.42	0.670
416.62	0.665
416.83	0.665
417.03	0.665
417.24	0.665
417.44	0.663
417.65	0.662
417.86	0.663
418.06	0.662
418.27	0.659
418.47	0.661
418.68	0.662
418.88	0.663
419.09	0.661
419.29	0.662
419.50	0.663
419.70	0.663
419.91	0.661
420.11	0.658
420.32	0.661
420.52	0.661
420.73	0.659
420.93	0.659
421.14	0.661
421.34	0.660
421.55	0.656
421.75	0.656
421.96	0.658
422.16	0.658
422.37	0.658
422.57	0.655
422.78	0.657
422.98	0.654
423.19	0.651
423.39	0.650
423.60	0.653
423.80	0.655
424.01	0.653
424.21	0.655
424.42	0.656
424.62	0.656
424.83	0.655
425.03	0.656
425.23	0.659
425.44	0.660
425.64	0.660
425.85	0.658
426.05	0.660
426.26	0.661
426.46	0.657
426.67	0.656
426.87	0.660
427.08	0.661
427.28	0.658
427.49	0.659
427.69	0.660
427.90	0.659
428.10	0.656
428.31	0.655
428.51	0.657
428.71	0.657
428.92	0.657
429.12	0.656
429.33	0.657
429.53	0.661
429.74	0.664
429.94	0.665
430.15	0.666
430.35	0.666
430.56	0.663
430.76	0.662
430.96	0.663
431.17	0.661
431.37	0.657
431.58	0.656
431.78	0.653
431.99	0.646
432.19	0.648
432.40	0.649
432.60	0.650
432.80	0.652
433.01	0.651
433.21	0.651
433.42	0.653
433.62	0.653
433.83	0.653
434.03	0.656
434.23	0.659
434.44	0.658
434.64	0.656
434.85	0.661
435.05	0.663
435.26	0.663
435.46	0.661
435.66	0.660
435.87	0.661
436.07	0.661
436.28	0.656
436.48	0.653
436.69	0.653
436.89	0.653
437.09	0.647
437.30	0.646
437.50	0.647
437.71	0.659
437.91	0.657
438.11	0.659
438.32	0.664
438.52	0.665
438.73	0.663
438.93	0.661
439.13	0.662
439.34	0.666
439.54	0.664
439.75	0.663
439.95	0.654
440.15	0.658
440.36	0.657
440.56	0.654
440.77	0.655
440.97	0.656
441.17	0.654
441.38	0.656
441.58	0.653
441.79	0.653
441.99	0.652
442.19	0.651
442.40	0.649
442.60	0.649
442.81	0.646
443.01	0.646
443.21	0.647
443.42	0.647
443.62	0.645
443.82	0.645
444.03	0.647
444.23	0.647
444.44	0.647
444.64	0.646
444.84	0.648
445.05	0.648
445.25	0.646
445.45	0.646
445.66	0.649
445.86	0.649
446.06	0.650
446.27	0.649
446.47	0.653
446.68	0.651
446.88	0.650
447.08	0.650
447.29	0.652
447.49	0.653
447.69	0.652
447.90	0.651
448.10	0.655
448.30	0.653
448.51	0.654
448.71	0.651
448.91	0.654
449.12	0.652
449.32	0.654
449.52	0.652
449.73	0.656
449.93	0.655
450.14	0.656
450.34	0.655
450.54	0.658
450.75	0.655
450.95	0.654
451.15	0.654
451.36	0.657
451.56	0.654
451.76	0.653
451.97	0.650
452.17	0.651
452.37	0.649
452.58	0.645
452.78	0.644
452.98	0.647
453.19	0.647
453.39	0.647
453.59	0.646
453.79	0.647
454.00	0.648
454.20	0.646
454.40	0.647
454.61	0.649
454.81	0.650
455.01	0.648
455.22	0.648
455.42	0.651
455.62	0.648
455.83	0.648
456.03	0.651
456.23	0.653
456.44	0.654
456.64	0.653
456.84	0.652
457.04	0.653
457.25	0.653
457.45	0.650
457.65	0.649
457.86	0.650
458.06	0.649
458.26	0.644
458.47	0.643
458.67	0.644
458.87	0.644
459.07	0.642
459.28	0.644
459.48	0.647
459.68	0.647
459.89	0.646
460.09	0.645
460.29	0.647
460.49	0.648
460.70	0.647
460.90	0.647
461.10	0.648
461.31	0.647
461.51	0.644
461.71	0.646
461.91	0.648
462.12	0.648
462.32	0.646
462.52	0.647
462.72	0.651
462.93	0.651
463.13	0.649
463.33	0.650
463.53	0.653
463.74	0.652
463.94	0.648
464.14	0.648
464.35	0.649
464.55	0.650
464.75	0.647
464.95	0.645
465.16	0.647
465.36	0.646
465.56	0.644
465.76	0.643
465.97	0.643
466.17	0.644
466.37	0.642
466.57	0.644
466.78	0.645
466.98	0.645
467.18	0.642
467.38	0.641
467.59	0.644
467.79	0.646
467.99	0.644
468.19	0.646
468.39	0.649
468.60	0.649
468.80	0.647
469.00	0.648
469.20	0.650
469.41	0.650
469.61	0.649
469.81	0.649
470.01	0.648
470.22	0.649
470.42	0.647
470.62	0.645
470.82	0.647
471.02	0.647
471.23	0.644
471.43	0.644
471.63	0.647
471.83	0.646
472.04	0.645
472.24	0.644
472.44	0.648
472.64	0.649
472.84	0.646
473.05	0.645
473.25	0.648
473.45	0.647
473.65	0.645
473.85	0.646
474.06	0.648
474.26	0.648
474.46	0.648
474.66	0.646
474.86	0.646
475.07	0.647
475.27	0.645
475.47	0.642
475.67	0.644
475.87	0.646
476.08	0.642
476.28	0.643
476.48	0.645
476.68	0.644
476.88	0.641
477.09	0.643
477.29	0.645
477.49	0.645
477.69	0.643
477.89	0.643
478.09	0.642
478.30	0.645
478.50	0.641
478.70	0.641
478.90	0.641
479.10	0.643
479.31	0.644
479.51	0.642
479.71	0.643
479.91	0.643
480.11	0.642
480.31	0.642
480.52	0.641
480.72	0.642
480.92	0.640
481.12	0.640
481.32	0.637
481.52	0.635
481.72	0.635
481.93	0.639
482.13	0.640
482.33	0.639
482.53	0.637
482.73	0.638
482.93	0.639
483.14	0.639
483.34	0.637
483.54	0.638
483.74	0.637
483.94	0.636
484.14	0.632
484.34	0.632
484.55	0.634
484.75	0.633
484.95	0.632
485.15	0.631
485.35	0.632
485.55	0.632
485.75	0.630
485.96	0.631
486.16	0.632
486.36	0.632
486.56	0.630
486.76	0.630
486.96	0.630
487.16	0.630
487.36	0.628
487.57	0.627
487.77	0.629
487.97	0.629
488.17	0.627
488.37	0.626
488.57	0.627
488.77	0.627
488.97	0.625
489.18	0.625
489.38	0.627
489.58	0.628
489.78	0.627
489.98	0.627
490.18	0.627
490.38	0.627
490.58	0.626
490.78	0.627
490.98	0.629
491.19	0.630
491.39	0.628
491.59	0.627
491.79	0.630
491.99	0.630
492.19	0.629
492.39	0.633
492.59	0.633
492.79	0.635
492.99	0.635
493.20	0.636
493.40	0.636
493.60	0.638
493.80	0.636
494.00	0.634
494.20	0.635
494.40	0.635
494.60	0.632
494.80	0.636
495.00	0.635
495.20	0.633
495.40	0.632
495.61	0.634
495.81	0.634
496.01	0.638
496.21	0.639
496.41	0.638
496.61	0.639
496.81	0.638
497.01	0.633
497.21	0.632
497.41	0.633
497.61	0.633
497.81	0.630
498.01	0.630
498.21	0.628
498.41	0.626
498.61	0.626
498.82	0.628
499.02	0.630
499.22	0.631
499.42	0.629
499.62	0.630
499.82	0.631
500.02	0.632
500.22	0.631
500.42	0.632
500.62	0.633
500.82	0.633
501.02	0.631
501.22	0.630
501.42	0.631
501.62	0.633
501.82	0.633
502.02	0.633
502.22	0.633
502.42	0.635
502.62	0.632
502.82	0.633
503.02	0.634
503.22	0.634
503.42	0.632
503.63	0.632
503.83	0.631
504.03	0.629
504.23	0.627
504.43	0.628
504.63	0.629
504.83	0.629
505.03	0.628
505.23	0.629
505.43	0.631
505.63	0.632
505.83	0.631
506.03	0.633
506.23	0.636
506.43	0.636
506.63	0.635
506.83	0.633
507.03	0.636
507.23	0.636
507.43	0.634
507.63	0.634
507.83	0.635
508.03	0.635
508.23	0.634
508.43	0.632
508.63	0.634
508.83	0.635
509.03	0.635
509.23	0.634
509.43	0.635
509.63	0.636
509.83	0.634
510.03	0.637
510.23	0.638
510.43	0.639
510.63	0.640
510.83	0.639
511.03	0.641
511.23	0.639
511.43	0.638
511.63	0.639
511.83	0.642
512.03	0.642
512.22	0.639
512.42	0.638
512.62	0.639
512.82	0.638
513.02	0.637
513.22	0.637
513.42	0.640
513.62	0.643
513.82	0.640
514.02	0.639
514.22	0.641
514.42	0.641
514.62	0.641
514.82	0.641
515.02	0.644
515.22	0.647
515.42	0.646
515.62	0.648
515.82	0.647
516.02	0.648
516.22	0.648
516.42	0.650
516.62	0.651
516.82	0.653
517.01	0.651
517.21	0.650
517.41	0.653
517.61	0.654
517.81	0.650
518.01	0.649
518.21	0.648
518.41	0.648
518.61	0.646
518.81	0.647
519.01	0.648
519.21	0.648
519.41	0.647
519.61	0.642
519.81	0.644
520.00	0.645
520.20	0.645
520.40	0.648
520.60	0.650
520.80	0.649
521.00	0.649
521.20	0.650
521.40	0.655
521.60	0.655
521.80	0.654
522.00	0.654
522.20	0.657
522.39	0.656
522.59	0.652
522.79	0.654
522.99	0.656
523.19	0.655
523.39	0.652
523.59	0.651
523.79	0.654
523.99	0.657
524.19	0.655
524.38	0.654
524.58	0.656
524.78	0.657
524.98	0.654
525.18	0.656
525.38	0.658
525.58	0.658
525.78	0.655
525.98	0.653
526.18	0.654
526.37	0.653
526.57	0.654
526.77	0.654
526.97	0.655
527.17	0.655
527.37	0.651
527.57	0.653
527.77	0.655
527.96	0.656
528.16	0.654
528.36	0.654
528.56	0.657
528.76	0.655
528.96	0.654
529.16	0.655
529.36	0.659
529.55	0.659
529.75	0.655
529.95	0.655
530.15	0.657
530.35	0.660
530.55	0.658
530.75	0.658
530.94	0.660
531.14	0.660
531.34	0.658
531.54	0.656
531.74	0.660
531.94	0.664
532.13	0.661
532.33	0.663
532.53	0.661
532.73	0.661
532.93	0.659
533.13	0.660
533.33	0.661
533.52	0.661
533.72	0.664
533.92	0.662
534.12	0.661
534.32	0.661
534.52	0.659
534.71	0.661
534.91	0.664
535.11	0.666
535.31	0.663
535.51	0.665
535.71	0.667
535.90	0.665
536.10	0.666
536.30	0.667
536.50	0.669
536.70	0.669
536.89	0.666
537.09	0.665
537.29	0.668
537.49	0.668
537.69	0.666
537.89	0.666
538.08	0.666
538.28	0.664
538.48	0.664
538.68	0.665
538.88	0.667
539.07	0.667
539.27	0.665
539.47	0.664
539.67	0.665
539.87	0.666
540.06	0.664
540.26	0.665
540.46	0.668
540.66	0.665
540.86	0.662
541.05	0.663
541.25	0.665
541.45	0.665
541.65	0.663
541.84	0.665
542.04	0.666
542.24	0.666
542.44	0.664
542.64	0.665
542.83	0.668
543.03	0.669
543.23	0.666
543.43	0.667
543.62	0.669
543.82	0.670
544.02	0.667
544.22	0.668
544.42	0.671
544.61	0.672
544.81	0.669
545.01	0.668
545.21	0.670
545.40	0.671
545.60	0.669
545.80	0.672
546.00	0.672
546.19	0.672
546.39	0.671
546.59	0.669
546.79	0.670
546.98	0.671
547.18	0.670
547.38	0.671
547.58	0.674
547.77	0.674
547.97	0.669
548.17	0.671
548.37	0.672
548.56	0.672
548.76	0.671
548.96	0.673
549.16	0.676
549.35	0.676
549.55	0.673
549.75	0.674
549.95	0.678
550.14	0.678
550.34	0.676
550.54	0.681
550.73	0.685
550.93	0.685
551.13	0.682
551.33	0.680
551.52	0.682
551.72	0.681
551.92	0.678
552.12	0.678
552.31	0.680
552.51	0.679
552.71	0.674
552.90	0.674
553.10	0.675
553.30	0.675
553.50	0.674
553.69	0.675
553.89	0.677
554.09	0.678
554.28	0.674
554.48	0.675
554.68	0.678
554.87	0.678
555.07	0.675
555.27	0.675
555.47	0.676
555.66	0.677
555.86	0.675
556.06	0.677
556.25	0.679
556.45	0.687
556.65	0.684
556.84	0.687
557.04	0.691
557.24	0.692
557.43	0.691
557.63	0.694
557.83	0.697
558.02	0.697
558.22	0.700
558.42	0.701
558.61	0.694
558.81	0.694
559.01	0.689
559.21	0.689
559.40	0.692
559.60	0.692
559.80	0.687
559.99	0.687
560.19	0.691
560.39	0.685
560.58	0.682
560.78	0.682
560.97	0.687
561.17	0.686
561.37	0.683
561.56	0.683
561.76	0.685
561.96	0.685
562.15	0.682
562.35	0.685
562.55	0.687
562.74	0.687
562.94	0.686
563.14	0.683
563.33	0.684
563.53	0.684
563.73	0.681
563.92	0.682
564.12	0.685
564.31	0.688
564.51	0.684
564.71	0.686
564.90	0.689
565.10	0.690
565.30	0.692
565.49	0.693
565.69	0.696
565.89	0.697
566.08	0.694
566.28	0.696
566.47	0.698
566.67	0.696
566.87	0.692
567.06	0.693
567.26	0.700
567.46	0.696
567.65	0.694
567.85	0.696
568.04	0.699
568.24	0.698
568.44	0.693
568.63	0.691
568.83	0.694
569.02	0.693
569.22	0.688
569.42	0.684
569.61	0.687
569.81	0.686
570.00	0.683
570.20	0.685
570.40	0.686
570.59	0.687
570.79	0.684
570.98	0.682
571.18	0.684
571.38	0.684
571.57	0.680
571.77	0.678
571.96	0.682
572.16	0.679
572.35	0.673
572.55	0.674
572.75	0.673
572.94	0.673
573.14	0.671
573.33	0.671
573.53	0.672
573.73	0.672
573.92	0.670
574.12	0.668
574.31	0.671
574.51	0.671
574.70	0.668
574.90	0.670
575.09	0.672
575.29	0.672
575.49	0.670
575.68	0.671
575.88	0.672
576.07	0.674
576.27	0.671
576.46	0.670
576.66	0.669
576.86	0.668
577.05	0.666
577.25	0.664
577.44	0.666
577.64	0.666
577.83	0.663
578.03	0.664
578.22	0.663
578.42	0.662
578.61	0.660
578.81	0.661
579.00	0.662
579.20	0.661
579.40	0.660
579.59	0.659
579.79	0.659
579.98	0.659
580.18	0.658
580.37	0.659
580.57	0.662
580.76	0.667
580.96	0.665
581.15	0.666
581.35	0.668
581.54	0.668
581.74	0.667
581.93	0.668
582.13	0.669
582.32	0.667
582.52	0.665
582.71	0.664
582.91	0.661
583.10	0.661
583.30	0.659
583.49	0.658
583.69	0.663
583.88	0.664
584.08	0.663
584.27	0.666
584.47	0.669
584.66	0.670
584.86	0.668
585.05	0.671
585.25	0.673
585.44	0.673
585.64	0.671
585.83	0.668
586.03	0.669
586.22	0.668
586.42	0.664
586.61	0.666
586.81	0.668
587.00	0.668
587.20	0.665
587.39	0.667
587.59	0.670
587.78	0.670
587.98	0.671
588.17	0.671
588.37	0.674
588.56	0.676
588.76	0.671
588.95	0.672
589.15	0.676
589.34	0.678
589.54	0.676
589.73	0.676
589.92	0.679
590.12	0.679
590.31	0.676
590.51	0.680
590.70	0.682
590.90	0.683
591.09	0.679
591.29	0.678
591.48	0.678
591.68	0.679
591.87	0.678
592.06	0.678
592.26	0.680
592.45	0.680
592.65	0.673
592.84	0.673
593.04	0.675
593.23	0.678
593.43	0.676
593.62	0.675
593.81	0.676
594.01	0.676
594.20	0.673
594.40	0.673
594.59	0.676
594.79	0.677
594.98	0.675
595.17	0.675
595.37	0.676
595.56	0.677
595.76	0.676
595.95	0.677
596.14	0.680
596.34	0.681
596.53	0.678
596.73	0.679
596.92	0.680
597.12	0.683
597.31	0.682
597.50	0.681
597.70	0.684
597.89	0.683
598.09	0.679
598.28	0.680
598.47	0.683
598.67	0.682
598.86	0.678
599.06	0.680
599.25	0.680
599.44	0.679
599.64	0.676
599.83	0.674
600.03	0.677
600.22	0.678
600.41	0.677
600.61	0.675
600.80	0.678
601.00	0.679
601.19	0.674
601.38	0.673
601.58	0.676
601.77	0.677
601.96	0.679
602.16	0.679
602.35	0.688
602.55	0.685
602.74	0.685
602.93	0.686
603.13	0.692
603.32	0.694
603.51	0.693
603.71	0.696
603.90	0.698
604.09	0.699
604.29	0.696
604.48	0.690
604.68	0.692
604.87	0.690
605.06	0.687
605.26	0.683
605.45	0.684
605.64	0.684
605.84	0.678
606.03	0.677
606.22	0.677
606.42	0.676
606.61	0.672
606.80	0.673
607.00	0.676
607.19	0.676
607.38	0.673
607.58	0.675
607.77	0.678
607.96	0.679
608.16	0.677
608.35	0.682
608.54	0.686
608.74	0.689
608.93	0.693
609.12	0.697
609.32	0.700
609.51	0.704
609.70	0.703
609.90	0.704
610.09	0.709
610.28	0.714
610.48	0.706
610.67	0.708
610.86	0.709
611.06	0.703
611.25	0.699
611.44	0.700
611.64	0.700
611.83	0.702
612.02	0.698
612.21	0.697
612.41	0.696
612.60	0.696
612.79	0.692
612.99	0.692
613.18	0.695
613.37	0.692
613.57	0.689
613.76	0.691
613.95	0.690
614.14	0.690
614.34	0.687
614.53	0.688
614.72	0.692
614.92	0.692
615.11	0.688
615.30	0.685
615.49	0.688
615.69	0.690
615.88	0.686
616.07	0.687
616.26	0.690
616.46	0.691
616.65	0.687
616.84	0.686
617.04	0.688
617.23	0.692
617.42	0.692
617.61	0.695
617.81	0.697
618.00	0.699
618.19	0.697
618.38	0.700
618.58	0.703
618.77	0.704
618.96	0.702
619.15	0.704
619.35	0.705
619.54	0.706
619.73	0.700
619.92	0.702
620.12	0.706
620.31	0.706
620.50	0.701
620.69	0.702
620.89	0.706
621.08	0.707
621.27	0.707
621.46	0.705
621.66	0.710
621.85	0.711
622.04	0.707
622.23	0.707
622.43	0.709
622.62	0.709
622.81	0.708
623.00	0.707
623.19	0.712
623.39	0.711
623.58	0.709
623.77	0.707
623.96	0.711
624.16	0.711
624.35	0.706
624.54	0.709
624.73	0.714
624.92	0.711
625.12	0.707
625.31	0.708
625.50	0.712
625.69	0.712
625.88	0.707
626.08	0.707
626.27	0.709
626.46	0.709
626.65	0.705
626.84	0.705
627.04	0.711
627.23	0.711
627.42	0.706
627.61	0.707
627.80	0.712
628.00	0.713
628.19	0.711
628.38	0.715
628.57	0.718
628.76	0.718
628.96	0.713
629.15	0.714
629.34	0.718
629.53	0.718
629.72	0.712
629.91	0.712
630.11	0.719
630.30	0.719
630.49	0.722
630.68	0.722
630.87	0.727
631.06	0.729
631.26	0.723
631.45	0.725
631.64	0.734
631.83	0.737
632.02	0.733
632.21	0.732
632.41	0.740
632.60	0.734
632.79	0.731
632.98	0.731
633.17	0.734
633.36	0.736
633.55	0.731
633.75	0.728
633.94	0.729
634.13	0.730
634.32	0.726
634.51	0.720
634.70	0.723
634.89	0.723
635.09	0.718
635.28	0.719
635.47	0.721
635.66	0.724
635.85	0.719
636.04	0.720
636.23	0.725
636.43	0.726
636.62	0.724
636.81	0.723
637.00	0.726
637.19	0.730
637.38	0.726
637.57	0.726
637.76	0.728
637.95	0.728
638.15	0.724
638.34	0.722
638.53	0.727
638.72	0.729
638.91	0.725
639.10	0.722
639.29	0.724
639.48	0.725
639.67	0.723
639.87	0.723
640.06	0.730
640.25	0.730
640.44	0.729
640.63	0.728
640.82	0.731
641.01	0.731
641.20	0.730
641.39	0.731
641.58	0.734
641.78	0.732
641.97	0.728
642.16	0.743
642.35	0.744
642.54	0.743
642.73	0.736
642.92	0.735
643.11	0.740
643.30	0.739
643.49	0.734
643.68	0.736
643.87	0.740
644.06	0.739
644.25	0.717
644.45	0.720
644.64	0.722
644.83	0.722
645.02	0.719
645.21	0.719
645.40	0.722
645.59	0.721
645.78	0.714
645.97	0.716
646.16	0.717
646.35	0.717
646.54	0.714
646.73	0.715
646.92	0.717
647.11	0.716
647.30	0.710
647.49	0.712
647.68	0.713
647.88	0.712
648.07	0.705
648.26	0.708
648.45	0.710
648.64	0.706
648.83	0.704
649.02	0.706
649.21	0.718
649.40	0.717
649.59	0.712
649.78	0.712
649.97	0.728
650.16	0.726
650.35	0.720
650.54	0.723
650.73	0.733
650.92	0.728
651.11	0.721
651.30	0.719
651.49	0.725
651.68	0.725
651.87	0.721
652.06	0.710
652.25	0.715
652.44	0.716
652.63	0.710
652.82	0.708
653.01	0.707
653.20	0.704
653.39	0.691
653.58	0.688
653.77	0.688
653.96	0.683
654.15	0.674
654.34	0.673
654.53	0.668
654.72	0.664
654.91	0.654
655.10	0.651
655.29	0.650
655.48	0.648
655.67	0.642
655.86	0.639
656.05	0.638
656.24	0.639
656.43	0.633
656.62	0.632
656.81	0.634
657.00	0.634
657.19	0.632
657.38	0.633
657.57	0.633
657.76	0.636
657.95	0.635
658.14	0.639
658.33	0.642
658.51	0.648
658.70	0.649
658.89	0.650
659.08	0.658
659.27	0.665
659.46	0.663
659.65	0.669
659.84	0.673
660.03	0.676
660.22	0.677
660.41	0.681
660.60	0.680
660.79	0.682
660.98	0.687
661.17	0.686
661.36	0.686
661.55	0.686
661.74	0.684
661.92	0.687
662.11	0.690
662.30	0.688
662.49	0.680
662.68	0.680
662.87	0.683
663.06	0.677
663.25	0.677
663.44	0.678
663.63	0.679
663.82	0.677
664.01	0.670
664.20	0.668
664.38	0.670
664.57	0.670
664.76	0.668
664.95	0.669
665.14	0.675
665.33	0.671
665.52	0.678
665.71	0.682
665.90	0.683
666.09	0.685
666.28	0.683
666.46	0.683
666.65	0.684
666.84	0.682
667.03	0.675
667.22	0.673
667.41	0.676
667.60	0.665
667.79	0.657
667.98	0.657
668.16	0.659
668.35	0.658
668.54	0.653
668.73	0.655
668.92	0.657
669.11	0.656
669.30	0.649
669.49	0.645
669.67	0.648
669.86	0.650
670.05	0.647
670.24	0.645
670.43	0.643
670.62	0.642
670.81	0.636
671.00	0.637
671.18	0.637
671.37	0.636
671.56	0.634
671.75	0.634
671.94	0.632
672.13	0.629
672.32	0.624
672.50	0.625
672.69	0.626
672.88	0.627
673.07	0.622
673.26	0.624
673.45	0.626
673.63	0.626
673.82	0.622
674.01	0.623
674.20	0.622
674.39	0.622
674.58	0.621
674.76	0.620
674.95	0.619
675.14	0.618
675.33	0.614
675.52	0.612
675.71	0.612
675.89	0.612
676.08	0.607
676.27	0.607
676.46	0.608
676.65	0.607
676.84	0.606
677.02	0.607
677.21	0.610
677.40	0.610
677.59	0.606
677.78	0.607
677.96	0.610
678.15	0.610
678.34	0.607
678.53	0.608
678.72	0.608
678.90	0.605
679.09	0.601
679.28	0.597
679.47	0.597
679.66	0.597
679.84	0.593
680.03	0.590
680.22	0.589
680.41	0.591
680.60	0.587
680.78	0.586
680.97	0.589
681.16	0.590
681.35	0.588
681.53	0.587
681.72	0.589
681.91	0.591
682.10	0.589
682.29	0.592
682.47	0.589
682.66	0.589
682.85	0.586
683.04	0.584
683.22	0.584
683.41	0.585
683.60	0.584
683.79	0.585
683.97	0.584
684.16	0.583
684.35	0.579
684.54	0.581
684.72	0.581
684.91	0.582
685.10	0.580
685.29	0.582
685.47	0.579
685.66	0.579
685.85	0.575
686.04	0.574
686.22	0.577
686.41	0.580
686.60	0.577
686.79	0.580
686.97	0.581
687.16	0.583
687.35	0.580
687.54	0.584
687.72	0.588
687.91	0.588
688.10	0.589
688.29	0.589
688.47	0.588
688.66	0.587
688.85	0.583
689.03	0.580
689.22	0.586
689.41	0.586
689.60	0.580
689.78	0.578
689.97	0.579
690.16	0.576
690.34	0.571
690.53	0.571
690.72	0.572
690.91	0.569
691.09	0.567
691.28	0.561
691.47	0.559
691.65	0.558
691.84	0.555
692.03	0.553
692.21	0.551
692.40	0.552
692.59	0.549
692.77	0.548
692.96	0.550
693.15	0.551
693.34	0.549
693.52	0.549
693.71	0.550
693.90	0.551
694.08	0.551
694.27	0.553
694.46	0.563
694.64	0.564
694.83	0.562
695.02	0.561
695.20	0.561
695.39	0.561
695.58	0.560
695.76	0.561
695.95	0.561
696.14	0.560
696.32	0.557
696.51	0.547
696.70	0.549
696.88	0.550
697.07	0.548
697.26	0.550
697.44	0.551
697.63	0.550
697.81	0.548
698.00	0.547
698.19	0.546
698.37	0.547
698.56	0.546
698.75	0.546
698.93	0.546
699.12	0.545
699.31	0.544
699.49	0.544
699.68	0.545
699.87	0.547
700.05	0.546
700.24	0.546
700.42	0.547
700.61	0.546
700.80	0.543
700.98	0.543
701.17	0.545
701.36	0.543
701.54	0.542
701.73	0.544
701.91	0.542
702.10	0.541
702.29	0.539
702.47	0.538
702.66	0.540
702.84	0.542
703.03	0.540
703.22	0.542
703.40	0.543
703.59	0.544
703.77	0.543
703.96	0.543
704.15	0.544
704.33	0.544
704.52	0.543
704.70	0.542
704.89	0.542
705.08	0.540
705.26	0.536
705.45	0.535
705.63	0.536
705.82	0.532
706.00	0.531
706.19	0.530
706.38	0.530
706.56	0.530
706.75	0.527
706.93	0.526
707.12	0.528
707.30	0.528
707.49	0.525
707.68	0.523
707.86	0.523
708.05	0.522
708.23	0.519
708.42	0.520
708.60	0.524
708.79	0.524
708.98	0.522
709.16	0.522
709.35	0.525
709.53	0.530
709.72	0.528
709.90	0.530
710.09	0.533
710.27	0.536
710.46	0.539
710.64	0.537
710.83	0.539
711.02	0.540
711.20	0.538
711.39	0.535
711.57	0.533
711.76	0.533
711.94	0.530
712.13	0.530
712.31	0.530
712.50	0.525
712.68	0.520
712.87	0.521
713.05	0.522
713.24	0.522
713.42	0.522
713.61	0.522
713.79	0.523
713.98	0.525
714.16	0.525
714.35	0.524
714.54	0.526
714.72	0.527
714.91	0.524
715.09	0.531
715.28	0.535
715.46	0.534
715.65	0.531
715.83	0.531
716.02	0.534
716.20	0.530
716.39	0.529
716.57	0.530
716.76	0.533
716.94	0.533
717.12	0.525
717.31	0.526
717.49	0.530
717.68	0.532
717.86	0.530
718.05	0.532
718.23	0.536
718.42	0.539
718.60	0.540
718.79	0.547
718.97	0.551
719.16	0.551
719.34	0.548
719.53	0.548
719.71	0.548
719.90	0.551
720.08	0.547
720.27	0.548
720.45	0.548
720.63	0.547
720.82	0.540
721.00	0.543
721.19	0.547
721.37	0.546
721.56	0.547
721.74	0.549
721.93	0.558
722.11	0.564
722.30	0.562
722.48	0.567
722.66	0.569
722.85	0.568
723.03	0.568
723.22	0.565
723.40	0.569
723.59	0.568
723.77	0.572
723.95	0.565
724.14	0.568
724.32	0.570
724.51	0.569
724.69	0.570
724.88	0.571
725.06	0.569
725.24	0.570
725.43	0.571
725.61	0.574
725.80	0.567
725.98	0.565
726.16	0.561
726.35	0.568
726.53	0.567
726.72	0.565
726.90	0.576
727.09	0.578
727.27	0.583
727.45	0.579
727.64	0.588
727.82	0.599
728.01	0.603
728.19	0.599
728.37	0.604
728.56	0.609
728.74	0.616
728.92	0.602
729.11	0.604
729.29	0.604
729.48	0.608
729.66	0.597
729.84	0.596
730.03	0.601
730.21	0.603
730.40	0.591
730.58	0.591
730.76	0.592
730.95	0.596
731.13	0.595
731.31	0.610
731.50	0.619
731.68	0.622
731.86	0.617
732.05	0.632
732.23	0.636
732.42	0.641
732.60	0.645
732.78	0.650
732.97	0.671
733.15	0.678
733.33	0.663
733.52	0.670
733.70	0.684
733.88	0.692
734.07	0.675
734.25	0.701
734.43	0.711
734.62	0.713
734.80	0.705
734.98	0.693
735.17	0.703
735.35	0.711
735.53	0.699
735.72	0.702
735.90	0.729
736.08	0.749
736.27	0.723
736.45	0.735
736.63	0.751
736.82	0.762
737.00	0.762
737.18	0.776
737.37	0.814
737.55	0.837
737.73	0.827
737.92	0.829
738.10	0.831
738.28	0.856
738.46	0.841
738.65	0.855
738.83	0.883
739.01	0.946
739.20	0.928
739.38	0.908
739.56	0.903
739.75	0.912
739.93	0.867
740.11	0.894
740.29	0.897
740.48	0.903
740.66	0.873
740.84	0.866
741.03	0.831
741.21	0.845
741.39	0.820
741.57	0.833
741.76	0.856
741.94	0.863
742.12	0.820
742.31	0.828
742.49	0.855
742.67	0.882
742.85	0.897
743.04	0.901
743.22	0.911
743.40	0.972
743.58	0.945
743.77	0.961
743.95	1.007
744.13	1.067
744.31	1.038
744.50	1.027
744.68	1.036
744.86	1.008
745.04	1.016
745.23	1.103
745.41	1.092
745.59	1.104
745.77	1.059
745.96	1.047
746.14	1.072
746.32	1.063
746.50	1.050
746.69	1.028
746.87	1.049
747.05	1.033
747.23	0.936
747.42	0.919
747.60	0.961
747.78	0.964
747.96	0.999
748.14	0.937
748.33	0.983
748.51	0.976
748.69	0.962
748.87	0.993
749.06	0.994
749.24	0.990
749.42	0.966
749.60	0.934
749.78	0.951
749.97	0.896
750.15	0.890
750.33	0.891
750.51	0.928
750.69	0.933
750.88	0.933
751.06	0.945
751.24	0.982
751.42	0.975
751.60	0.969
751.79	1.062
751.97	1.128
752.15	1.124
752.33	1.065
752.51	1.140
752.69	1.171
752.88	1.126
753.06	1.179
753.24	1.151
753.42	1.207
753.60	1.462
753.78	1.212
753.97	1.232
754.15	1.268
754.33	1.315
754.51	1.135
754.69	1.118
754.87	1.160
755.06	1.058
755.24	1.051
755.42	1.057
755.60	0.943
755.78	0.958
755.96	0.892
756.15	0.894
756.33	0.901
756.51	0.925
756.69	0.903
756.87	0.865
757.05	0.896
757.23	0.874
757.42	0.835
757.60	0.835
757.78	0.823
757.96	0.822
758.14	0.798
758.32	0.784
758.50	0.800
758.69	0.798
758.87	0.790
759.05	0.794
759.23	0.810
759.41	0.811
759.59	0.800
759.77	0.826
759.95	0.859
760.13	0.918
760.32	0.913
760.50	0.906
760.68	0.938
760.86	0.938
761.04	0.899
761.22	0.902
761.40	0.959
761.58	0.960
761.76	0.924
761.95	0.903
762.13	0.855
762.31	0.858
762.49	0.821
762.67	0.842
762.85	0.859
763.03	0.854
763.21	0.831
763.39	0.812
763.57	0.816
763.75	0.810
763.94	0.791
764.12	0.790
764.30	0.817
764.48	0.819
764.66	0.775
764.84	0.773
765.02	0.816
765.20	0.822
765.38	0.799
765.56	0.806
765.74	0.856
765.92	0.856
766.10	0.866
766.28	0.860
766.46	0.899
766.65	0.901
766.83	0.885
767.01	0.867
767.19	0.881
767.37	0.881
767.55	0.863
767.73	0.839
767.91	0.847
768.09	0.831
768.27	0.814
768.45	0.802
768.63	0.808
768.81	0.809
768.99	0.777
769.17	0.801
769.35	0.819
769.53	0.817
769.71	0.792
769.89	0.803
770.07	0.814
770.25	0.797
770.43	0.772
770.61	0.802
770.79	0.812
770.97	0.828
771.15	0.792
771.33	0.795
771.51	0.803
771.69	0.818
771.87	0.823
772.05	0.830
772.24	0.838
772.42	0.848
772.60	0.819
772.78	0.885
772.96	0.919
773.14	0.914
773.32	0.883
773.49	0.891
773.67	0.890
773.85	0.867
774.03	0.848
774.21	0.884
774.39	0.904
774.57	0.932
774.75	0.847
774.93	0.840
775.11	0.868
775.29	0.877
775.47	0.872
775.65	0.884
775.83	0.905
776.01	0.929
776.19	0.872
776.37	0.871
776.55	0.871
776.73	0.865
776.91	0.855
777.09	0.838
777.27	0.842
777.45	0.829
777.63	0.800
777.81	0.794
777.99	0.786
778.17	0.786
778.35	0.762
778.53	0.753
778.71	0.761
778.89	0.748
779.07	0.735
779.24	0.740
779.42	0.747
779.60	0.769
779.78	0.765
779.96	0.769
780.14	0.784
780.32	0.807
780.50	0.781
780.68	0.780
780.86	0.775
781.04	0.793
781.22	0.797
781.40	0.808
781.58	0.799
781.75	0.789
781.93	0.767
782.11	0.765
782.29	0.752
782.47	0.752
782.65	0.738
782.83	0.771
783.01	0.767
783.19	0.758
783.37	0.739
783.55	0.742
783.72	0.764
783.90	0.774
784.08	0.765
784.26	0.774
784.44	0.801
784.62	0.801
784.80	0.761
784.98	0.763
785.16	0.773
785.33	0.787
785.51	0.770
785.69	0.757
785.87	0.760
786.05	0.769
786.23	0.764
786.41	0.761
786.59	0.771
786.77	0.769
786.94	0.755
787.12	0.754
787.30	0.759
787.48	0.754
787.66	0.737
787.84	0.737
788.02	0.731
788.19	0.728
788.37	0.710
788.55	0.711
788.73	0.715
788.91	0.709
789.09	0.692
789.27	0.679
789.44	0.694
789.62	0.701
789.80	0.709
789.98	0.735
790.16	0.720
790.34	0.716
790.51	0.701
790.69	0.720
790.87	0.732
791.05	0.728
791.23	0.720
791.41	0.722
791.58	0.733
791.76	0.707
791.94	0.672
792.12	0.685
792.30	0.690
792.48	0.688
792.65	0.681
792.83	0.687
793.01	0.698
793.19	0.695
793.37	0.677
793.54	0.673
793.72	0.689
793.90	0.690
794.08	0.676
794.26	0.678
794.43	0.689
794.61	0.670
794.79	0.656
794.97	0.654
795.15	0.663
795.32	0.667
795.50	0.655
795.68	0.648
795.86	0.652
796.04	0.653
796.21	0.646
796.39	0.645
796.57	0.662
796.75	0.671
796.92	0.671
797.10	0.676
797.28	0.681
797.46	0.685
797.64	0.685
797.81	0.694
797.99	0.701
798.17	0.704
798.35	0.695
798.52	0.696
798.70	0.693
798.88	0.702
799.06	0.697
799.23	0.701
799.41	0.709
799.59	0.701
799.77	0.687
799.94	0.696
800.12	0.708
800.30	0.728
800.48	0.726
800.65	0.728
800.83	0.718
801.01	0.711
801.19	0.708
801.36	0.705
801.54	0.713
801.72	0.724
801.90	0.708
802.07	0.701
802.25	0.687
802.43	0.668
802.60	0.663
802.78	0.671
802.96	0.678
803.14	0.671
803.31	0.666
803.49	0.667
803.67	0.665
803.84	0.669
804.02	0.659
804.20	0.661
804.38	0.671
804.55	0.670
804.73	0.652
804.91	0.652
805.08	0.667
805.26	0.664
805.44	0.724
805.61	0.730
805.79	0.731
805.97	0.732
806.15	0.723
806.32	0.715
806.50	0.723
806.68	0.723
806.85	0.712
807.03	0.701
807.21	0.723
807.38	0.656
807.56	0.643
807.74	0.654
807.91	0.662
808.09	0.663
808.27	0.683
808.44	0.711
808.62	0.722
808.80	0.725
808.97	0.717
809.15	0.709
809.33	0.730
809.50	0.735
809.68	0.717
809.86	0.723
810.03	0.760
810.21	0.737
810.39	0.716
810.56	0.724
810.74	0.750
810.91	0.831
811.09	0.814
811.27	0.838
811.44	0.849
811.62	0.852
811.80	0.832
811.97	0.799
812.15	0.802
812.33	0.795
812.50	0.774
812.68	0.765
812.85	0.704
813.03	0.707
813.21	0.672
813.38	0.665
813.56	0.669
813.74	0.679
813.91	0.685
814.09	0.718
814.26	0.713
814.44	0.720
814.62	0.706
814.79	0.709
814.97	0.720
815.14	0.723
815.32	0.725
815.50	0.744
815.67	0.749
815.85	0.741
816.02	0.726
816.20	0.736
816.38	0.754
816.55	0.758
816.73	0.758
816.90	0.768
817.08	0.804
817.26	0.813
817.43	0.789
817.61	0.817
817.78	0.840
817.96	0.816
818.13	0.802
818.31	0.804
818.49	0.824
818.66	0.814
818.84	0.794
819.01	0.771
819.19	0.781
819.36	0.784
819.54	0.749
819.71	0.796
819.89	0.815
820.07	0.826
820.24	0.811
820.42	0.810
820.59	0.837
820.77	0.865
820.94	0.850
821.12	0.871
821.29	0.890
821.47	0.893
821.64	0.816
821.82	0.830
822.00	0.832
822.17	0.832
822.35	0.822
822.52	0.823
822.70	0.813
822.87	0.822
823.05	0.799
823.22	0.813
823.40	0.848
823.57	0.872
823.75	0.846
823.92	0.877
824.10	0.903
824.27	0.953
824.45	0.934
824.62	1.013
824.80	1.043
824.97	1.057
825.15	1.041
825.32	1.061
825.50	1.082
825.67	1.100
825.85	1.056
826.02	1.083
826.20	1.129
826.37	1.353
826.55	1.211
826.72	1.613
826.90	1.948
827.07	2.315
827.25	1.862
827.42	-0.000
827.60	-0.000
827.77	-0.000
827.95	-0.000
828.12	-0.000
828.30	-0.000
828.47	-0.000
828.65	1.887
828.82	2.368
829.00	-0.000
829.17	-0.000
829.34	-0.000
829.52	-0.000
829.69	-0.000
829.87	-0.000
830.04	-0.000
830.22	-0.000
830.39	-0.000
830.57	-0.000
830.74	-0.000
830.92	-0.000
831.09	-0.000
831.26	-0.000
831.44	-0.000
831.61	-0.000
831.79	-0.000
831.96	-0.000
832.14	-0.000
832.31	-0.000
832.49	-0.000
832.66	-0.000
832.83	-0.000
833.01	-0.000
833.18	-0.000
833.36	-0.000
833.53	-0.000
833.70	-0.000
833.88	-0.000
834.05	-0.000
834.23	-0.000
834.40	-0.000
834.58	-0.000
834.75	-0.000
834.92	-0.000
835.10	-0.000
835.27	-0.000
835.45	-0.000
835.62	-0.000
835.79	-0.000
835.97	-0.000
836.14	-0.000
836.32	-0.000
836.49	-0.000
836.66	-0.000
836.84	-0.000
837.01	-0.000
837.18	-0.000
837.36	-0.000
837.53	-0.000
837.71	-0.000
837.88	-0.000
838.05	-0.000
838.23	-0.000
838.40	-0.000
838.58	-0.000
838.75	-0.000
838.92	-0.000
839.10	-0.000
839.27	-0.000
839.44	-0.000
839.62	-0.000
839.79	-0.000
839.96	-0.000
840.14	-0.000
840.31	-0.000
840.48	-0.000
840.66	-0.000
840.83	-0.000
841.01	-0.000
841.18	-0.000
841.35	-0.000
841.53	-0.000
841.70	-0.000
841.87	-0.000
842.05	-0.000
842.22	-0.000
842.39	-0.000
842.57	-0.000
842.74	-0.000
842.91	-0.000
843.09	-0.000
843.26	-0.000
843.43	-0.000
843.60	-0.000
843.78	-0.000
843.95	-0.000
844.12	-0.000
844.30	-0.000
844.47	-0.000
844.64	-0.000
844.82	-0.000
844.99	-0.000
845.16	-0.000
845.34	-0.000
845.51	-0.000
845.68	-0.000
845.85	-0.000
846.03	-0.000
846.20	-0.000
846.37	-0.000
846.55	-0.000
846.72	-0.000
846.89	-0.000
847.06	-0.000
847.24	-0.000
847.41	-0.000
847.58	-0.000
847.76	-0.000
847.93	-0.000
848.10	-0.000
848.27	-0.000
848.45	-0.000
848.62	-0.000
848.79	-0.000
848.97	-0.000
849.14	-0.000
849.31	-0.000
849.48	-0.000
849.66	-0.000
849.83	-0.000
850.00	-0.000
850.17	-0.000
850.35	-0.000
850.52	-0.000
850.69	-0.000
850.86	-0.000
851.04	-0.000
851.21	-0.000
851.38	-0.000
851.55	-0.000
851.72	-0.000
851.90	-0.000
852.07	-0.000
852.24	-0.000
852.41	-0.000
852.59	-0.000
852.76	-0.000
852.93	-0.000
853.10	-0.000
853.28	-0.000
853.45	-0.000
853.62	-0.000
853.79	-0.000
853.96	-0.000
854.14	-0.000
854.31	-0.000
854.48	-0.000
854.65	-0.000
854.82	-0.000
855.00	-0.000
855.17	-0.000
855.34	-0.000
855.51	-0.000
855.68	-0.000
855.86	-0.000
856.03	-0.000
856.20	-0.000
856.37	-0.000
856.54	-0.000
856.72	-0.000
856.89	-0.000
857.06	-0.000
857.23	-0.000
857.40	-0.000
857.57	-0.000
857.75	-0.000
857.92	-0.000
858.09	-0.000
858.26	-0.000
858.43	-0.000
858.60	-0.000
858.78	-0.000
858.95	-0.000
859.12	-0.000
859.29	-0.000
859.46	-0.000
859.63	-0.000
859.81	-0.000
859.98	-0.000
860.15	-0.000
860.32	-0.000
860.49	-0.000
860.66	-0.000
860.83	-0.000
861.01	-0.000
861.18	-0.000
861.35	-0.000
861.52	-0.000
861.69	-0.000
861.86	-0.000
862.03	-0.000
862.21	-0.000
862.38	-0.000
862.55	-0.000
862.72	-0.000
862.89	-0.000
863.06	-0.000
863.23	-0.000
863.40	-0.000
863.58	-0.000
863.75	-0.000
863.92	-0.000
864.09	-0.000
864.26	-0.000
864.43	-0.000
864.60	-0.000
864.77	-0.000
864.94	-0.000
865.11	-0.000
865.29	-0.000
865.46	-0.000
865.63	-0.000
865.80	-0.000
865.97	-0.000
866.14	-0.000
866.31	-0.000
866.48	-0.000
866.65	-0.000
866.82	-0.000
866.99	-0.000
867.16	-0.000
867.34	-0.000
867.51	-0.000
867.68	-0.000
867.85	-0.000
868.02	-0.000
868.19	-0.000
868.36	-0.000
868.53	-0.000
868.70	-0.000
868.87	-0.000
869.04	-0.000
869.21	-0.000
869.38	-0.000
869.55	-0.000
869.72	-0.000
869.89	-0.000
870.06	-0.000
870.24	-0.000
870.41	-0.000
870.58	-0.000
870.75	-0.000
870.92	-0.000
871.09	-0.000
871.26	-0.000
871.43	-0.000
871.60	-0.000
871.77	-0.000
871.94	-0.000
872.11	-0.000
872.28	-0.000
872.45	-0.000
872.62	-0.000
872.79	-0.000
872.96	-0.000
873.13	-0.000
873.30	-0.000
873.47	-0.000
873.64	-0.000
873.81	-0.000
873.98	-0.000
874.15	-0.000
874.32	-0.000
874.49	-0.000
874.66	-0.000
874.83	-0.000
875.00	-0.000
875.17	-0.000
875.34	-0.000
875.51	-0.000
875.68	-0.000
875.85	-0.000
876.02	-0.000
876.19	-0.000
876.36	-0.000
876.53	-0.000
876.70	-0.000
876.87	-0.000
877.04	-0.000
877.21	-0.000
877.38	-0.000
877.55	-0.000
877.72	-0.000
877.89	-0.000
878.06	-0.000
878.23	-0.000
878.39	-0.000
878.56	-0.000
878.73	-0.000
878.90	-0.000
879.07	-0.000
879.24	-0.000
879.41	-0.000
879.58	-0.000
879.75	-0.000
879.92	-0.000
880.09	-0.000
880.26	-0.000
880.43	-0.000
880.60	-0.000
880.77	-0.000
880.94	-0.000
881.11	-0.000
881.27	-0.000
881.44	-0.000
881.61	-0.000
881.78	-0.000
881.95	-0.000
882.12	-0.000
882.29	-0.000
882.46	-0.000
882.63	-0.000
882.80	-0.000
882.97	-0.000
883.14	-0.000
883.30	-0.000
883.47	-0.000
883.64	-0.000
883.81	-0.000
883.98	-0.000
884.15	-0.000
884.32	-0.000
884.49	-0.000
884.66	-0.000
884.82	-0.000
884.99	-0.000
885.16	-0.000
885.33	-0.000
885.50	-0.000
885.67	-0.000
885.84	-0.000
886.01	-0.000
886.17	-0.000
886.34	-0.000
886.51	-0.000
886.68	-0.000
886.85	-0.000
887.02	-0.000
887.19	-0.000
887.36	-0.000
887.52	-0.000
887.69	-0.000
887.86	-0.000
888.03	-0.000
888.20	-0.000
888.37	-0.000
888.54	-0.000
888.70	-0.000
888.87	-0.000
889.04	-0.000
889.21	-0.000
889.38	-0.000
889.55	-0.000
889.71	-0.000
889.88	-0.000
890.05	-0.000
890.22	-0.000
890.39	-0.000
>>>>>End Processed Spectral Data<<<<<
