SpectraSuite Data File
++++++++++++++++++++++++++++++++++++
Date: Fri Jun 19 15:52:44 CEST 2015
User: introlabs
Dark Spectrum Present: Yes
Reference Spectrum Present: Yes
Number of Sampled Component Spectra: 1
Spectrometers: USB4H08886
Integration Time (usec): 745692 (USB4H08886)
Spectra Averaged: 5 (USB4H08886)
Boxcar Smoothing: 5 (USB4H08886)
Correct for Electrical Dark: Yes (USB4H08886)
Strobe/Lamp Enabled: No (USB4H08886)
Correct for Detector Non-linearity: Yes (USB4H08886)
Correct for Stray Light: Yes (USB4H08886)
Number of Pixels in Processed Spectrum: 3648
>>>>>Begin Processed Spectral Data<<<<<
178.14	-0.000
178.36	-0.000
178.57	-0.000
178.79	-0.000
179.01	-0.000
179.22	-0.000
179.44	-0.000
179.65	-0.000
179.87	-0.000
180.08	-0.000
180.30	-0.000
180.52	-0.000
180.73	-0.000
180.95	-0.000
181.16	-0.000
181.38	-0.000
181.59	-0.000
181.81	-0.000
182.03	-0.000
182.24	-0.000
182.46	-0.000
182.67	-0.000
182.89	-0.000
183.10	-0.000
183.32	-0.000
183.54	-0.000
183.75	-0.000
183.97	-0.000
184.18	-0.000
184.40	-0.000
184.61	-0.000
184.83	-0.000
185.04	-0.000
185.26	-0.000
185.48	-0.000
185.69	-0.000
185.91	-0.000
186.12	-0.000
186.34	-0.000
186.55	-0.000
186.77	-0.000
186.98	-0.000
187.20	-0.000
187.42	-0.000
187.63	-0.000
187.85	-0.000
188.06	-0.000
188.28	-0.000
188.49	-0.000
188.71	-0.000
188.92	-0.000
189.14	-0.000
189.36	-0.000
189.57	-0.000
189.79	-0.000
190.00	-0.000
190.22	-0.000
190.43	-0.000
190.65	-0.000
190.86	-0.000
191.08	-0.000
191.29	-0.000
191.51	-0.000
191.72	-0.000
191.94	-0.000
192.16	-0.000
192.37	-0.000
192.59	-0.000
192.80	-0.000
193.02	-0.000
193.23	-0.000
193.45	-0.000
193.66	-0.000
193.88	-0.000
194.09	-0.000
194.31	-0.000
194.52	-0.000
194.74	-0.000
194.95	-0.000
195.17	-0.000
195.38	-0.000
195.60	-0.000
195.81	-0.000
196.03	-0.000
196.25	-0.000
196.46	-0.000
196.68	-0.000
196.89	-0.000
197.11	-0.000
197.32	-0.000
197.54	-0.000
197.75	-0.000
197.97	-0.000
198.18	-0.000
198.40	-0.000
198.61	-0.000
198.83	-0.000
199.04	-0.000
199.26	-0.000
199.47	-0.000
199.69	-0.000
199.90	-0.000
200.12	-0.000
200.33	-0.000
200.55	-0.000
200.76	-0.000
200.98	-0.000
201.19	-0.000
201.41	-0.000
201.62	-0.000
201.84	-0.000
202.05	-0.000
202.27	-0.000
202.48	-0.000
202.70	-0.000
202.91	-0.000
203.13	-0.000
203.34	-0.000
203.56	-0.000
203.77	-0.000
203.99	-0.000
204.20	-0.000
204.42	-0.000
204.63	-0.000
204.85	-0.000
205.06	-0.000
205.28	-0.000
205.49	-0.000
205.71	-0.000
205.92	-0.000
206.14	-0.000
206.35	-0.000
206.56	-0.000
206.78	-0.000
206.99	-0.000
207.21	-0.000
207.42	-0.000
207.64	-0.000
207.85	-0.000
208.07	-0.000
208.28	-0.000
208.50	-0.000
208.71	-0.000
208.93	-0.000
209.14	-0.000
209.36	-0.000
209.57	-0.000
209.79	-0.000
210.00	-0.000
210.22	-0.000
210.43	-0.000
210.64	-0.000
210.86	-0.000
211.07	-0.000
211.29	-0.000
211.50	-0.000
211.72	-0.000
211.93	-0.000
212.15	-0.000
212.36	-0.000
212.58	-0.000
212.79	-0.000
213.01	-0.000
213.22	-0.000
213.43	-0.000
213.65	-0.000
213.86	-0.000
214.08	-0.000
214.29	-0.000
214.51	-0.000
214.72	-0.000
214.94	-0.000
215.15	-0.000
215.36	-0.000
215.58	-0.000
215.79	-0.000
216.01	-0.000
216.22	-0.000
216.44	-0.000
216.65	-0.000
216.87	-0.000
217.08	-0.000
217.29	-0.000
217.51	-0.000
217.72	-0.000
217.94	-0.000
218.15	-0.000
218.37	-0.000
218.58	-0.000
218.80	-0.000
219.01	-0.000
219.22	-0.000
219.44	-0.000
219.65	-0.000
219.87	-0.000
220.08	-0.000
220.30	-0.000
220.51	-0.000
220.72	-0.000
220.94	-0.000
221.15	-0.000
221.37	-0.000
221.58	-0.000
221.79	-0.000
222.01	-0.000
222.22	-0.000
222.44	-0.000
222.65	-0.000
222.87	-0.000
223.08	-0.000
223.29	-0.000
223.51	-0.000
223.72	-0.000
223.94	-0.000
224.15	-0.000
224.36	-0.000
224.58	-0.000
224.79	-0.000
225.01	-0.000
225.22	-0.000
225.44	-0.000
225.65	-0.000
225.86	-0.000
226.08	-0.000
226.29	-0.000
226.51	-0.000
226.72	-0.000
226.93	-0.000
227.15	-0.000
227.36	-0.000
227.58	-0.000
227.79	-0.000
228.00	-0.000
228.22	-0.000
228.43	-0.000
228.65	-0.000
228.86	-0.000
229.07	-0.000
229.29	-0.000
229.50	-0.000
229.72	-0.000
229.93	-0.000
230.14	-0.000
230.36	-0.000
230.57	-0.000
230.78	-0.000
231.00	-0.000
231.21	-0.000
231.43	-0.000
231.64	-0.000
231.85	-0.000
232.07	-0.000
232.28	-0.000
232.50	-0.000
232.71	-0.000
232.92	-0.000
233.14	-0.000
233.35	-0.000
233.56	-0.000
233.78	-0.000
233.99	-0.000
234.21	-0.000
234.42	-0.000
234.63	-0.000
234.85	-0.000
235.06	-0.000
235.27	-0.000
235.49	-0.000
235.70	-0.000
235.91	-0.000
236.13	-0.000
236.34	-0.000
236.56	-0.000
236.77	-0.000
236.98	-0.000
237.20	-0.000
237.41	-0.000
237.62	-0.000
237.84	-0.000
238.05	-0.000
238.26	-0.000
238.48	-0.000
238.69	-0.000
238.91	-0.000
239.12	-0.000
239.33	-0.000
239.55	-0.000
239.76	-0.000
239.97	-0.000
240.19	-0.000
240.40	-0.000
240.61	-0.000
240.83	-0.000
241.04	-0.000
241.25	-0.000
241.47	-0.000
241.68	-0.000
241.89	-0.000
242.11	-0.000
242.32	-0.000
242.53	-0.000
242.75	-0.000
242.96	-0.000
243.17	-0.000
243.39	-0.000
243.60	-0.000
243.81	-0.000
244.03	-0.000
244.24	-0.000
244.45	-0.000
244.67	-0.000
244.88	-0.000
245.09	-0.000
245.31	-0.000
245.52	-0.000
245.73	-0.000
245.95	-0.000
246.16	-0.000
246.37	-0.000
246.59	-0.000
246.80	-0.000
247.01	-0.000
247.23	-0.000
247.44	-0.000
247.65	-0.000
247.87	-0.000
248.08	-0.000
248.29	-0.000
248.51	-0.000
248.72	-0.000
248.93	-0.000
249.15	-0.000
249.36	-0.000
249.57	-0.000
249.78	-0.000
250.00	-0.000
250.21	-0.000
250.42	-0.000
250.64	-0.000
250.85	-0.000
251.06	-0.000
251.28	-0.000
251.49	-0.000
251.70	-0.000
251.92	-0.000
252.13	-0.000
252.34	-0.000
252.55	-0.000
252.77	-0.000
252.98	-0.000
253.19	-0.000
253.41	-0.000
253.62	-0.000
253.83	-0.000
254.05	-0.000
254.26	-0.000
254.47	-0.000
254.68	-0.000
254.90	-0.000
255.11	-0.000
255.32	-0.000
255.54	-0.000
255.75	-0.000
255.96	-0.000
256.17	-0.000
256.39	-0.000
256.60	-0.000
256.81	-0.000
257.03	-0.000
257.24	-0.000
257.45	-0.000
257.66	-0.000
257.88	-0.000
258.09	-0.000
258.30	-0.000
258.51	-0.000
258.73	-0.000
258.94	-0.000
259.15	-0.000
259.37	-0.000
259.58	-0.000
259.79	-0.000
260.00	-0.000
260.22	-0.000
260.43	-0.000
260.64	-0.000
260.85	-0.000
261.07	-0.000
261.28	-0.000
261.49	-0.000
261.71	-0.000
261.92	-0.000
262.13	-0.000
262.34	-0.000
262.56	-0.000
262.77	-0.000
262.98	-0.000
263.19	-0.000
263.41	-0.000
263.62	-0.000
263.83	-0.000
264.04	-0.000
264.26	-0.000
264.47	-0.000
264.68	-0.000
264.89	-0.000
265.11	-0.000
265.32	-0.000
265.53	-0.000
265.74	-0.000
265.96	-0.000
266.17	-0.000
266.38	-0.000
266.59	-0.000
266.81	-0.000
267.02	-0.000
267.23	-0.000
267.44	-0.000
267.65	-0.000
267.87	-0.000
268.08	-0.000
268.29	-0.000
268.50	-0.000
268.72	-0.000
268.93	-0.000
269.14	-0.000
269.35	-0.000
269.57	-0.000
269.78	-0.000
269.99	-0.000
270.20	-0.000
270.41	-0.000
270.63	-0.000
270.84	-0.000
271.05	-0.000
271.26	-0.000
271.48	-0.000
271.69	-0.000
271.90	-0.000
272.11	-0.000
272.32	-0.000
272.54	-0.000
272.75	-0.000
272.96	-0.000
273.17	-0.000
273.39	-0.000
273.60	-0.000
273.81	-0.000
274.02	-0.000
274.23	-0.000
274.45	-0.000
274.66	-0.000
274.87	-0.000
275.08	-0.000
275.29	-0.000
275.51	-0.000
275.72	-0.000
275.93	-0.000
276.14	-0.000
276.35	-0.000
276.57	-0.000
276.78	-0.000
276.99	-0.000
277.20	-0.000
277.41	-0.000
277.63	-0.000
277.84	-0.000
278.05	-0.000
278.26	-0.000
278.47	-0.000
278.69	-0.000
278.90	-0.000
279.11	-0.000
279.32	-0.000
279.53	-0.000
279.74	-0.000
279.96	-0.000
280.17	-0.000
280.38	-0.000
280.59	-0.000
280.80	-0.000
281.02	-0.000
281.23	-0.000
281.44	-0.000
281.65	-0.000
281.86	-0.000
282.07	-0.000
282.29	-0.000
282.50	-0.000
282.71	-0.000
282.92	-0.000
283.13	-0.000
283.35	-0.000
283.56	-0.000
283.77	-0.000
283.98	-0.000
284.19	-0.000
284.40	-0.000
284.62	-0.000
284.83	-0.000
285.04	-0.000
285.25	-0.000
285.46	-0.000
285.67	-0.000
285.88	-0.000
286.10	-0.000
286.31	-0.000
286.52	-0.000
286.73	-0.000
286.94	-0.000
287.15	-0.000
287.37	-0.000
287.58	-0.000
287.79	-0.000
288.00	-0.000
288.21	-0.000
288.42	-0.000
288.63	-0.000
288.85	-0.000
289.06	-0.000
289.27	-0.000
289.48	-0.000
289.69	-0.000
289.90	-0.000
290.11	-0.000
290.33	-0.000
290.54	-0.000
290.75	-0.000
290.96	-0.000
291.17	-0.000
291.38	-0.000
291.59	-0.000
291.81	-0.000
292.02	-0.000
292.23	-0.000
292.44	-0.000
292.65	-0.000
292.86	-0.000
293.07	-0.000
293.28	-0.000
293.50	-0.000
293.71	-0.000
293.92	-0.000
294.13	-0.000
294.34	-0.000
294.55	-0.000
294.76	-0.000
294.97	-0.000
295.19	-0.000
295.40	-0.000
295.61	-0.000
295.82	-0.000
296.03	-0.000
296.24	-0.000
296.45	2.126
296.66	1.797
296.87	1.832
297.09	1.881
297.30	2.097
297.51	1.747
297.72	1.715
297.93	1.775
298.14	1.741
298.35	1.698
298.56	1.678
298.77	1.795
298.99	1.771
299.20	1.758
299.41	1.734
299.62	1.677
299.83	1.680
300.04	1.633
300.25	1.631
300.46	1.661
300.67	1.637
300.88	1.589
301.10	1.595
301.31	1.658
301.52	1.590
301.73	1.543
301.94	1.548
302.15	1.547
302.36	1.501
302.57	1.448
302.78	1.456
302.99	1.493
303.20	1.515
303.41	1.424
303.63	1.414
303.84	1.417
304.05	1.413
304.26	1.358
304.47	1.363
304.68	1.362
304.89	1.350
305.10	1.313
305.31	1.299
305.52	1.344
305.73	1.340
305.94	1.299
306.15	1.290
306.37	1.309
306.58	1.317
306.79	1.291
307.00	1.310
307.21	1.351
307.42	1.346
307.63	1.313
307.84	1.275
308.05	1.310
308.26	1.313
308.47	1.300
308.68	1.298
308.89	1.294
309.10	1.290
309.31	1.254
309.52	1.239
309.73	1.252
309.95	1.248
310.16	1.223
310.37	1.209
310.58	1.223
310.79	1.215
311.00	1.213
311.21	1.212
311.42	1.212
311.63	1.207
311.84	1.193
312.05	1.190
312.26	1.209
312.47	1.219
312.68	1.200
312.89	1.183
313.10	1.187
313.31	1.160
313.52	1.167
313.73	1.169
313.94	1.167
314.15	1.151
314.36	1.129
314.57	1.124
314.78	1.110
314.99	1.106
315.21	1.097
315.42	1.104
315.63	1.114
315.84	1.092
316.05	1.080
316.26	1.088
316.47	1.104
316.68	1.103
316.89	1.084
317.10	1.104
317.31	1.105
317.52	1.107
317.73	1.087
317.94	1.086
318.15	1.128
318.36	1.127
318.57	1.112
318.78	1.100
318.99	1.132
319.20	1.131
319.41	1.098
319.62	1.101
319.83	1.112
320.04	1.106
320.25	1.095
320.46	1.061
320.67	1.062
320.88	1.059
321.09	1.046
321.30	1.032
321.51	1.046
321.72	1.045
321.93	1.032
322.14	1.023
322.35	1.049
322.56	1.052
322.77	1.040
322.98	1.052
323.19	1.057
323.40	1.065
323.61	1.045
323.82	1.041
324.03	1.044
324.24	1.041
324.45	1.031
324.66	1.011
324.87	1.005
325.08	1.005
325.29	0.987
325.50	0.979
325.71	0.981
325.92	0.989
326.13	0.975
326.34	0.976
326.55	0.981
326.76	0.980
326.97	0.971
327.18	0.968
327.39	0.992
327.60	0.994
327.80	0.998
328.01	0.997
328.22	0.994
328.43	0.999
328.64	0.989
328.85	0.993
329.06	0.993
329.27	0.993
329.48	0.988
329.69	0.968
329.90	0.976
330.11	0.968
330.32	0.962
330.53	0.955
330.74	0.954
330.95	0.952
331.16	0.938
331.37	0.947
331.58	0.946
331.79	0.946
332.00	0.939
332.21	0.933
332.42	0.936
332.63	0.927
332.83	0.923
333.04	0.925
333.25	0.937
333.46	0.934
333.67	0.920
333.88	0.922
334.09	0.931
334.30	0.929
334.51	0.921
334.72	0.918
334.93	0.921
335.14	0.921
335.35	0.914
335.56	0.909
335.77	0.919
335.98	0.918
336.18	0.913
336.39	0.905
336.60	0.907
336.81	0.905
337.02	0.904
337.23	0.908
337.44	0.910
337.65	0.912
337.86	0.902
338.07	0.896
338.28	0.899
338.49	0.897
338.70	0.890
338.91	0.898
339.11	0.905
339.32	0.901
339.53	0.891
339.74	0.889
339.95	0.885
340.16	0.883
340.37	0.877
340.58	0.874
340.79	0.877
341.00	0.878
341.21	0.868
341.41	0.867
341.62	0.867
341.83	0.868
342.04	0.863
342.25	0.874
342.46	0.878
342.67	0.877
342.88	0.871
343.09	0.871
343.30	0.878
343.50	0.881
343.71	0.873
343.92	0.872
344.13	0.876
344.34	0.875
344.55	0.858
344.76	0.858
344.97	0.862
345.18	0.861
345.38	0.859
345.59	0.853
345.80	0.850
346.01	0.849
346.22	0.845
346.43	0.839
346.64	0.846
346.85	0.846
347.06	0.839
347.26	0.838
347.47	0.842
347.68	0.837
347.89	0.833
348.10	0.828
348.31	0.833
348.52	0.833
348.73	0.830
348.93	0.826
349.14	0.828
349.35	0.828
349.56	0.823
349.77	0.818
349.98	0.824
350.19	0.822
350.39	0.818
350.60	0.815
350.81	0.830
351.02	0.829
351.23	0.826
351.44	0.828
351.65	0.830
351.86	0.827
352.06	0.826
352.27	0.825
352.48	0.826
352.69	0.826
352.90	0.821
353.11	0.807
353.31	0.813
353.52	0.809
353.73	0.802
353.94	0.803
354.15	0.808
354.36	0.808
354.57	0.800
354.77	0.802
354.98	0.801
355.19	0.800
355.40	0.800
355.61	0.807
355.82	0.811
356.02	0.811
356.23	0.806
356.44	0.807
356.65	0.810
356.86	0.811
357.07	0.804
357.27	0.807
357.48	0.809
357.69	0.804
357.90	0.788
358.11	0.786
358.32	0.788
358.52	0.790
358.73	0.780
358.94	0.782
359.15	0.786
359.36	0.787
359.56	0.783
359.77	0.782
359.98	0.788
360.19	0.788
360.40	0.785
360.61	0.786
360.81	0.784
361.02	0.784
361.23	0.777
361.44	0.774
361.65	0.775
361.85	0.774
362.06	0.771
362.27	0.774
362.48	0.774
362.69	0.775
362.89	0.770
363.10	0.772
363.31	0.776
363.52	0.778
363.73	0.775
363.93	0.775
364.14	0.776
364.35	0.778
364.56	0.768
364.77	0.769
364.97	0.771
365.18	0.771
365.39	0.767
365.60	0.763
365.81	0.764
366.01	0.764
366.22	0.761
366.43	0.760
366.64	0.761
366.84	0.767
367.05	0.764
367.26	0.764
367.47	0.766
367.68	0.766
367.88	0.764
368.09	0.761
368.30	0.762
368.51	0.762
368.71	0.762
368.92	0.766
369.13	0.763
369.34	0.763
369.55	0.762
369.75	0.762
369.96	0.767
370.17	0.768
370.38	0.765
370.58	0.766
370.79	0.770
371.00	0.767
371.21	0.759
371.41	0.765
371.62	0.767
371.83	0.763
372.04	0.761
372.24	0.756
372.45	0.755
372.66	0.756
372.87	0.753
373.07	0.751
373.28	0.752
373.49	0.755
373.70	0.745
373.90	0.744
374.11	0.753
374.32	0.752
374.53	0.751
374.73	0.753
374.94	0.754
375.15	0.754
375.36	0.752
375.56	0.761
375.77	0.761
375.98	0.761
376.19	0.759
376.39	0.753
376.60	0.756
376.81	0.757
377.02	0.755
377.22	0.753
377.43	0.752
377.64	0.752
377.84	0.743
378.05	0.748
378.26	0.753
378.47	0.752
378.67	0.750
378.88	0.747
379.09	0.747
379.30	0.748
379.50	0.746
379.71	0.749
379.92	0.752
380.12	0.752
380.33	0.744
380.54	0.741
380.75	0.747
380.95	0.747
381.16	0.746
381.37	0.746
381.57	0.747
381.78	0.747
381.99	0.747
382.20	0.746
382.40	0.749
382.61	0.749
382.82	0.747
383.02	0.741
383.23	0.743
383.44	0.743
383.64	0.742
383.85	0.744
384.06	0.747
384.27	0.745
384.47	0.743
384.68	0.744
384.89	0.749
385.09	0.748
385.30	0.747
385.51	0.746
385.71	0.749
385.92	0.749
386.13	0.748
386.33	0.750
386.54	0.751
386.75	0.750
386.95	0.747
387.16	0.743
387.37	0.745
387.58	0.745
387.78	0.743
387.99	0.742
388.20	0.744
388.40	0.741
388.61	0.737
388.82	0.741
389.02	0.742
389.23	0.743
389.44	0.741
389.64	0.742
389.85	0.753
390.06	0.752
390.26	0.753
390.47	0.751
390.68	0.754
390.88	0.753
391.09	0.748
391.30	0.747
391.50	0.746
391.71	0.747
391.92	0.745
392.12	0.737
392.33	0.738
392.53	0.738
392.74	0.739
392.95	0.738
393.15	0.740
393.36	0.742
393.57	0.740
393.77	0.743
393.98	0.744
394.19	0.744
394.39	0.744
394.60	0.745
394.81	0.747
395.01	0.745
395.22	0.744
395.43	0.746
395.63	0.751
395.84	0.753
396.04	0.750
396.25	0.752
396.46	0.754
396.66	0.752
396.87	0.750
397.08	0.746
397.28	0.749
397.49	0.750
397.69	0.746
397.90	0.741
398.11	0.741
398.31	0.741
398.52	0.738
398.73	0.740
398.93	0.739
399.14	0.737
399.34	0.737
399.55	0.737
399.76	0.737
399.96	0.738
400.17	0.737
400.37	0.736
400.58	0.743
400.79	0.744
400.99	0.741
401.20	0.747
401.41	0.750
401.61	0.751
401.82	0.757
402.02	0.757
402.23	0.758
402.44	0.758
402.64	0.758
402.85	0.753
403.05	0.751
403.26	0.751
403.47	0.746
403.67	0.744
403.88	0.744
404.08	0.738
404.29	0.737
404.50	0.737
404.70	0.737
404.91	0.735
405.11	0.732
405.32	0.732
405.52	0.732
405.73	0.731
405.94	0.730
406.14	0.732
406.35	0.735
406.55	0.734
406.76	0.732
406.97	0.733
407.17	0.736
407.38	0.736
407.58	0.735
407.79	0.738
407.99	0.740
408.20	0.741
408.41	0.738
408.61	0.735
408.82	0.736
409.02	0.736
409.23	0.734
409.43	0.732
409.64	0.733
409.84	0.732
410.05	0.729
410.26	0.727
410.46	0.726
410.67	0.725
410.87	0.727
411.08	0.729
411.28	0.730
411.49	0.732
411.69	0.729
411.90	0.731
412.11	0.732
412.31	0.734
412.52	0.733
412.72	0.735
412.93	0.735
413.13	0.734
413.34	0.731
413.54	0.733
413.75	0.735
413.95	0.735
414.16	0.732
414.37	0.735
414.57	0.734
414.78	0.737
414.98	0.736
415.19	0.737
415.39	0.734
415.60	0.736
415.80	0.735
416.01	0.733
416.21	0.734
416.42	0.734
416.62	0.730
416.83	0.729
417.03	0.728
417.24	0.728
417.44	0.726
417.65	0.725
417.86	0.725
418.06	0.723
418.27	0.723
418.47	0.725
418.68	0.725
418.88	0.726
419.09	0.724
419.29	0.725
419.50	0.726
419.70	0.726
419.91	0.725
420.11	0.722
420.32	0.724
420.52	0.723
420.73	0.722
420.93	0.723
421.14	0.724
421.34	0.723
421.55	0.719
421.75	0.719
421.96	0.720
422.16	0.720
422.37	0.719
422.57	0.716
422.78	0.717
422.98	0.713
423.19	0.711
423.39	0.708
423.60	0.711
423.80	0.713
424.01	0.711
424.21	0.714
424.42	0.714
424.62	0.714
424.83	0.713
425.03	0.714
425.23	0.716
425.44	0.716
425.64	0.718
425.85	0.717
426.05	0.717
426.26	0.718
426.46	0.714
426.67	0.714
426.87	0.719
427.08	0.720
427.28	0.718
427.49	0.718
427.69	0.719
427.90	0.717
428.10	0.715
428.31	0.715
428.51	0.716
428.71	0.716
428.92	0.717
429.12	0.713
429.33	0.713
429.53	0.717
429.74	0.722
429.94	0.722
430.15	0.722
430.35	0.721
430.56	0.718
430.76	0.717
430.96	0.718
431.17	0.715
431.37	0.712
431.58	0.710
431.78	0.706
431.99	0.699
432.19	0.701
432.40	0.702
432.60	0.702
432.80	0.704
433.01	0.703
433.21	0.703
433.42	0.704
433.62	0.705
433.83	0.705
434.03	0.707
434.23	0.710
434.44	0.709
434.64	0.707
434.85	0.713
435.05	0.713
435.26	0.714
435.46	0.712
435.66	0.712
435.87	0.712
436.07	0.712
436.28	0.708
436.48	0.705
436.69	0.704
436.89	0.704
437.09	0.698
437.30	0.696
437.50	0.696
437.71	0.708
437.91	0.707
438.11	0.707
438.32	0.711
438.52	0.711
438.73	0.710
438.93	0.708
439.13	0.708
439.34	0.712
439.54	0.709
439.75	0.709
439.95	0.699
440.15	0.703
440.36	0.702
440.56	0.700
440.77	0.701
440.97	0.701
441.17	0.700
441.38	0.701
441.58	0.697
441.79	0.697
441.99	0.696
442.19	0.695
442.40	0.693
442.60	0.693
442.81	0.690
443.01	0.690
443.21	0.691
443.42	0.690
443.62	0.688
443.82	0.688
444.03	0.689
444.23	0.689
444.44	0.690
444.64	0.689
444.84	0.690
445.05	0.690
445.25	0.688
445.45	0.688
445.66	0.690
445.86	0.689
446.06	0.690
446.27	0.690
446.47	0.692
446.68	0.690
446.88	0.688
447.08	0.687
447.29	0.688
447.49	0.688
447.69	0.688
447.90	0.686
448.10	0.689
448.30	0.687
448.51	0.688
448.71	0.685
448.91	0.687
449.12	0.687
449.32	0.689
449.52	0.688
449.73	0.692
449.93	0.691
450.14	0.692
450.34	0.691
450.54	0.693
450.75	0.690
450.95	0.690
451.15	0.690
451.36	0.692
451.56	0.689
451.76	0.687
451.97	0.684
452.17	0.684
452.37	0.682
452.58	0.678
452.78	0.678
452.98	0.680
453.19	0.680
453.39	0.681
453.59	0.679
453.79	0.680
454.00	0.681
454.20	0.680
454.40	0.680
454.61	0.682
454.81	0.684
455.01	0.682
455.22	0.683
455.42	0.684
455.62	0.682
455.83	0.682
456.03	0.685
456.23	0.684
456.44	0.685
456.64	0.684
456.84	0.684
457.04	0.685
457.25	0.684
457.45	0.681
457.65	0.680
457.86	0.681
458.06	0.680
458.26	0.676
458.47	0.676
458.67	0.677
458.87	0.677
459.07	0.675
459.28	0.677
459.48	0.679
459.68	0.678
459.89	0.677
460.09	0.676
460.29	0.676
460.49	0.678
460.70	0.678
460.90	0.677
461.10	0.677
461.31	0.676
461.51	0.674
461.71	0.675
461.91	0.677
462.12	0.677
462.32	0.676
462.52	0.677
462.72	0.679
462.93	0.679
463.13	0.678
463.33	0.680
463.53	0.681
463.74	0.681
463.94	0.676
464.14	0.677
464.35	0.677
464.55	0.677
464.75	0.676
464.95	0.674
465.16	0.675
465.36	0.674
465.56	0.673
465.76	0.672
465.97	0.671
466.17	0.672
466.37	0.671
466.57	0.672
466.78	0.672
466.98	0.672
467.18	0.669
467.38	0.668
467.59	0.669
467.79	0.670
467.99	0.669
468.19	0.670
468.39	0.672
468.60	0.672
468.80	0.670
469.00	0.672
469.20	0.673
469.41	0.673
469.61	0.673
469.81	0.673
470.01	0.673
470.22	0.673
470.42	0.672
470.62	0.670
470.82	0.671
471.02	0.670
471.23	0.668
471.43	0.669
471.63	0.671
471.83	0.671
472.04	0.670
472.24	0.669
472.44	0.674
472.64	0.675
472.84	0.673
473.05	0.673
473.25	0.675
473.45	0.675
473.65	0.674
473.85	0.674
474.06	0.675
474.26	0.674
474.46	0.675
474.66	0.671
474.86	0.671
475.07	0.671
475.27	0.669
475.47	0.667
475.67	0.667
475.87	0.669
476.08	0.665
476.28	0.666
476.48	0.668
476.68	0.666
476.88	0.665
477.09	0.666
477.29	0.668
477.49	0.668
477.69	0.668
477.89	0.668
478.09	0.666
478.30	0.669
478.50	0.666
478.70	0.666
478.90	0.666
479.10	0.668
479.31	0.669
479.51	0.668
479.71	0.668
479.91	0.667
480.11	0.667
480.31	0.667
480.52	0.665
480.72	0.665
480.92	0.664
481.12	0.663
481.32	0.661
481.52	0.659
481.72	0.659
481.93	0.662
482.13	0.663
482.33	0.662
482.53	0.661
482.73	0.662
482.93	0.663
483.14	0.663
483.34	0.663
483.54	0.663
483.74	0.662
483.94	0.661
484.14	0.657
484.34	0.657
484.55	0.657
484.75	0.657
484.95	0.655
485.15	0.654
485.35	0.654
485.55	0.653
485.75	0.651
485.96	0.651
486.16	0.653
486.36	0.652
486.56	0.651
486.76	0.651
486.96	0.650
487.16	0.649
487.36	0.648
487.57	0.648
487.77	0.649
487.97	0.649
488.17	0.647
488.37	0.647
488.57	0.646
488.77	0.647
488.97	0.645
489.18	0.645
489.38	0.647
489.58	0.648
489.78	0.647
489.98	0.646
490.18	0.646
490.38	0.648
490.58	0.647
490.78	0.648
490.98	0.649
491.19	0.649
491.39	0.649
491.59	0.648
491.79	0.651
491.99	0.652
492.19	0.651
492.39	0.654
492.59	0.654
492.79	0.656
492.99	0.656
493.20	0.656
493.40	0.656
493.60	0.658
493.80	0.657
494.00	0.654
494.20	0.654
494.40	0.654
494.60	0.652
494.80	0.656
495.00	0.654
495.20	0.653
495.40	0.652
495.61	0.653
495.81	0.653
496.01	0.656
496.21	0.657
496.41	0.656
496.61	0.656
496.81	0.655
497.01	0.650
497.21	0.649
497.41	0.650
497.61	0.649
497.81	0.647
498.01	0.647
498.21	0.645
498.41	0.643
498.61	0.643
498.82	0.645
499.02	0.647
499.22	0.648
499.42	0.647
499.62	0.648
499.82	0.649
500.02	0.650
500.22	0.649
500.42	0.651
500.62	0.652
500.82	0.652
501.02	0.650
501.22	0.649
501.42	0.649
501.62	0.652
501.82	0.652
502.02	0.652
502.22	0.651
502.42	0.653
502.62	0.650
502.82	0.650
503.02	0.651
503.22	0.650
503.42	0.649
503.63	0.649
503.83	0.646
504.03	0.645
504.23	0.644
504.43	0.645
504.63	0.645
504.83	0.645
505.03	0.644
505.23	0.646
505.43	0.648
505.63	0.648
505.83	0.648
506.03	0.649
506.23	0.651
506.43	0.652
506.63	0.651
506.83	0.649
507.03	0.650
507.23	0.651
507.43	0.648
507.63	0.649
507.83	0.648
508.03	0.648
508.23	0.648
508.43	0.647
508.63	0.649
508.83	0.649
509.03	0.651
509.23	0.650
509.43	0.651
509.63	0.651
509.83	0.650
510.03	0.653
510.23	0.654
510.43	0.654
510.63	0.654
510.83	0.654
511.03	0.655
511.23	0.653
511.43	0.653
511.63	0.654
511.83	0.656
512.03	0.655
512.22	0.652
512.42	0.652
512.62	0.653
512.82	0.652
513.02	0.652
513.22	0.651
513.42	0.653
513.62	0.656
513.82	0.654
514.02	0.654
514.22	0.655
514.42	0.656
514.62	0.655
514.82	0.655
515.02	0.658
515.22	0.661
515.42	0.660
515.62	0.662
515.82	0.661
516.02	0.662
516.22	0.662
516.42	0.663
516.62	0.664
516.82	0.666
517.01	0.664
517.21	0.664
517.41	0.667
517.61	0.667
517.81	0.664
518.01	0.663
518.21	0.663
518.41	0.662
518.61	0.661
518.81	0.661
519.01	0.662
519.21	0.662
519.41	0.660
519.61	0.656
519.81	0.658
520.00	0.659
520.20	0.660
520.40	0.662
520.60	0.663
520.80	0.662
521.00	0.663
521.20	0.664
521.40	0.668
521.60	0.669
521.80	0.668
522.00	0.668
522.20	0.669
522.39	0.668
522.59	0.665
522.79	0.667
522.99	0.669
523.19	0.667
523.39	0.665
523.59	0.662
523.79	0.665
523.99	0.667
524.19	0.667
524.38	0.665
524.58	0.667
524.78	0.667
524.98	0.665
525.18	0.667
525.38	0.668
525.58	0.669
525.78	0.668
525.98	0.666
526.18	0.665
526.37	0.664
526.57	0.666
526.77	0.666
526.97	0.666
527.17	0.666
527.37	0.663
527.57	0.665
527.77	0.666
527.96	0.666
528.16	0.666
528.36	0.667
528.56	0.669
528.76	0.667
528.96	0.666
529.16	0.668
529.36	0.670
529.55	0.670
529.75	0.668
529.95	0.668
530.15	0.669
530.35	0.671
530.55	0.669
530.75	0.669
530.94	0.671
531.14	0.671
531.34	0.670
531.54	0.668
531.74	0.671
531.94	0.674
532.13	0.673
532.33	0.675
532.53	0.673
532.73	0.673
532.93	0.671
533.13	0.672
533.33	0.672
533.52	0.672
533.72	0.675
533.92	0.673
534.12	0.671
534.32	0.671
534.52	0.669
534.71	0.671
534.91	0.674
535.11	0.676
535.31	0.674
535.51	0.675
535.71	0.676
535.90	0.674
536.10	0.676
536.30	0.678
536.50	0.678
536.70	0.678
536.89	0.676
537.09	0.675
537.29	0.676
537.49	0.677
537.69	0.676
537.89	0.677
538.08	0.676
538.28	0.674
538.48	0.675
538.68	0.676
538.88	0.678
539.07	0.677
539.27	0.676
539.47	0.675
539.67	0.675
539.87	0.676
540.06	0.674
540.26	0.674
540.46	0.676
540.66	0.673
540.86	0.672
541.05	0.671
541.25	0.673
541.45	0.674
541.65	0.673
541.84	0.675
542.04	0.675
542.24	0.675
542.44	0.675
542.64	0.676
542.83	0.679
543.03	0.679
543.23	0.677
543.43	0.678
543.62	0.678
543.82	0.678
544.02	0.677
544.22	0.677
544.42	0.680
544.61	0.681
544.81	0.678
545.01	0.677
545.21	0.680
545.40	0.680
545.60	0.678
545.80	0.681
546.00	0.681
546.19	0.680
546.39	0.680
546.59	0.677
546.79	0.678
546.98	0.678
547.18	0.678
547.38	0.678
547.58	0.680
547.77	0.681
547.97	0.677
548.17	0.679
548.37	0.679
548.56	0.679
548.76	0.679
548.96	0.680
549.16	0.682
549.35	0.682
549.55	0.680
549.75	0.681
549.95	0.683
550.14	0.683
550.34	0.682
550.54	0.686
550.73	0.690
550.93	0.691
551.13	0.689
551.33	0.688
551.52	0.688
551.72	0.688
551.92	0.686
552.12	0.687
552.31	0.688
552.51	0.688
552.71	0.683
552.90	0.683
553.10	0.684
553.30	0.684
553.50	0.683
553.69	0.684
553.89	0.685
554.09	0.685
554.28	0.682
554.48	0.684
554.68	0.685
554.87	0.686
555.07	0.683
555.27	0.683
555.47	0.683
555.66	0.684
555.86	0.683
556.06	0.685
556.25	0.686
556.45	0.694
556.65	0.692
556.84	0.695
557.04	0.698
557.24	0.700
557.43	0.699
557.63	0.703
557.83	0.704
558.02	0.704
558.22	0.709
558.42	0.709
558.61	0.702
558.81	0.703
559.01	0.700
559.21	0.699
559.40	0.700
559.60	0.700
559.80	0.697
559.99	0.698
560.19	0.700
560.39	0.694
560.58	0.692
560.78	0.693
560.97	0.695
561.17	0.694
561.37	0.691
561.56	0.692
561.76	0.693
561.96	0.692
562.15	0.690
562.35	0.691
562.55	0.692
562.74	0.691
562.94	0.690
563.14	0.688
563.33	0.688
563.53	0.688
563.73	0.686
563.92	0.688
564.12	0.689
564.31	0.692
564.51	0.690
564.71	0.693
564.90	0.695
565.10	0.697
565.30	0.700
565.49	0.701
565.69	0.704
565.89	0.704
566.08	0.701
566.28	0.704
566.47	0.705
566.67	0.703
566.87	0.701
567.06	0.703
567.26	0.709
567.46	0.706
567.65	0.705
567.85	0.707
568.04	0.710
568.24	0.709
568.44	0.707
568.63	0.706
568.83	0.707
569.02	0.704
569.22	0.700
569.42	0.696
569.61	0.697
569.81	0.695
570.00	0.694
570.20	0.695
570.40	0.696
570.59	0.695
570.79	0.694
570.98	0.692
571.18	0.694
571.38	0.693
571.57	0.691
571.77	0.689
571.96	0.692
572.16	0.690
572.35	0.685
572.55	0.686
572.75	0.684
572.94	0.683
573.14	0.681
573.33	0.681
573.53	0.681
573.73	0.681
573.92	0.679
574.12	0.677
574.31	0.679
574.51	0.680
574.70	0.678
574.90	0.680
575.09	0.682
575.29	0.682
575.49	0.680
575.68	0.681
575.88	0.682
576.07	0.683
576.27	0.680
576.46	0.679
576.66	0.679
576.86	0.677
577.05	0.675
577.25	0.673
577.44	0.674
577.64	0.674
577.83	0.671
578.03	0.673
578.22	0.672
578.42	0.672
578.61	0.671
578.81	0.671
579.00	0.671
579.20	0.671
579.40	0.670
579.59	0.668
579.79	0.669
579.98	0.669
580.18	0.668
580.37	0.668
580.57	0.670
580.76	0.674
580.96	0.672
581.15	0.673
581.35	0.675
581.54	0.675
581.74	0.675
581.93	0.677
582.13	0.677
582.32	0.674
582.52	0.672
582.71	0.671
582.91	0.668
583.10	0.668
583.30	0.667
583.49	0.666
583.69	0.669
583.88	0.669
584.08	0.669
584.27	0.671
584.47	0.674
584.66	0.676
584.86	0.675
585.05	0.677
585.25	0.679
585.44	0.679
585.64	0.678
585.83	0.675
586.03	0.674
586.22	0.673
586.42	0.668
586.61	0.670
586.81	0.671
587.00	0.671
587.20	0.668
587.39	0.669
587.59	0.670
587.78	0.671
587.98	0.671
588.17	0.673
588.37	0.675
588.56	0.677
588.76	0.673
588.95	0.673
589.15	0.677
589.34	0.680
589.54	0.679
589.73	0.680
589.92	0.682
590.12	0.683
590.31	0.682
590.51	0.687
590.70	0.689
590.90	0.689
591.09	0.688
591.29	0.687
591.48	0.686
591.68	0.687
591.87	0.685
592.06	0.685
592.26	0.687
592.45	0.687
592.65	0.681
592.84	0.680
593.04	0.682
593.23	0.684
593.43	0.682
593.62	0.681
593.81	0.681
594.01	0.680
594.20	0.678
594.40	0.676
594.59	0.678
594.79	0.678
594.98	0.677
595.17	0.676
595.37	0.677
595.56	0.679
595.76	0.679
595.95	0.681
596.14	0.685
596.34	0.686
596.53	0.686
596.73	0.688
596.92	0.689
597.12	0.693
597.31	0.693
597.50	0.692
597.70	0.694
597.89	0.693
598.09	0.689
598.28	0.690
598.47	0.692
598.67	0.690
598.86	0.687
599.06	0.688
599.25	0.687
599.44	0.685
599.64	0.683
599.83	0.680
600.03	0.682
600.22	0.682
600.41	0.682
600.61	0.680
600.80	0.682
601.00	0.682
601.19	0.677
601.38	0.675
601.58	0.678
601.77	0.679
601.96	0.681
602.16	0.681
602.35	0.690
602.55	0.688
602.74	0.689
602.93	0.691
603.13	0.696
603.32	0.698
603.51	0.699
603.71	0.703
603.90	0.705
604.09	0.705
604.29	0.703
604.48	0.698
604.68	0.699
604.87	0.697
605.06	0.694
605.26	0.691
605.45	0.691
605.64	0.690
605.84	0.685
606.03	0.684
606.22	0.683
606.42	0.682
606.61	0.678
606.80	0.678
607.00	0.679
607.19	0.679
607.38	0.678
607.58	0.678
607.77	0.680
607.96	0.680
608.16	0.678
608.35	0.682
608.54	0.685
608.74	0.688
608.93	0.693
609.12	0.696
609.32	0.699
609.51	0.702
609.70	0.701
609.90	0.704
610.09	0.708
610.28	0.713
610.48	0.708
610.67	0.709
610.86	0.711
611.06	0.706
611.25	0.704
611.44	0.705
611.64	0.705
611.83	0.708
612.02	0.706
612.21	0.705
612.41	0.703
612.60	0.702
612.79	0.698
612.99	0.697
613.18	0.699
613.37	0.697
613.57	0.694
613.76	0.696
613.95	0.692
614.14	0.691
614.34	0.688
614.53	0.688
614.72	0.691
614.92	0.691
615.11	0.688
615.30	0.685
615.49	0.685
615.69	0.688
615.88	0.684
616.07	0.685
616.26	0.687
616.46	0.688
616.65	0.685
616.84	0.684
617.04	0.684
617.23	0.687
617.42	0.688
617.61	0.691
617.81	0.691
618.00	0.693
618.19	0.692
618.38	0.696
618.58	0.700
618.77	0.701
618.96	0.702
619.15	0.704
619.35	0.706
619.54	0.707
619.73	0.704
619.92	0.707
620.12	0.711
620.31	0.712
620.50	0.707
620.69	0.706
620.89	0.709
621.08	0.709
621.27	0.709
621.46	0.709
621.66	0.711
621.85	0.711
622.04	0.709
622.23	0.710
622.43	0.710
622.62	0.711
622.81	0.710
623.00	0.709
623.19	0.712
623.39	0.710
623.58	0.707
623.77	0.706
623.96	0.708
624.16	0.707
624.35	0.702
624.54	0.705
624.73	0.707
624.92	0.705
625.12	0.703
625.31	0.704
625.50	0.707
625.69	0.708
625.88	0.704
626.08	0.704
626.27	0.705
626.46	0.705
626.65	0.703
626.84	0.703
627.04	0.709
627.23	0.709
627.42	0.704
627.61	0.706
627.80	0.708
628.00	0.709
628.19	0.707
628.38	0.710
628.57	0.711
628.76	0.710
628.96	0.707
629.15	0.707
629.34	0.711
629.53	0.711
629.72	0.705
629.91	0.707
630.11	0.710
630.30	0.711
630.49	0.714
630.68	0.715
630.87	0.717
631.06	0.719
631.26	0.715
631.45	0.716
631.64	0.724
631.83	0.726
632.02	0.723
632.21	0.723
632.41	0.728
632.60	0.723
632.79	0.722
632.98	0.723
633.17	0.724
633.36	0.726
633.55	0.723
633.75	0.718
633.94	0.719
634.13	0.719
634.32	0.718
634.51	0.714
634.70	0.716
634.89	0.716
635.09	0.711
635.28	0.712
635.47	0.712
635.66	0.715
635.85	0.712
636.04	0.715
636.23	0.719
636.43	0.719
636.62	0.719
636.81	0.717
637.00	0.718
637.19	0.722
637.38	0.719
637.57	0.718
637.76	0.718
637.95	0.718
638.15	0.714
638.34	0.710
638.53	0.712
638.72	0.713
638.91	0.711
639.10	0.710
639.29	0.711
639.48	0.712
639.67	0.712
639.87	0.712
640.06	0.717
640.25	0.718
640.44	0.720
640.63	0.721
640.82	0.723
641.01	0.724
641.20	0.724
641.39	0.725
641.58	0.726
641.78	0.725
641.97	0.722
642.16	0.737
642.35	0.737
642.54	0.735
642.73	0.731
642.92	0.729
643.11	0.731
643.30	0.730
643.49	0.725
643.68	0.728
643.87	0.729
644.06	0.729
644.25	0.709
644.45	0.711
644.64	0.711
644.83	0.711
645.02	0.708
645.21	0.708
645.40	0.709
645.59	0.709
645.78	0.703
645.97	0.706
646.16	0.706
646.35	0.706
646.54	0.704
646.73	0.707
646.92	0.708
647.11	0.707
647.30	0.703
647.49	0.704
647.68	0.703
647.88	0.703
648.07	0.696
648.26	0.700
648.45	0.701
648.64	0.697
648.83	0.694
649.02	0.697
649.21	0.706
649.40	0.705
649.59	0.702
649.78	0.703
649.97	0.716
650.16	0.715
650.35	0.709
650.54	0.712
650.73	0.720
650.92	0.717
651.11	0.710
651.30	0.709
651.49	0.713
651.68	0.714
651.87	0.711
652.06	0.701
652.25	0.704
652.44	0.708
652.63	0.709
652.82	0.711
653.01	0.713
653.20	0.712
653.39	0.702
653.58	0.699
653.77	0.698
653.96	0.694
654.15	0.686
654.34	0.684
654.53	0.678
654.72	0.670
654.91	0.660
655.10	0.655
655.29	0.653
655.48	0.650
655.67	0.645
655.86	0.642
656.05	0.639
656.24	0.639
656.43	0.634
656.62	0.632
656.81	0.631
657.00	0.627
657.19	0.623
657.38	0.621
657.57	0.619
657.76	0.621
657.95	0.618
658.14	0.621
658.33	0.623
658.51	0.627
658.70	0.627
658.89	0.629
659.08	0.639
659.27	0.648
659.46	0.651
659.65	0.658
659.84	0.661
660.03	0.665
660.22	0.667
660.41	0.670
660.60	0.669
660.79	0.670
660.98	0.677
661.17	0.675
661.36	0.674
661.55	0.674
661.74	0.673
661.92	0.677
662.11	0.678
662.30	0.678
662.49	0.673
662.68	0.673
662.87	0.675
663.06	0.670
663.25	0.672
663.44	0.672
663.63	0.673
663.82	0.671
664.01	0.666
664.20	0.665
664.38	0.666
664.57	0.666
664.76	0.666
664.95	0.667
665.14	0.670
665.33	0.665
665.52	0.672
665.71	0.676
665.90	0.675
666.09	0.677
666.28	0.675
666.46	0.674
666.65	0.674
666.84	0.672
667.03	0.667
667.22	0.665
667.41	0.667
667.60	0.657
667.79	0.651
667.98	0.653
668.16	0.653
668.35	0.652
668.54	0.649
668.73	0.650
668.92	0.650
669.11	0.650
669.30	0.645
669.49	0.641
669.67	0.642
669.86	0.644
670.05	0.642
670.24	0.641
670.43	0.639
670.62	0.637
670.81	0.633
671.00	0.634
671.18	0.633
671.37	0.632
671.56	0.631
671.75	0.630
671.94	0.627
672.13	0.624
672.32	0.620
672.50	0.619
672.69	0.618
672.88	0.618
673.07	0.614
673.26	0.615
673.45	0.616
673.63	0.616
673.82	0.613
674.01	0.615
674.20	0.614
674.39	0.614
674.58	0.614
674.76	0.614
674.95	0.613
675.14	0.613
675.33	0.610
675.52	0.608
675.71	0.609
675.89	0.609
676.08	0.605
676.27	0.605
676.46	0.606
676.65	0.604
676.84	0.604
677.02	0.605
677.21	0.607
677.40	0.606
677.59	0.604
677.78	0.604
677.96	0.606
678.15	0.605
678.34	0.603
678.53	0.604
678.72	0.604
678.90	0.600
679.09	0.597
679.28	0.593
679.47	0.593
679.66	0.593
679.84	0.590
680.03	0.587
680.22	0.586
680.41	0.588
680.60	0.584
680.78	0.584
680.97	0.586
681.16	0.585
681.35	0.584
681.53	0.583
681.72	0.584
681.91	0.586
682.10	0.585
682.29	0.587
682.47	0.585
682.66	0.583
682.85	0.582
683.04	0.581
683.22	0.580
683.41	0.582
683.60	0.581
683.79	0.582
683.97	0.581
684.16	0.579
684.35	0.576
684.54	0.578
684.72	0.579
684.91	0.580
685.10	0.578
685.29	0.579
685.47	0.576
685.66	0.575
685.85	0.572
686.04	0.571
686.22	0.574
686.41	0.576
686.60	0.573
686.79	0.575
686.97	0.576
687.16	0.576
687.35	0.574
687.54	0.577
687.72	0.581
687.91	0.581
688.10	0.584
688.29	0.583
688.47	0.580
688.66	0.580
688.85	0.577
689.03	0.575
689.22	0.580
689.41	0.581
689.60	0.577
689.78	0.574
689.97	0.574
690.16	0.571
690.34	0.568
690.53	0.568
690.72	0.567
690.91	0.565
691.09	0.563
691.28	0.557
691.47	0.555
691.65	0.554
691.84	0.551
692.03	0.549
692.21	0.546
692.40	0.546
692.59	0.543
692.77	0.542
692.96	0.543
693.15	0.544
693.34	0.541
693.52	0.541
693.71	0.542
693.90	0.543
694.08	0.545
694.27	0.546
694.46	0.555
694.64	0.556
694.83	0.555
695.02	0.555
695.20	0.554
695.39	0.554
695.58	0.555
695.76	0.555
695.95	0.554
696.14	0.553
696.32	0.551
696.51	0.542
696.70	0.542
696.88	0.543
697.07	0.542
697.26	0.544
697.44	0.544
697.63	0.544
697.81	0.542
698.00	0.541
698.19	0.540
698.37	0.540
698.56	0.539
698.75	0.538
698.93	0.537
699.12	0.537
699.31	0.536
699.49	0.535
699.68	0.535
699.87	0.538
700.05	0.538
700.24	0.538
700.42	0.540
700.61	0.539
700.80	0.538
700.98	0.539
701.17	0.540
701.36	0.539
701.54	0.539
701.73	0.540
701.91	0.537
702.10	0.536
702.29	0.535
702.47	0.534
702.66	0.535
702.84	0.537
703.03	0.535
703.22	0.536
703.40	0.536
703.59	0.537
703.77	0.537
703.96	0.537
704.15	0.538
704.33	0.537
704.52	0.537
704.70	0.536
704.89	0.535
705.08	0.533
705.26	0.530
705.45	0.529
705.63	0.529
705.82	0.526
706.00	0.525
706.19	0.524
706.38	0.524
706.56	0.523
706.75	0.522
706.93	0.522
707.12	0.523
707.30	0.523
707.49	0.522
707.68	0.520
707.86	0.519
708.05	0.519
708.23	0.516
708.42	0.516
708.60	0.518
708.79	0.517
708.98	0.516
709.16	0.515
709.35	0.516
709.53	0.519
709.72	0.519
709.90	0.520
710.09	0.522
710.27	0.524
710.46	0.528
710.64	0.527
710.83	0.528
711.02	0.529
711.20	0.528
711.39	0.528
711.57	0.525
711.76	0.526
711.94	0.524
712.13	0.525
712.31	0.524
712.50	0.519
712.68	0.517
712.87	0.518
713.05	0.519
713.24	0.519
713.42	0.518
713.61	0.520
713.79	0.520
713.98	0.521
714.16	0.522
714.35	0.522
714.54	0.523
714.72	0.523
714.91	0.522
715.09	0.527
715.28	0.529
715.46	0.529
715.65	0.527
715.83	0.527
716.02	0.529
716.20	0.525
716.39	0.525
716.57	0.526
716.76	0.528
716.94	0.528
717.12	0.521
717.31	0.522
717.49	0.525
717.68	0.527
717.86	0.527
718.05	0.528
718.23	0.530
718.42	0.531
718.60	0.533
718.79	0.541
718.97	0.543
719.16	0.543
719.34	0.540
719.53	0.539
719.71	0.539
719.90	0.540
720.08	0.538
720.27	0.538
720.45	0.539
720.63	0.537
720.82	0.532
721.00	0.535
721.19	0.537
721.37	0.538
721.56	0.538
721.74	0.541
721.93	0.550
722.11	0.555
722.30	0.555
722.48	0.559
722.66	0.560
722.85	0.558
723.03	0.558
723.22	0.558
723.40	0.560
723.59	0.561
723.77	0.566
723.95	0.560
724.14	0.562
724.32	0.564
724.51	0.564
724.69	0.565
724.88	0.566
725.06	0.565
725.24	0.567
725.43	0.568
725.61	0.568
725.80	0.562
725.98	0.561
726.16	0.557
726.35	0.561
726.53	0.560
726.72	0.559
726.90	0.568
727.09	0.568
727.27	0.573
727.45	0.571
727.64	0.580
727.82	0.587
728.01	0.591
728.19	0.590
728.37	0.596
728.56	0.600
728.74	0.607
728.92	0.597
729.11	0.600
729.29	0.598
729.48	0.600
729.66	0.591
729.84	0.591
730.03	0.593
730.21	0.595
730.40	0.587
730.58	0.587
730.76	0.587
730.95	0.589
731.13	0.590
731.31	0.603
731.50	0.610
731.68	0.613
731.86	0.610
732.05	0.623
732.23	0.625
732.42	0.629
732.60	0.633
732.78	0.637
732.97	0.654
733.15	0.659
733.33	0.649
733.52	0.656
733.70	0.667
733.88	0.676
734.07	0.665
734.25	0.689
734.43	0.694
734.62	0.697
734.80	0.694
734.98	0.684
735.17	0.688
735.35	0.694
735.53	0.685
735.72	0.687
735.90	0.707
736.08	0.724
736.27	0.703
736.45	0.713
736.63	0.721
736.82	0.729
737.00	0.733
737.18	0.745
737.37	0.772
737.55	0.795
737.73	0.791
737.92	0.791
738.10	0.786
738.28	0.808
738.46	0.799
738.65	0.811
738.83	0.828
739.01	0.880
739.20	0.872
739.38	0.853
739.56	0.841
739.75	0.845
739.93	0.818
740.11	0.843
740.29	0.840
740.48	0.846
740.66	0.830
740.84	0.826
741.03	0.783
741.21	0.793
741.39	0.779
741.57	0.793
741.76	0.806
741.94	0.810
742.12	0.780
742.31	0.785
742.49	0.799
742.67	0.821
742.85	0.836
743.04	0.845
743.22	0.850
743.40	0.900
743.58	0.886
743.77	0.900
743.95	0.930
744.13	0.975
744.31	0.962
744.50	0.957
744.68	0.947
744.86	0.924
745.04	0.937
745.23	1.000
745.41	0.977
745.59	0.981
745.77	0.959
745.96	0.943
746.14	0.945
746.32	0.944
746.50	0.940
746.69	0.929
746.87	0.936
747.05	0.918
747.23	0.854
747.42	0.840
747.60	0.859
747.78	0.859
747.96	0.892
748.14	0.858
748.33	0.881
748.51	0.876
748.69	0.871
748.87	0.896
749.06	0.893
749.24	0.889
749.42	0.881
749.60	0.867
749.78	0.870
749.97	0.831
750.15	0.820
750.33	0.815
750.51	0.831
750.69	0.837
750.88	0.842
751.06	0.847
751.24	0.868
751.42	0.859
751.60	0.852
751.79	0.912
751.97	0.946
752.15	0.948
752.33	0.928
752.51	0.987
752.69	0.994
752.88	0.972
753.06	1.019
753.24	0.996
753.42	1.022
753.60	1.170
753.78	1.056
753.97	1.074
754.15	1.089
754.33	1.117
754.51	1.011
754.69	1.000
754.87	1.018
755.06	0.956
755.24	0.960
755.42	0.969
755.60	0.873
755.78	0.878
755.96	0.831
756.15	0.828
756.33	0.830
756.51	0.845
756.69	0.832
756.87	0.799
757.05	0.812
757.23	0.798
757.42	0.775
757.60	0.776
757.78	0.765
757.96	0.765
758.14	0.754
758.32	0.737
758.50	0.748
758.69	0.748
758.87	0.746
759.05	0.748
759.23	0.754
759.41	0.752
759.59	0.745
759.77	0.764
759.95	0.786
760.13	0.827
760.32	0.831
760.50	0.825
760.68	0.843
760.86	0.841
761.04	0.821
761.22	0.825
761.40	0.866
761.58	0.865
761.76	0.845
761.95	0.829
762.13	0.788
762.31	0.788
762.49	0.761
762.67	0.778
762.85	0.786
763.03	0.781
763.21	0.767
763.39	0.750
763.57	0.752
763.75	0.747
763.94	0.736
764.12	0.739
764.30	0.761
764.48	0.767
764.66	0.733
764.84	0.732
765.02	0.766
765.20	0.771
765.38	0.754
765.56	0.759
765.74	0.795
765.92	0.794
766.10	0.799
766.28	0.788
766.46	0.808
766.65	0.811
766.83	0.801
767.01	0.788
767.19	0.793
767.37	0.793
767.55	0.783
767.73	0.762
767.91	0.763
768.09	0.755
768.27	0.748
768.45	0.741
768.63	0.744
768.81	0.747
768.99	0.724
769.17	0.745
769.35	0.755
769.53	0.754
769.71	0.739
769.89	0.742
770.07	0.746
770.25	0.732
770.43	0.713
770.61	0.734
770.79	0.738
770.97	0.748
771.15	0.720
771.33	0.724
771.51	0.724
771.69	0.733
771.87	0.744
772.05	0.748
772.24	0.751
772.42	0.758
772.60	0.739
772.78	0.791
772.96	0.815
773.14	0.813
773.32	0.793
773.49	0.802
773.67	0.798
773.85	0.780
774.03	0.770
774.21	0.802
774.39	0.812
774.57	0.834
774.75	0.774
774.93	0.766
775.11	0.782
775.29	0.791
775.47	0.792
775.65	0.801
775.83	0.813
776.01	0.832
776.19	0.792
776.37	0.792
776.55	0.790
776.73	0.784
776.91	0.782
777.09	0.768
777.27	0.764
777.45	0.754
777.63	0.737
777.81	0.736
777.99	0.723
778.17	0.722
778.35	0.704
778.53	0.694
778.71	0.697
778.89	0.685
779.07	0.677
779.24	0.680
779.42	0.680
779.60	0.696
779.78	0.693
779.96	0.696
780.14	0.700
780.32	0.718
780.50	0.703
780.68	0.701
780.86	0.696
781.04	0.710
781.22	0.714
781.40	0.720
781.58	0.710
781.75	0.702
781.93	0.690
782.11	0.691
782.29	0.676
782.47	0.676
782.65	0.668
782.83	0.690
783.01	0.681
783.19	0.676
783.37	0.667
783.55	0.669
783.72	0.685
783.90	0.693
784.08	0.688
784.26	0.698
784.44	0.716
784.62	0.719
784.80	0.693
784.98	0.701
785.16	0.707
785.33	0.720
785.51	0.710
785.69	0.697
785.87	0.698
786.05	0.710
786.23	0.709
786.41	0.704
786.59	0.709
786.77	0.709
786.94	0.697
787.12	0.700
787.30	0.699
787.48	0.697
787.66	0.687
787.84	0.689
788.02	0.677
788.19	0.675
788.37	0.664
788.55	0.665
788.73	0.664
788.91	0.658
789.09	0.643
789.27	0.635
789.44	0.645
789.62	0.651
789.80	0.658
789.98	0.679
790.16	0.666
790.34	0.663
790.51	0.653
790.69	0.670
790.87	0.676
791.05	0.675
791.23	0.671
791.41	0.671
791.58	0.675
791.76	0.656
791.94	0.632
792.12	0.639
792.30	0.642
792.48	0.641
792.65	0.636
792.83	0.642
793.01	0.644
793.19	0.641
793.37	0.629
793.54	0.626
793.72	0.635
793.90	0.632
794.08	0.624
794.26	0.623
794.43	0.630
794.61	0.615
794.79	0.605
794.97	0.605
795.15	0.609
795.32	0.611
795.50	0.602
795.68	0.596
795.86	0.598
796.04	0.598
796.21	0.594
796.39	0.591
796.57	0.603
796.75	0.611
796.92	0.614
797.10	0.617
797.28	0.618
797.46	0.621
797.64	0.625
797.81	0.631
797.99	0.635
798.17	0.638
798.35	0.633
798.52	0.635
798.70	0.630
798.88	0.638
799.06	0.641
799.23	0.643
799.41	0.648
799.59	0.642
799.77	0.635
799.94	0.642
800.12	0.649
800.30	0.665
800.48	0.666
800.65	0.664
800.83	0.651
801.01	0.643
801.19	0.644
801.36	0.641
801.54	0.643
801.72	0.651
801.90	0.639
802.07	0.637
802.25	0.622
802.43	0.610
802.60	0.609
802.78	0.615
802.96	0.618
803.14	0.613
803.31	0.612
803.49	0.612
803.67	0.608
803.84	0.613
804.02	0.606
804.20	0.608
804.38	0.610
804.55	0.611
804.73	0.600
804.91	0.601
805.08	0.612
805.26	0.611
805.44	0.673
805.61	0.676
805.79	0.675
805.97	0.674
806.15	0.669
806.32	0.664
806.50	0.668
806.68	0.667
806.85	0.661
807.03	0.650
807.21	0.662
807.38	0.598
807.56	0.590
807.74	0.600
807.91	0.604
808.09	0.606
808.27	0.624
808.44	0.647
808.62	0.654
808.80	0.655
808.97	0.652
809.15	0.649
809.33	0.664
809.50	0.669
809.68	0.657
809.86	0.664
810.03	0.693
810.21	0.675
810.39	0.660
810.56	0.666
810.74	0.686
810.91	0.752
811.09	0.742
811.27	0.762
811.44	0.767
811.62	0.768
811.80	0.755
811.97	0.727
812.15	0.727
812.33	0.722
812.50	0.709
812.68	0.698
812.85	0.646
813.03	0.648
813.21	0.619
813.38	0.615
813.56	0.617
813.74	0.624
813.91	0.632
814.09	0.656
814.26	0.648
814.44	0.653
814.62	0.647
814.79	0.650
814.97	0.651
815.14	0.654
815.32	0.656
815.50	0.670
815.67	0.673
815.85	0.664
816.02	0.657
816.20	0.664
816.38	0.673
816.55	0.679
816.73	0.680
816.90	0.691
817.08	0.715
817.26	0.723
817.43	0.706
817.61	0.728
817.78	0.747
817.96	0.728
818.13	0.721
818.31	0.720
818.49	0.726
818.66	0.715
818.84	0.705
819.01	0.686
819.19	0.687
819.36	0.689
819.54	0.664
819.71	0.701
819.89	0.710
820.07	0.720
820.24	0.718
820.42	0.719
820.59	0.734
820.77	0.752
820.94	0.746
821.12	0.763
821.29	0.775
821.47	0.774
821.64	0.720
821.82	0.731
822.00	0.727
822.17	0.727
822.35	0.723
822.52	0.727
822.70	0.719
822.87	0.729
823.05	0.713
823.22	0.724
823.40	0.744
823.57	0.762
823.75	0.750
823.92	0.772
824.10	0.786
824.27	0.824
824.45	0.816
824.62	0.870
824.80	0.888
824.97	0.903
825.15	0.897
825.32	0.909
825.50	0.908
825.67	0.922
825.85	0.902
826.02	0.919
826.20	0.927
826.37	1.039
826.55	0.973
826.72	1.128
826.90	1.176
827.07	1.212
827.25	1.178
827.42	1.302
827.60	1.383
827.77	1.516
827.95	1.507
828.12	1.625
828.30	1.342
828.47	1.438
828.65	1.153
828.82	1.191
829.00	1.240
829.17	1.312
829.34	1.321
829.52	1.360
829.69	-0.000
829.87	-0.000
830.04	-0.000
830.22	-0.000
830.39	-0.000
830.57	-0.000
830.74	-0.000
830.92	-0.000
831.09	-0.000
831.26	-0.000
831.44	-0.000
831.61	-0.000
831.79	-0.000
831.96	-0.000
832.14	-0.000
832.31	-0.000
832.49	-0.000
832.66	-0.000
832.83	-0.000
833.01	-0.000
833.18	-0.000
833.36	-0.000
833.53	-0.000
833.70	-0.000
833.88	-0.000
834.05	-0.000
834.23	-0.000
834.40	-0.000
834.58	-0.000
834.75	-0.000
834.92	-0.000
835.10	-0.000
835.27	-0.000
835.45	-0.000
835.62	-0.000
835.79	-0.000
835.97	-0.000
836.14	-0.000
836.32	-0.000
836.49	-0.000
836.66	-0.000
836.84	-0.000
837.01	-0.000
837.18	-0.000
837.36	-0.000
837.53	-0.000
837.71	-0.000
837.88	-0.000
838.05	-0.000
838.23	-0.000
838.40	-0.000
838.58	-0.000
838.75	-0.000
838.92	-0.000
839.10	-0.000
839.27	-0.000
839.44	-0.000
839.62	-0.000
839.79	-0.000
839.96	-0.000
840.14	-0.000
840.31	-0.000
840.48	-0.000
840.66	-0.000
840.83	-0.000
841.01	-0.000
841.18	-0.000
841.35	-0.000
841.53	-0.000
841.70	-0.000
841.87	-0.000
842.05	-0.000
842.22	-0.000
842.39	-0.000
842.57	-0.000
842.74	-0.000
842.91	-0.000
843.09	-0.000
843.26	-0.000
843.43	-0.000
843.60	-0.000
843.78	-0.000
843.95	-0.000
844.12	-0.000
844.30	-0.000
844.47	-0.000
844.64	-0.000
844.82	-0.000
844.99	-0.000
845.16	-0.000
845.34	-0.000
845.51	-0.000
845.68	-0.000
845.85	-0.000
846.03	-0.000
846.20	-0.000
846.37	-0.000
846.55	-0.000
846.72	-0.000
846.89	-0.000
847.06	-0.000
847.24	-0.000
847.41	-0.000
847.58	-0.000
847.76	-0.000
847.93	-0.000
848.10	-0.000
848.27	-0.000
848.45	-0.000
848.62	-0.000
848.79	-0.000
848.97	-0.000
849.14	-0.000
849.31	-0.000
849.48	-0.000
849.66	-0.000
849.83	-0.000
850.00	-0.000
850.17	-0.000
850.35	-0.000
850.52	-0.000
850.69	-0.000
850.86	-0.000
851.04	-0.000
851.21	-0.000
851.38	-0.000
851.55	-0.000
851.72	-0.000
851.90	-0.000
852.07	-0.000
852.24	-0.000
852.41	-0.000
852.59	-0.000
852.76	-0.000
852.93	-0.000
853.10	-0.000
853.28	-0.000
853.45	-0.000
853.62	-0.000
853.79	-0.000
853.96	-0.000
854.14	-0.000
854.31	-0.000
854.48	-0.000
854.65	-0.000
854.82	-0.000
855.00	-0.000
855.17	-0.000
855.34	-0.000
855.51	-0.000
855.68	-0.000
855.86	-0.000
856.03	-0.000
856.20	-0.000
856.37	-0.000
856.54	-0.000
856.72	-0.000
856.89	-0.000
857.06	-0.000
857.23	-0.000
857.40	-0.000
857.57	-0.000
857.75	-0.000
857.92	-0.000
858.09	-0.000
858.26	-0.000
858.43	-0.000
858.60	-0.000
858.78	-0.000
858.95	-0.000
859.12	-0.000
859.29	-0.000
859.46	-0.000
859.63	-0.000
859.81	-0.000
859.98	-0.000
860.15	-0.000
860.32	-0.000
860.49	-0.000
860.66	-0.000
860.83	-0.000
861.01	-0.000
861.18	-0.000
861.35	-0.000
861.52	-0.000
861.69	-0.000
861.86	-0.000
862.03	-0.000
862.21	-0.000
862.38	-0.000
862.55	-0.000
862.72	-0.000
862.89	-0.000
863.06	-0.000
863.23	-0.000
863.40	-0.000
863.58	-0.000
863.75	-0.000
863.92	-0.000
864.09	-0.000
864.26	-0.000
864.43	-0.000
864.60	-0.000
864.77	-0.000
864.94	-0.000
865.11	-0.000
865.29	-0.000
865.46	-0.000
865.63	-0.000
865.80	-0.000
865.97	-0.000
866.14	-0.000
866.31	-0.000
866.48	-0.000
866.65	-0.000
866.82	-0.000
866.99	-0.000
867.16	-0.000
867.34	-0.000
867.51	-0.000
867.68	-0.000
867.85	-0.000
868.02	-0.000
868.19	-0.000
868.36	-0.000
868.53	-0.000
868.70	-0.000
868.87	-0.000
869.04	-0.000
869.21	-0.000
869.38	-0.000
869.55	-0.000
869.72	-0.000
869.89	-0.000
870.06	-0.000
870.24	-0.000
870.41	-0.000
870.58	-0.000
870.75	-0.000
870.92	-0.000
871.09	-0.000
871.26	-0.000
871.43	-0.000
871.60	-0.000
871.77	-0.000
871.94	-0.000
872.11	-0.000
872.28	-0.000
872.45	-0.000
872.62	-0.000
872.79	-0.000
872.96	-0.000
873.13	-0.000
873.30	-0.000
873.47	-0.000
873.64	-0.000
873.81	-0.000
873.98	-0.000
874.15	-0.000
874.32	-0.000
874.49	-0.000
874.66	-0.000
874.83	-0.000
875.00	-0.000
875.17	-0.000
875.34	-0.000
875.51	-0.000
875.68	-0.000
875.85	-0.000
876.02	-0.000
876.19	-0.000
876.36	-0.000
876.53	-0.000
876.70	-0.000
876.87	-0.000
877.04	-0.000
877.21	-0.000
877.38	-0.000
877.55	-0.000
877.72	-0.000
877.89	-0.000
878.06	-0.000
878.23	-0.000
878.39	-0.000
878.56	-0.000
878.73	-0.000
878.90	-0.000
879.07	-0.000
879.24	-0.000
879.41	-0.000
879.58	-0.000
879.75	-0.000
879.92	-0.000
880.09	-0.000
880.26	-0.000
880.43	-0.000
880.60	-0.000
880.77	-0.000
880.94	-0.000
881.11	-0.000
881.27	-0.000
881.44	-0.000
881.61	-0.000
881.78	-0.000
881.95	-0.000
882.12	-0.000
882.29	-0.000
882.46	-0.000
882.63	-0.000
882.80	-0.000
882.97	-0.000
883.14	-0.000
883.30	-0.000
883.47	-0.000
883.64	-0.000
883.81	-0.000
883.98	-0.000
884.15	-0.000
884.32	-0.000
884.49	-0.000
884.66	-0.000
884.82	-0.000
884.99	-0.000
885.16	-0.000
885.33	-0.000
885.50	-0.000
885.67	-0.000
885.84	-0.000
886.01	-0.000
886.17	-0.000
886.34	-0.000
886.51	-0.000
886.68	-0.000
886.85	-0.000
887.02	-0.000
887.19	-0.000
887.36	-0.000
887.52	-0.000
887.69	-0.000
887.86	-0.000
888.03	-0.000
888.20	-0.000
888.37	-0.000
888.54	-0.000
888.70	-0.000
888.87	-0.000
889.04	-0.000
889.21	-0.000
889.38	-0.000
889.55	-0.000
889.71	-0.000
889.88	-0.000
890.05	-0.000
890.22	-0.000
890.39	-0.000
>>>>>End Processed Spectral Data<<<<<
