SpectraSuite Data File
++++++++++++++++++++++++++++++++++++
Date: Fri Jun 19 15:07:20 CEST 2015
User: introlabs
Dark Spectrum Present: Yes
Reference Spectrum Present: Yes
Number of Sampled Component Spectra: 1
Spectrometers: USB4H08886
Integration Time (usec): 745692 (USB4H08886)
Spectra Averaged: 5 (USB4H08886)
Boxcar Smoothing: 5 (USB4H08886)
Correct for Electrical Dark: Yes (USB4H08886)
Strobe/Lamp Enabled: No (USB4H08886)
Correct for Detector Non-linearity: Yes (USB4H08886)
Correct for Stray Light: Yes (USB4H08886)
Number of Pixels in Processed Spectrum: 3648
>>>>>Begin Processed Spectral Data<<<<<
178.14	-0.000
178.36	-0.000
178.57	-0.000
178.79	-0.000
179.01	-0.000
179.22	-0.000
179.44	-0.000
179.65	-0.000
179.87	-0.000
180.08	-0.000
180.30	-0.000
180.52	-0.000
180.73	-0.000
180.95	-0.000
181.16	-0.000
181.38	-0.000
181.59	-0.000
181.81	-0.000
182.03	-0.000
182.24	-0.000
182.46	-0.000
182.67	-0.000
182.89	-0.000
183.10	-0.000
183.32	-0.000
183.54	-0.000
183.75	-0.000
183.97	-0.000
184.18	-0.000
184.40	-0.000
184.61	-0.000
184.83	-0.000
185.04	-0.000
185.26	-0.000
185.48	-0.000
185.69	-0.000
185.91	-0.000
186.12	-0.000
186.34	-0.000
186.55	-0.000
186.77	-0.000
186.98	-0.000
187.20	-0.000
187.42	-0.000
187.63	-0.000
187.85	-0.000
188.06	-0.000
188.28	-0.000
188.49	-0.000
188.71	-0.000
188.92	-0.000
189.14	-0.000
189.36	-0.000
189.57	-0.000
189.79	-0.000
190.00	-0.000
190.22	-0.000
190.43	-0.000
190.65	-0.000
190.86	-0.000
191.08	-0.000
191.29	-0.000
191.51	-0.000
191.72	-0.000
191.94	-0.000
192.16	-0.000
192.37	-0.000
192.59	-0.000
192.80	-0.000
193.02	-0.000
193.23	-0.000
193.45	-0.000
193.66	-0.000
193.88	-0.000
194.09	-0.000
194.31	-0.000
194.52	-0.000
194.74	-0.000
194.95	-0.000
195.17	-0.000
195.38	-0.000
195.60	-0.000
195.81	-0.000
196.03	-0.000
196.25	-0.000
196.46	-0.000
196.68	-0.000
196.89	-0.000
197.11	-0.000
197.32	-0.000
197.54	-0.000
197.75	-0.000
197.97	-0.000
198.18	-0.000
198.40	-0.000
198.61	-0.000
198.83	-0.000
199.04	-0.000
199.26	-0.000
199.47	-0.000
199.69	-0.000
199.90	-0.000
200.12	-0.000
200.33	-0.000
200.55	-0.000
200.76	-0.000
200.98	-0.000
201.19	-0.000
201.41	-0.000
201.62	-0.000
201.84	-0.000
202.05	-0.000
202.27	-0.000
202.48	-0.000
202.70	-0.000
202.91	-0.000
203.13	-0.000
203.34	-0.000
203.56	-0.000
203.77	-0.000
203.99	-0.000
204.20	-0.000
204.42	-0.000
204.63	-0.000
204.85	-0.000
205.06	-0.000
205.28	-0.000
205.49	-0.000
205.71	-0.000
205.92	-0.000
206.14	-0.000
206.35	-0.000
206.56	-0.000
206.78	-0.000
206.99	-0.000
207.21	-0.000
207.42	-0.000
207.64	-0.000
207.85	-0.000
208.07	-0.000
208.28	-0.000
208.50	-0.000
208.71	-0.000
208.93	-0.000
209.14	-0.000
209.36	-0.000
209.57	-0.000
209.79	-0.000
210.00	-0.000
210.22	-0.000
210.43	-0.000
210.64	-0.000
210.86	-0.000
211.07	-0.000
211.29	-0.000
211.50	-0.000
211.72	-0.000
211.93	-0.000
212.15	-0.000
212.36	-0.000
212.58	-0.000
212.79	-0.000
213.01	-0.000
213.22	-0.000
213.43	-0.000
213.65	-0.000
213.86	-0.000
214.08	-0.000
214.29	-0.000
214.51	-0.000
214.72	-0.000
214.94	-0.000
215.15	-0.000
215.36	-0.000
215.58	-0.000
215.79	-0.000
216.01	-0.000
216.22	-0.000
216.44	-0.000
216.65	-0.000
216.87	-0.000
217.08	-0.000
217.29	-0.000
217.51	-0.000
217.72	-0.000
217.94	-0.000
218.15	-0.000
218.37	-0.000
218.58	-0.000
218.80	-0.000
219.01	-0.000
219.22	-0.000
219.44	-0.000
219.65	-0.000
219.87	-0.000
220.08	-0.000
220.30	-0.000
220.51	-0.000
220.72	-0.000
220.94	-0.000
221.15	-0.000
221.37	-0.000
221.58	-0.000
221.79	-0.000
222.01	-0.000
222.22	-0.000
222.44	-0.000
222.65	-0.000
222.87	-0.000
223.08	-0.000
223.29	-0.000
223.51	-0.000
223.72	-0.000
223.94	-0.000
224.15	-0.000
224.36	-0.000
224.58	-0.000
224.79	-0.000
225.01	-0.000
225.22	-0.000
225.44	-0.000
225.65	-0.000
225.86	-0.000
226.08	-0.000
226.29	-0.000
226.51	-0.000
226.72	-0.000
226.93	-0.000
227.15	-0.000
227.36	-0.000
227.58	-0.000
227.79	-0.000
228.00	-0.000
228.22	-0.000
228.43	-0.000
228.65	-0.000
228.86	-0.000
229.07	-0.000
229.29	-0.000
229.50	-0.000
229.72	-0.000
229.93	-0.000
230.14	-0.000
230.36	-0.000
230.57	-0.000
230.78	-0.000
231.00	-0.000
231.21	-0.000
231.43	-0.000
231.64	-0.000
231.85	-0.000
232.07	-0.000
232.28	-0.000
232.50	-0.000
232.71	-0.000
232.92	-0.000
233.14	-0.000
233.35	-0.000
233.56	-0.000
233.78	-0.000
233.99	-0.000
234.21	-0.000
234.42	-0.000
234.63	-0.000
234.85	-0.000
235.06	-0.000
235.27	-0.000
235.49	-0.000
235.70	-0.000
235.91	-0.000
236.13	-0.000
236.34	-0.000
236.56	-0.000
236.77	-0.000
236.98	-0.000
237.20	-0.000
237.41	-0.000
237.62	-0.000
237.84	-0.000
238.05	-0.000
238.26	-0.000
238.48	-0.000
238.69	-0.000
238.91	-0.000
239.12	-0.000
239.33	-0.000
239.55	-0.000
239.76	-0.000
239.97	-0.000
240.19	-0.000
240.40	-0.000
240.61	-0.000
240.83	-0.000
241.04	-0.000
241.25	-0.000
241.47	-0.000
241.68	-0.000
241.89	-0.000
242.11	-0.000
242.32	-0.000
242.53	-0.000
242.75	-0.000
242.96	-0.000
243.17	-0.000
243.39	-0.000
243.60	-0.000
243.81	-0.000
244.03	-0.000
244.24	-0.000
244.45	-0.000
244.67	-0.000
244.88	-0.000
245.09	-0.000
245.31	-0.000
245.52	-0.000
245.73	-0.000
245.95	-0.000
246.16	-0.000
246.37	-0.000
246.59	-0.000
246.80	-0.000
247.01	-0.000
247.23	-0.000
247.44	-0.000
247.65	-0.000
247.87	-0.000
248.08	-0.000
248.29	-0.000
248.51	-0.000
248.72	-0.000
248.93	-0.000
249.15	-0.000
249.36	-0.000
249.57	-0.000
249.78	-0.000
250.00	-0.000
250.21	-0.000
250.42	-0.000
250.64	-0.000
250.85	-0.000
251.06	-0.000
251.28	-0.000
251.49	-0.000
251.70	-0.000
251.92	-0.000
252.13	-0.000
252.34	-0.000
252.55	-0.000
252.77	-0.000
252.98	-0.000
253.19	-0.000
253.41	-0.000
253.62	-0.000
253.83	-0.000
254.05	-0.000
254.26	-0.000
254.47	-0.000
254.68	-0.000
254.90	-0.000
255.11	-0.000
255.32	-0.000
255.54	-0.000
255.75	-0.000
255.96	-0.000
256.17	-0.000
256.39	-0.000
256.60	-0.000
256.81	-0.000
257.03	-0.000
257.24	-0.000
257.45	-0.000
257.66	-0.000
257.88	-0.000
258.09	-0.000
258.30	-0.000
258.51	-0.000
258.73	-0.000
258.94	-0.000
259.15	-0.000
259.37	-0.000
259.58	-0.000
259.79	-0.000
260.00	-0.000
260.22	-0.000
260.43	-0.000
260.64	-0.000
260.85	-0.000
261.07	-0.000
261.28	-0.000
261.49	-0.000
261.71	-0.000
261.92	-0.000
262.13	-0.000
262.34	-0.000
262.56	-0.000
262.77	-0.000
262.98	-0.000
263.19	-0.000
263.41	-0.000
263.62	-0.000
263.83	-0.000
264.04	-0.000
264.26	-0.000
264.47	-0.000
264.68	-0.000
264.89	-0.000
265.11	-0.000
265.32	-0.000
265.53	-0.000
265.74	-0.000
265.96	-0.000
266.17	-0.000
266.38	-0.000
266.59	-0.000
266.81	-0.000
267.02	-0.000
267.23	-0.000
267.44	-0.000
267.65	-0.000
267.87	-0.000
268.08	-0.000
268.29	-0.000
268.50	-0.000
268.72	-0.000
268.93	-0.000
269.14	-0.000
269.35	-0.000
269.57	-0.000
269.78	-0.000
269.99	-0.000
270.20	-0.000
270.41	-0.000
270.63	-0.000
270.84	-0.000
271.05	-0.000
271.26	-0.000
271.48	-0.000
271.69	-0.000
271.90	-0.000
272.11	-0.000
272.32	-0.000
272.54	-0.000
272.75	-0.000
272.96	-0.000
273.17	-0.000
273.39	-0.000
273.60	-0.000
273.81	-0.000
274.02	-0.000
274.23	-0.000
274.45	-0.000
274.66	-0.000
274.87	-0.000
275.08	-0.000
275.29	-0.000
275.51	-0.000
275.72	-0.000
275.93	-0.000
276.14	-0.000
276.35	-0.000
276.57	-0.000
276.78	-0.000
276.99	-0.000
277.20	-0.000
277.41	-0.000
277.63	-0.000
277.84	-0.000
278.05	-0.000
278.26	-0.000
278.47	-0.000
278.69	-0.000
278.90	-0.000
279.11	-0.000
279.32	-0.000
279.53	-0.000
279.74	-0.000
279.96	-0.000
280.17	-0.000
280.38	-0.000
280.59	-0.000
280.80	-0.000
281.02	-0.000
281.23	-0.000
281.44	-0.000
281.65	-0.000
281.86	-0.000
282.07	-0.000
282.29	-0.000
282.50	-0.000
282.71	-0.000
282.92	-0.000
283.13	-0.000
283.35	-0.000
283.56	-0.000
283.77	-0.000
283.98	-0.000
284.19	-0.000
284.40	-0.000
284.62	-0.000
284.83	-0.000
285.04	-0.000
285.25	-0.000
285.46	-0.000
285.67	-0.000
285.88	-0.000
286.10	-0.000
286.31	-0.000
286.52	-0.000
286.73	-0.000
286.94	-0.000
287.15	-0.000
287.37	-0.000
287.58	-0.000
287.79	-0.000
288.00	-0.000
288.21	-0.000
288.42	-0.000
288.63	-0.000
288.85	-0.000
289.06	-0.000
289.27	-0.000
289.48	-0.000
289.69	-0.000
289.90	-0.000
290.11	-0.000
290.33	-0.000
290.54	-0.000
290.75	-0.000
290.96	-0.000
291.17	-0.000
291.38	-0.000
291.59	-0.000
291.81	-0.000
292.02	-0.000
292.23	-0.000
292.44	-0.000
292.65	-0.000
292.86	-0.000
293.07	-0.000
293.28	2.843
293.50	-0.000
293.71	-0.000
293.92	-0.000
294.13	-0.000
294.34	-0.000
294.55	-0.000
294.76	-0.000
294.97	-0.000
295.19	-0.000
295.40	-0.000
295.61	-0.000
295.82	-0.000
296.03	2.872
296.24	-0.000
296.45	1.999
296.66	1.702
296.87	1.728
297.09	1.774
297.30	1.928
297.51	1.642
297.72	1.623
297.93	1.693
298.14	1.653
298.35	1.628
298.56	1.603
298.77	1.696
298.99	1.679
299.20	1.655
299.41	1.642
299.62	1.597
299.83	1.593
300.04	1.537
300.25	1.528
300.46	1.561
300.67	1.533
300.88	1.494
301.10	1.498
301.31	1.554
301.52	1.501
301.73	1.453
301.94	1.458
302.15	1.471
302.36	1.432
302.57	1.379
302.78	1.385
302.99	1.423
303.20	1.438
303.41	1.359
303.63	1.350
303.84	1.356
304.05	1.355
304.26	1.300
304.47	1.301
304.68	1.301
304.89	1.297
305.10	1.259
305.31	1.246
305.52	1.287
305.73	1.282
305.94	1.242
306.15	1.233
306.37	1.248
306.58	1.257
306.79	1.231
307.00	1.255
307.21	1.286
307.42	1.283
307.63	1.252
307.84	1.219
308.05	1.252
308.26	1.253
308.47	1.237
308.68	1.234
308.89	1.233
309.10	1.231
309.31	1.192
309.52	1.184
309.73	1.195
309.95	1.191
310.16	1.165
310.37	1.155
310.58	1.170
310.79	1.165
311.00	1.163
311.21	1.164
311.42	1.165
311.63	1.161
311.84	1.147
312.05	1.145
312.26	1.164
312.47	1.176
312.68	1.154
312.89	1.139
313.10	1.147
313.31	1.121
313.52	1.125
313.73	1.126
313.94	1.127
314.15	1.110
314.36	1.092
314.57	1.086
314.78	1.074
314.99	1.068
315.21	1.059
315.42	1.062
315.63	1.073
315.84	1.050
316.05	1.038
316.26	1.046
316.47	1.062
316.68	1.059
316.89	1.041
317.10	1.059
317.31	1.065
317.52	1.066
317.73	1.047
317.94	1.046
318.15	1.087
318.36	1.085
318.57	1.070
318.78	1.059
318.99	1.091
319.20	1.088
319.41	1.056
319.62	1.057
319.83	1.069
320.04	1.064
320.25	1.053
320.46	1.021
320.67	1.025
320.88	1.020
321.09	1.007
321.30	0.992
321.51	1.007
321.72	1.006
321.93	0.989
322.14	0.983
322.35	1.008
322.56	1.010
322.77	1.000
322.98	1.012
323.19	1.019
323.40	1.026
323.61	1.004
323.82	1.000
324.03	1.004
324.24	1.003
324.45	0.990
324.66	0.973
324.87	0.969
325.08	0.968
325.29	0.949
325.50	0.946
325.71	0.951
325.92	0.960
326.13	0.946
326.34	0.946
326.55	0.954
326.76	0.953
326.97	0.943
327.18	0.937
327.39	0.961
327.60	0.962
327.80	0.958
328.01	0.957
328.22	0.956
328.43	0.959
328.64	0.950
328.85	0.952
329.06	0.953
329.27	0.952
329.48	0.949
329.69	0.931
329.90	0.940
330.11	0.933
330.32	0.927
330.53	0.921
330.74	0.921
330.95	0.917
331.16	0.905
331.37	0.913
331.58	0.912
331.79	0.910
332.00	0.902
332.21	0.896
332.42	0.899
332.63	0.891
332.83	0.886
333.04	0.887
333.25	0.900
333.46	0.898
333.67	0.886
333.88	0.889
334.09	0.898
334.30	0.894
334.51	0.886
334.72	0.881
334.93	0.884
335.14	0.884
335.35	0.878
335.56	0.874
335.77	0.882
335.98	0.880
336.18	0.875
336.39	0.867
336.60	0.871
336.81	0.870
337.02	0.870
337.23	0.875
337.44	0.877
337.65	0.878
337.86	0.869
338.07	0.864
338.28	0.868
338.49	0.865
338.70	0.860
338.91	0.868
339.11	0.874
339.32	0.870
339.53	0.858
339.74	0.855
339.95	0.852
340.16	0.849
340.37	0.843
340.58	0.841
340.79	0.845
341.00	0.845
341.21	0.834
341.41	0.834
341.62	0.835
341.83	0.835
342.04	0.831
342.25	0.842
342.46	0.847
342.67	0.844
342.88	0.839
343.09	0.837
343.30	0.844
343.50	0.848
343.71	0.839
343.92	0.839
344.13	0.844
344.34	0.843
344.55	0.827
344.76	0.826
344.97	0.831
345.18	0.828
345.38	0.826
345.59	0.820
345.80	0.820
346.01	0.817
346.22	0.811
346.43	0.806
346.64	0.814
346.85	0.813
347.06	0.806
347.26	0.805
347.47	0.809
347.68	0.805
347.89	0.802
348.10	0.796
348.31	0.803
348.52	0.803
348.73	0.800
348.93	0.797
349.14	0.800
349.35	0.799
349.56	0.794
349.77	0.789
349.98	0.795
350.19	0.793
350.39	0.789
350.60	0.785
350.81	0.800
351.02	0.799
351.23	0.795
351.44	0.797
351.65	0.800
351.86	0.799
352.06	0.797
352.27	0.797
352.48	0.798
352.69	0.797
352.90	0.792
353.11	0.779
353.31	0.785
353.52	0.780
353.73	0.772
353.94	0.773
354.15	0.778
354.36	0.778
354.57	0.770
354.77	0.772
354.98	0.772
355.19	0.771
355.40	0.770
355.61	0.776
355.82	0.780
356.02	0.780
356.23	0.773
356.44	0.775
356.65	0.778
356.86	0.778
357.07	0.772
357.27	0.776
357.48	0.778
357.69	0.773
357.90	0.759
358.11	0.756
358.32	0.759
358.52	0.762
358.73	0.753
358.94	0.755
359.15	0.760
359.36	0.761
359.56	0.755
359.77	0.752
359.98	0.759
360.19	0.759
360.40	0.756
360.61	0.757
360.81	0.756
361.02	0.756
361.23	0.748
361.44	0.746
361.65	0.747
361.85	0.748
362.06	0.746
362.27	0.749
362.48	0.749
362.69	0.750
362.89	0.744
363.10	0.745
363.31	0.750
363.52	0.753
363.73	0.748
363.93	0.748
364.14	0.749
364.35	0.751
364.56	0.741
364.77	0.742
364.97	0.745
365.18	0.746
365.39	0.741
365.60	0.737
365.81	0.737
366.01	0.737
366.22	0.733
366.43	0.732
366.64	0.733
366.84	0.738
367.05	0.736
367.26	0.735
367.47	0.737
367.68	0.737
367.88	0.735
368.09	0.733
368.30	0.735
368.51	0.736
368.71	0.735
368.92	0.740
369.13	0.737
369.34	0.736
369.55	0.736
369.75	0.736
369.96	0.743
370.17	0.742
370.38	0.739
370.58	0.738
370.79	0.743
371.00	0.741
371.21	0.732
371.41	0.738
371.62	0.741
371.83	0.738
372.04	0.736
372.24	0.729
372.45	0.731
372.66	0.731
372.87	0.729
373.07	0.726
373.28	0.727
373.49	0.731
373.70	0.722
373.90	0.721
374.11	0.729
374.32	0.728
374.53	0.728
374.73	0.728
374.94	0.730
375.15	0.731
375.36	0.728
375.56	0.737
375.77	0.737
375.98	0.737
376.19	0.734
376.39	0.727
376.60	0.731
376.81	0.731
377.02	0.729
377.22	0.728
377.43	0.728
377.64	0.727
377.84	0.719
378.05	0.722
378.26	0.728
378.47	0.728
378.67	0.726
378.88	0.722
379.09	0.724
379.30	0.724
379.50	0.722
379.71	0.725
379.92	0.727
380.12	0.727
380.33	0.720
380.54	0.716
380.75	0.723
380.95	0.723
381.16	0.722
381.37	0.721
381.57	0.723
381.78	0.722
381.99	0.721
382.20	0.721
382.40	0.724
382.61	0.724
382.82	0.720
383.02	0.714
383.23	0.717
383.44	0.716
383.64	0.716
383.85	0.718
384.06	0.722
384.27	0.720
384.47	0.718
384.68	0.718
384.89	0.724
385.09	0.724
385.30	0.723
385.51	0.722
385.71	0.725
385.92	0.726
386.13	0.725
386.33	0.726
386.54	0.727
386.75	0.727
386.95	0.723
387.16	0.719
387.37	0.722
387.58	0.721
387.78	0.720
387.99	0.718
388.20	0.720
388.40	0.717
388.61	0.713
388.82	0.716
389.02	0.718
389.23	0.719
389.44	0.717
389.64	0.717
389.85	0.728
390.06	0.728
390.26	0.728
390.47	0.727
390.68	0.729
390.88	0.728
391.09	0.723
391.30	0.723
391.50	0.722
391.71	0.722
391.92	0.720
392.12	0.712
392.33	0.713
392.53	0.714
392.74	0.715
392.95	0.714
393.15	0.717
393.36	0.719
393.57	0.717
393.77	0.720
393.98	0.721
394.19	0.721
394.39	0.720
394.60	0.722
394.81	0.723
395.01	0.721
395.22	0.721
395.43	0.722
395.63	0.726
395.84	0.727
396.04	0.724
396.25	0.725
396.46	0.727
396.66	0.726
396.87	0.723
397.08	0.721
397.28	0.723
397.49	0.724
397.69	0.720
397.90	0.715
398.11	0.716
398.31	0.717
398.52	0.714
398.73	0.715
398.93	0.714
399.14	0.713
399.34	0.712
399.55	0.713
399.76	0.713
399.96	0.714
400.17	0.712
400.37	0.711
400.58	0.717
400.79	0.719
400.99	0.717
401.20	0.723
401.41	0.725
401.61	0.726
401.82	0.731
402.02	0.731
402.23	0.732
402.44	0.732
402.64	0.732
402.85	0.727
403.05	0.726
403.26	0.725
403.47	0.719
403.67	0.718
403.88	0.718
404.08	0.712
404.29	0.710
404.50	0.709
404.70	0.710
404.91	0.709
405.11	0.707
405.32	0.707
405.52	0.706
405.73	0.706
405.94	0.705
406.14	0.708
406.35	0.710
406.55	0.710
406.76	0.708
406.97	0.709
407.17	0.712
407.38	0.711
407.58	0.710
407.79	0.712
407.99	0.715
408.20	0.715
408.41	0.712
408.61	0.709
408.82	0.710
409.02	0.710
409.23	0.708
409.43	0.706
409.64	0.707
409.84	0.707
410.05	0.704
410.26	0.702
410.46	0.702
410.67	0.701
410.87	0.703
411.08	0.705
411.28	0.706
411.49	0.708
411.69	0.706
411.90	0.708
412.11	0.709
412.31	0.710
412.52	0.709
412.72	0.709
412.93	0.710
413.13	0.709
413.34	0.706
413.54	0.708
413.75	0.710
413.95	0.709
414.16	0.705
414.37	0.708
414.57	0.708
414.78	0.711
414.98	0.709
415.19	0.710
415.39	0.707
415.60	0.709
415.80	0.708
416.01	0.706
416.21	0.708
416.42	0.708
416.62	0.703
416.83	0.703
417.03	0.703
417.24	0.702
417.44	0.699
417.65	0.699
417.86	0.700
418.06	0.698
418.27	0.697
418.47	0.698
418.68	0.699
418.88	0.700
419.09	0.699
419.29	0.700
419.50	0.699
419.70	0.700
419.91	0.699
420.11	0.696
420.32	0.698
420.52	0.697
420.73	0.696
420.93	0.697
421.14	0.698
421.34	0.696
421.55	0.692
421.75	0.692
421.96	0.693
422.16	0.693
422.37	0.692
422.57	0.689
422.78	0.691
422.98	0.687
423.19	0.685
423.39	0.683
423.60	0.687
423.80	0.688
424.01	0.687
424.21	0.689
424.42	0.690
424.62	0.690
424.83	0.689
425.03	0.689
425.23	0.691
425.44	0.691
425.64	0.691
425.85	0.690
426.05	0.691
426.26	0.691
426.46	0.688
426.67	0.687
426.87	0.692
427.08	0.693
427.28	0.691
427.49	0.693
427.69	0.693
427.90	0.692
428.10	0.689
428.31	0.690
428.51	0.691
428.71	0.690
428.92	0.691
429.12	0.688
429.33	0.688
429.53	0.692
429.74	0.696
429.94	0.696
430.15	0.696
430.35	0.696
430.56	0.693
430.76	0.693
430.96	0.693
431.17	0.691
431.37	0.688
431.58	0.686
431.78	0.683
431.99	0.676
432.19	0.678
432.40	0.679
432.60	0.680
432.80	0.682
433.01	0.680
433.21	0.680
433.42	0.682
433.62	0.683
433.83	0.683
434.03	0.685
434.23	0.688
434.44	0.687
434.64	0.684
434.85	0.688
435.05	0.690
435.26	0.690
435.46	0.689
435.66	0.689
435.87	0.688
436.07	0.688
436.28	0.684
436.48	0.681
436.69	0.680
436.89	0.680
437.09	0.675
437.30	0.674
437.50	0.673
437.71	0.685
437.91	0.683
438.11	0.685
438.32	0.689
438.52	0.689
438.73	0.688
438.93	0.687
439.13	0.686
439.34	0.690
439.54	0.688
439.75	0.689
439.95	0.679
440.15	0.683
440.36	0.682
440.56	0.679
440.77	0.679
440.97	0.679
441.17	0.677
441.38	0.678
441.58	0.676
441.79	0.675
441.99	0.673
442.19	0.672
442.40	0.670
442.60	0.669
442.81	0.667
443.01	0.668
443.21	0.669
443.42	0.669
443.62	0.667
443.82	0.667
444.03	0.668
444.23	0.668
444.44	0.669
444.64	0.668
444.84	0.669
445.05	0.670
445.25	0.668
445.45	0.667
445.66	0.669
445.86	0.668
446.06	0.669
446.27	0.668
446.47	0.672
446.68	0.670
446.88	0.669
447.08	0.668
447.29	0.670
447.49	0.669
447.69	0.669
447.90	0.668
448.10	0.671
448.30	0.669
448.51	0.670
448.71	0.667
448.91	0.669
449.12	0.668
449.32	0.670
449.52	0.669
449.73	0.672
449.93	0.672
450.14	0.672
450.34	0.672
450.54	0.674
450.75	0.672
450.95	0.671
451.15	0.670
451.36	0.673
451.56	0.670
451.76	0.669
451.97	0.666
452.17	0.666
452.37	0.664
452.58	0.661
452.78	0.661
452.98	0.663
453.19	0.663
453.39	0.664
453.59	0.662
453.79	0.663
454.00	0.663
454.20	0.663
454.40	0.663
454.61	0.665
454.81	0.665
455.01	0.663
455.22	0.664
455.42	0.666
455.62	0.662
455.83	0.662
456.03	0.665
456.23	0.666
456.44	0.666
456.64	0.665
456.84	0.665
457.04	0.666
457.25	0.665
457.45	0.662
457.65	0.660
457.86	0.661
458.06	0.660
458.26	0.656
458.47	0.655
458.67	0.657
458.87	0.656
459.07	0.654
459.28	0.656
459.48	0.659
459.68	0.659
459.89	0.659
460.09	0.657
460.29	0.658
460.49	0.659
460.70	0.658
460.90	0.658
461.10	0.658
461.31	0.658
461.51	0.655
461.71	0.656
461.91	0.657
462.12	0.657
462.32	0.656
462.52	0.657
462.72	0.659
462.93	0.660
463.13	0.658
463.33	0.660
463.53	0.661
463.74	0.660
463.94	0.656
464.14	0.657
464.35	0.658
464.55	0.658
464.75	0.657
464.95	0.654
465.16	0.656
465.36	0.655
465.56	0.654
465.76	0.653
465.97	0.654
466.17	0.654
466.37	0.652
466.57	0.653
466.78	0.654
466.98	0.654
467.18	0.651
467.38	0.650
467.59	0.652
467.79	0.653
467.99	0.652
468.19	0.653
468.39	0.656
468.60	0.656
468.80	0.654
469.00	0.656
469.20	0.657
469.41	0.658
469.61	0.657
469.81	0.657
470.01	0.657
470.22	0.657
470.42	0.655
470.62	0.653
470.82	0.654
471.02	0.654
471.23	0.651
471.43	0.652
471.63	0.654
471.83	0.654
472.04	0.652
472.24	0.651
472.44	0.656
472.64	0.656
472.84	0.655
473.05	0.654
473.25	0.657
473.45	0.656
473.65	0.654
473.85	0.655
474.06	0.656
474.26	0.656
474.46	0.657
474.66	0.653
474.86	0.653
475.07	0.653
475.27	0.651
475.47	0.649
475.67	0.649
475.87	0.651
476.08	0.648
476.28	0.649
476.48	0.651
476.68	0.649
476.88	0.647
477.09	0.649
477.29	0.651
477.49	0.651
477.69	0.650
477.89	0.650
478.09	0.649
478.30	0.651
478.50	0.648
478.70	0.648
478.90	0.648
479.10	0.651
479.31	0.652
479.51	0.650
479.71	0.651
479.91	0.652
480.11	0.651
480.31	0.651
480.52	0.650
480.72	0.650
480.92	0.649
481.12	0.648
481.32	0.646
481.52	0.644
481.72	0.644
481.93	0.647
482.13	0.647
482.33	0.647
482.53	0.645
482.73	0.646
482.93	0.647
483.14	0.647
483.34	0.647
483.54	0.647
483.74	0.647
483.94	0.646
484.14	0.642
484.34	0.642
484.55	0.643
484.75	0.643
484.95	0.641
485.15	0.640
485.35	0.640
485.55	0.640
485.75	0.638
485.96	0.638
486.16	0.639
486.36	0.638
486.56	0.636
486.76	0.636
486.96	0.636
487.16	0.635
487.36	0.633
487.57	0.633
487.77	0.634
487.97	0.634
488.17	0.633
488.37	0.632
488.57	0.632
488.77	0.633
488.97	0.632
489.18	0.631
489.38	0.634
489.58	0.634
489.78	0.634
489.98	0.633
490.18	0.633
490.38	0.634
490.58	0.633
490.78	0.633
490.98	0.635
491.19	0.635
491.39	0.635
491.59	0.634
491.79	0.636
491.99	0.636
492.19	0.636
492.39	0.639
492.59	0.639
492.79	0.641
492.99	0.641
493.20	0.641
493.40	0.641
493.60	0.643
493.80	0.641
494.00	0.639
494.20	0.640
494.40	0.639
494.60	0.637
494.80	0.641
495.00	0.640
495.20	0.638
495.40	0.637
495.61	0.639
495.81	0.639
496.01	0.642
496.21	0.643
496.41	0.642
496.61	0.642
496.81	0.641
497.01	0.636
497.21	0.636
497.41	0.636
497.61	0.636
497.81	0.633
498.01	0.633
498.21	0.631
498.41	0.628
498.61	0.629
498.82	0.630
499.02	0.632
499.22	0.633
499.42	0.632
499.62	0.633
499.82	0.634
500.02	0.635
500.22	0.634
500.42	0.636
500.62	0.637
500.82	0.637
501.02	0.635
501.22	0.635
501.42	0.635
501.62	0.637
501.82	0.637
502.02	0.637
502.22	0.637
502.42	0.638
502.62	0.636
502.82	0.636
503.02	0.637
503.22	0.637
503.42	0.635
503.63	0.636
503.83	0.634
504.03	0.632
504.23	0.630
504.43	0.631
504.63	0.632
504.83	0.632
505.03	0.631
505.23	0.632
505.43	0.634
505.63	0.634
505.83	0.634
506.03	0.635
506.23	0.637
506.43	0.638
506.63	0.636
506.83	0.635
507.03	0.637
507.23	0.637
507.43	0.635
507.63	0.636
507.83	0.636
508.03	0.636
508.23	0.635
508.43	0.634
508.63	0.636
508.83	0.637
509.03	0.638
509.23	0.637
509.43	0.638
509.63	0.638
509.83	0.636
510.03	0.639
510.23	0.640
510.43	0.641
510.63	0.641
510.83	0.641
511.03	0.642
511.23	0.640
511.43	0.640
511.63	0.641
511.83	0.643
512.03	0.643
512.22	0.640
512.42	0.640
512.62	0.640
512.82	0.640
513.02	0.640
513.22	0.639
513.42	0.641
513.62	0.644
513.82	0.642
514.02	0.642
514.22	0.643
514.42	0.643
514.62	0.643
514.82	0.643
515.02	0.645
515.22	0.648
515.42	0.648
515.62	0.650
515.82	0.648
516.02	0.649
516.22	0.650
516.42	0.651
516.62	0.653
516.82	0.654
517.01	0.653
517.21	0.652
517.41	0.656
517.61	0.656
517.81	0.652
518.01	0.651
518.21	0.651
518.41	0.649
518.61	0.648
518.81	0.648
519.01	0.648
519.21	0.649
519.41	0.648
519.61	0.642
519.81	0.645
520.00	0.646
520.20	0.646
520.40	0.649
520.60	0.650
520.80	0.649
521.00	0.649
521.20	0.651
521.40	0.655
521.60	0.656
521.80	0.655
522.00	0.654
522.20	0.656
522.39	0.656
522.59	0.653
522.79	0.654
522.99	0.657
523.19	0.655
523.39	0.653
523.59	0.651
523.79	0.654
523.99	0.656
524.19	0.656
524.38	0.655
524.58	0.656
524.78	0.656
524.98	0.655
525.18	0.656
525.38	0.657
525.58	0.658
525.78	0.656
525.98	0.654
526.18	0.654
526.37	0.653
526.57	0.655
526.77	0.655
526.97	0.655
527.17	0.655
527.37	0.652
527.57	0.654
527.77	0.656
527.96	0.656
528.16	0.655
528.36	0.656
528.56	0.658
528.76	0.655
528.96	0.655
529.16	0.656
529.36	0.659
529.55	0.659
529.75	0.655
529.95	0.656
530.15	0.657
530.35	0.659
530.55	0.657
530.75	0.658
530.94	0.660
531.14	0.660
531.34	0.659
531.54	0.657
531.74	0.660
531.94	0.664
532.13	0.662
532.33	0.664
532.53	0.662
532.73	0.662
532.93	0.660
533.13	0.661
533.33	0.661
533.52	0.661
533.72	0.664
533.92	0.662
534.12	0.659
534.32	0.660
534.52	0.658
534.71	0.660
534.91	0.663
535.11	0.664
535.31	0.662
535.51	0.664
535.71	0.665
535.90	0.662
536.10	0.664
536.30	0.666
536.50	0.666
536.70	0.666
536.89	0.664
537.09	0.663
537.29	0.665
537.49	0.666
537.69	0.664
537.89	0.665
538.08	0.665
538.28	0.663
538.48	0.663
538.68	0.664
538.88	0.666
539.07	0.666
539.27	0.664
539.47	0.663
539.67	0.663
539.87	0.664
540.06	0.662
540.26	0.663
540.46	0.665
540.66	0.663
540.86	0.661
541.05	0.661
541.25	0.663
541.45	0.662
541.65	0.661
541.84	0.663
542.04	0.664
542.24	0.665
542.44	0.664
542.64	0.665
542.83	0.667
543.03	0.668
543.23	0.666
543.43	0.666
543.62	0.667
543.82	0.667
544.02	0.666
544.22	0.666
544.42	0.669
544.61	0.670
544.81	0.667
545.01	0.665
545.21	0.667
545.40	0.668
545.60	0.666
545.80	0.670
546.00	0.670
546.19	0.669
546.39	0.667
546.59	0.665
546.79	0.666
546.98	0.667
547.18	0.667
547.38	0.667
547.58	0.670
547.77	0.670
547.97	0.666
548.17	0.668
548.37	0.668
548.56	0.669
548.76	0.668
548.96	0.670
549.16	0.672
549.35	0.671
549.55	0.669
549.75	0.670
549.95	0.673
550.14	0.673
550.34	0.671
550.54	0.676
550.73	0.680
550.93	0.680
551.13	0.677
551.33	0.676
551.52	0.677
551.72	0.677
551.92	0.675
552.12	0.676
552.31	0.677
552.51	0.677
552.71	0.672
552.90	0.673
553.10	0.673
553.30	0.673
553.50	0.672
553.69	0.674
553.89	0.674
554.09	0.674
554.28	0.671
554.48	0.672
554.68	0.674
554.87	0.673
555.07	0.669
555.27	0.670
555.47	0.671
555.66	0.672
555.86	0.671
556.06	0.673
556.25	0.675
556.45	0.682
556.65	0.680
556.84	0.684
557.04	0.687
557.24	0.689
557.43	0.688
557.63	0.691
557.83	0.693
558.02	0.694
558.22	0.698
558.42	0.698
558.61	0.691
558.81	0.693
559.01	0.689
559.21	0.689
559.40	0.690
559.60	0.690
559.80	0.686
559.99	0.687
560.19	0.689
560.39	0.683
560.58	0.681
560.78	0.682
560.97	0.685
561.17	0.683
561.37	0.681
561.56	0.682
561.76	0.684
561.96	0.683
562.15	0.681
562.35	0.683
562.55	0.684
562.74	0.683
562.94	0.682
563.14	0.679
563.33	0.680
563.53	0.680
563.73	0.678
563.92	0.680
564.12	0.682
564.31	0.685
564.51	0.683
564.71	0.685
564.90	0.688
565.10	0.689
565.30	0.693
565.49	0.694
565.69	0.695
565.89	0.695
566.08	0.693
566.28	0.694
566.47	0.696
566.67	0.694
566.87	0.691
567.06	0.692
567.26	0.698
567.46	0.694
567.65	0.693
567.85	0.695
568.04	0.698
568.24	0.697
568.44	0.695
568.63	0.693
568.83	0.694
569.02	0.693
569.22	0.689
569.42	0.685
569.61	0.687
569.81	0.685
570.00	0.683
570.20	0.684
570.40	0.686
570.59	0.686
570.79	0.684
570.98	0.682
571.18	0.683
571.38	0.684
571.57	0.681
571.77	0.679
571.96	0.682
572.16	0.680
572.35	0.674
572.55	0.675
572.75	0.673
572.94	0.674
573.14	0.672
573.33	0.672
573.53	0.672
573.73	0.671
573.92	0.669
574.12	0.667
574.31	0.670
574.51	0.671
574.70	0.668
574.90	0.669
575.09	0.671
575.29	0.672
575.49	0.669
575.68	0.670
575.88	0.671
576.07	0.672
576.27	0.670
576.46	0.669
576.66	0.668
576.86	0.668
577.05	0.665
577.25	0.663
577.44	0.664
577.64	0.664
577.83	0.663
578.03	0.664
578.22	0.664
578.42	0.663
578.61	0.661
578.81	0.662
579.00	0.662
579.20	0.662
579.40	0.662
579.59	0.660
579.79	0.661
579.98	0.660
580.18	0.660
580.37	0.659
580.57	0.661
580.76	0.666
580.96	0.664
581.15	0.665
581.35	0.667
581.54	0.667
581.74	0.666
581.93	0.668
582.13	0.668
582.32	0.666
582.52	0.663
582.71	0.663
582.91	0.659
583.10	0.659
583.30	0.658
583.49	0.657
583.69	0.660
583.88	0.661
584.08	0.660
584.27	0.662
584.47	0.666
584.66	0.667
584.86	0.666
585.05	0.669
585.25	0.671
585.44	0.671
585.64	0.670
585.83	0.666
586.03	0.667
586.22	0.665
586.42	0.661
586.61	0.662
586.81	0.664
587.00	0.663
587.20	0.661
587.39	0.661
587.59	0.662
587.78	0.663
587.98	0.664
588.17	0.665
588.37	0.667
588.56	0.669
588.76	0.665
588.95	0.665
589.15	0.670
589.34	0.673
589.54	0.672
589.73	0.673
589.92	0.676
590.12	0.676
590.31	0.674
590.51	0.680
590.70	0.682
590.90	0.682
591.09	0.680
591.29	0.679
591.48	0.678
591.68	0.678
591.87	0.677
592.06	0.676
592.26	0.679
592.45	0.677
592.65	0.671
592.84	0.670
593.04	0.673
593.23	0.675
593.43	0.672
593.62	0.672
593.81	0.672
594.01	0.671
594.20	0.669
594.40	0.667
594.59	0.669
594.79	0.669
594.98	0.668
595.17	0.668
595.37	0.668
595.56	0.670
595.76	0.670
595.95	0.672
596.14	0.675
596.34	0.677
596.53	0.676
596.73	0.678
596.92	0.679
597.12	0.682
597.31	0.682
597.50	0.681
597.70	0.683
597.89	0.683
598.09	0.679
598.28	0.680
598.47	0.682
598.67	0.681
598.86	0.677
599.06	0.679
599.25	0.679
599.44	0.678
599.64	0.675
599.83	0.672
600.03	0.675
600.22	0.675
600.41	0.675
600.61	0.672
600.80	0.674
601.00	0.675
601.19	0.671
601.38	0.669
601.58	0.671
601.77	0.673
601.96	0.675
602.16	0.675
602.35	0.684
602.55	0.682
602.74	0.683
602.93	0.685
603.13	0.690
603.32	0.692
603.51	0.691
603.71	0.695
603.90	0.697
604.09	0.698
604.29	0.695
604.48	0.689
604.68	0.691
604.87	0.689
605.06	0.685
605.26	0.682
605.45	0.682
605.64	0.681
605.84	0.676
606.03	0.674
606.22	0.673
606.42	0.672
606.61	0.668
606.80	0.669
607.00	0.671
607.19	0.671
607.38	0.669
607.58	0.671
607.77	0.673
607.96	0.672
608.16	0.672
608.35	0.676
608.54	0.679
608.74	0.681
608.93	0.686
609.12	0.689
609.32	0.691
609.51	0.694
609.70	0.694
609.90	0.696
610.09	0.701
610.28	0.706
610.48	0.699
610.67	0.701
610.86	0.702
611.06	0.697
611.25	0.694
611.44	0.695
611.64	0.695
611.83	0.698
612.02	0.695
612.21	0.693
612.41	0.692
612.60	0.691
612.79	0.687
612.99	0.688
613.18	0.689
613.37	0.686
613.57	0.684
613.76	0.685
613.95	0.682
614.14	0.682
614.34	0.679
614.53	0.680
614.72	0.683
614.92	0.683
615.11	0.680
615.30	0.677
615.49	0.678
615.69	0.681
615.88	0.677
616.07	0.678
616.26	0.680
616.46	0.681
616.65	0.678
616.84	0.676
617.04	0.677
617.23	0.680
617.42	0.681
617.61	0.685
617.81	0.685
618.00	0.687
618.19	0.686
618.38	0.690
618.58	0.694
618.77	0.695
618.96	0.695
619.15	0.697
619.35	0.698
619.54	0.698
619.73	0.694
619.92	0.696
620.12	0.701
620.31	0.701
620.50	0.696
620.69	0.696
620.89	0.699
621.08	0.700
621.27	0.700
621.46	0.699
621.66	0.704
621.85	0.704
622.04	0.701
622.23	0.702
622.43	0.702
622.62	0.701
622.81	0.701
623.00	0.699
623.19	0.703
623.39	0.702
623.58	0.699
623.77	0.697
623.96	0.699
624.16	0.699
624.35	0.694
624.54	0.697
624.73	0.701
624.92	0.698
625.12	0.697
625.31	0.697
625.50	0.700
625.69	0.700
625.88	0.697
626.08	0.697
626.27	0.698
626.46	0.698
626.65	0.695
626.84	0.695
627.04	0.699
627.23	0.699
627.42	0.695
627.61	0.697
627.80	0.700
628.00	0.701
628.19	0.700
628.38	0.703
628.57	0.705
628.76	0.705
628.96	0.702
629.15	0.703
629.34	0.706
629.53	0.706
629.72	0.700
629.91	0.701
630.11	0.704
630.30	0.704
630.49	0.706
630.68	0.707
630.87	0.710
631.06	0.711
631.26	0.706
631.45	0.708
631.64	0.715
631.83	0.718
632.02	0.715
632.21	0.716
632.41	0.723
632.60	0.717
632.79	0.717
632.98	0.717
633.17	0.717
633.36	0.719
633.55	0.715
633.75	0.711
633.94	0.713
634.13	0.712
634.32	0.710
634.51	0.703
634.70	0.705
634.89	0.705
635.09	0.701
635.28	0.702
635.47	0.704
635.66	0.707
635.85	0.703
636.04	0.704
636.23	0.709
636.43	0.710
636.62	0.710
636.81	0.709
637.00	0.710
637.19	0.714
637.38	0.710
637.57	0.709
637.76	0.711
637.95	0.712
638.15	0.708
638.34	0.704
638.53	0.706
638.72	0.707
638.91	0.705
639.10	0.703
639.29	0.703
639.48	0.704
639.67	0.705
639.87	0.704
640.06	0.710
640.25	0.709
640.44	0.711
640.63	0.711
640.82	0.714
641.01	0.714
641.20	0.714
641.39	0.717
641.58	0.719
641.78	0.717
641.97	0.713
642.16	0.725
642.35	0.727
642.54	0.725
642.73	0.721
642.92	0.719
643.11	0.721
643.30	0.720
643.49	0.714
643.68	0.716
643.87	0.718
644.06	0.718
644.25	0.699
644.45	0.701
644.64	0.702
644.83	0.703
645.02	0.700
645.21	0.700
645.40	0.702
645.59	0.703
645.78	0.698
645.97	0.700
646.16	0.700
646.35	0.700
646.54	0.697
646.73	0.698
646.92	0.700
647.11	0.699
647.30	0.696
647.49	0.697
647.68	0.697
647.88	0.696
648.07	0.690
648.26	0.693
648.45	0.695
648.64	0.692
648.83	0.690
649.02	0.692
649.21	0.703
649.40	0.701
649.59	0.697
649.78	0.698
649.97	0.712
650.16	0.712
650.35	0.706
650.54	0.708
650.73	0.716
650.92	0.712
651.11	0.706
651.30	0.702
651.49	0.707
651.68	0.708
651.87	0.705
652.06	0.695
652.25	0.698
652.44	0.701
652.63	0.700
652.82	0.702
653.01	0.703
653.20	0.702
653.39	0.692
653.58	0.689
653.77	0.687
653.96	0.683
654.15	0.675
654.34	0.674
654.53	0.669
654.72	0.662
654.91	0.652
655.10	0.647
655.29	0.645
655.48	0.643
655.67	0.637
655.86	0.635
656.05	0.632
656.24	0.632
656.43	0.627
656.62	0.626
656.81	0.625
657.00	0.622
657.19	0.619
657.38	0.617
657.57	0.616
657.76	0.618
657.95	0.616
658.14	0.619
658.33	0.620
658.51	0.625
658.70	0.625
658.89	0.626
659.08	0.636
659.27	0.644
659.46	0.645
659.65	0.652
659.84	0.656
660.03	0.660
660.22	0.661
660.41	0.665
660.60	0.664
660.79	0.665
660.98	0.672
661.17	0.671
661.36	0.671
661.55	0.671
661.74	0.670
661.92	0.672
662.11	0.674
662.30	0.672
662.49	0.667
662.68	0.666
662.87	0.669
663.06	0.663
663.25	0.665
663.44	0.665
663.63	0.665
663.82	0.664
664.01	0.659
664.20	0.657
664.38	0.658
664.57	0.659
664.76	0.659
664.95	0.659
665.14	0.664
665.33	0.659
665.52	0.665
665.71	0.670
665.90	0.669
666.09	0.670
666.28	0.668
666.46	0.666
666.65	0.667
666.84	0.665
667.03	0.659
667.22	0.657
667.41	0.659
667.60	0.649
667.79	0.642
667.98	0.644
668.16	0.645
668.35	0.646
668.54	0.642
668.73	0.642
668.92	0.643
669.11	0.643
669.30	0.637
669.49	0.634
669.67	0.636
669.86	0.638
670.05	0.636
670.24	0.634
670.43	0.631
670.62	0.630
670.81	0.627
671.00	0.627
671.18	0.627
671.37	0.626
671.56	0.624
671.75	0.624
671.94	0.620
672.13	0.618
672.32	0.614
672.50	0.614
672.69	0.613
672.88	0.613
673.07	0.610
673.26	0.612
673.45	0.613
673.63	0.612
673.82	0.609
674.01	0.610
674.20	0.610
674.39	0.609
674.58	0.608
674.76	0.609
674.95	0.607
675.14	0.606
675.33	0.603
675.52	0.602
675.71	0.602
675.89	0.601
676.08	0.598
676.27	0.598
676.46	0.598
676.65	0.598
676.84	0.597
677.02	0.599
677.21	0.601
677.40	0.601
677.59	0.598
677.78	0.598
677.96	0.600
678.15	0.599
678.34	0.598
678.53	0.598
678.72	0.598
678.90	0.594
679.09	0.590
679.28	0.586
679.47	0.586
679.66	0.586
679.84	0.583
680.03	0.580
680.22	0.579
680.41	0.580
680.60	0.578
680.78	0.577
680.97	0.579
681.16	0.578
681.35	0.577
681.53	0.576
681.72	0.577
681.91	0.580
682.10	0.578
682.29	0.580
682.47	0.578
682.66	0.576
682.85	0.575
683.04	0.574
683.22	0.574
683.41	0.576
683.60	0.574
683.79	0.575
683.97	0.574
684.16	0.574
684.35	0.570
684.54	0.571
684.72	0.572
684.91	0.573
685.10	0.571
685.29	0.572
685.47	0.569
685.66	0.568
685.85	0.565
686.04	0.564
686.22	0.566
686.41	0.569
686.60	0.566
686.79	0.568
686.97	0.569
687.16	0.570
687.35	0.567
687.54	0.571
687.72	0.574
687.91	0.574
688.10	0.576
688.29	0.576
688.47	0.573
688.66	0.573
688.85	0.570
689.03	0.567
689.22	0.572
689.41	0.573
689.60	0.568
689.78	0.566
689.97	0.566
690.16	0.564
690.34	0.560
690.53	0.560
690.72	0.560
690.91	0.558
691.09	0.556
691.28	0.550
691.47	0.548
691.65	0.546
691.84	0.544
692.03	0.543
692.21	0.541
692.40	0.540
692.59	0.538
692.77	0.537
692.96	0.538
693.15	0.539
693.34	0.537
693.52	0.537
693.71	0.538
693.90	0.538
694.08	0.539
694.27	0.540
694.46	0.549
694.64	0.550
694.83	0.551
695.02	0.549
695.20	0.549
695.39	0.549
695.58	0.549
695.76	0.549
695.95	0.548
696.14	0.548
696.32	0.546
696.51	0.536
696.70	0.536
696.88	0.537
697.07	0.535
697.26	0.537
697.44	0.538
697.63	0.537
697.81	0.535
698.00	0.535
698.19	0.533
698.37	0.533
698.56	0.533
698.75	0.532
698.93	0.532
699.12	0.531
699.31	0.530
699.49	0.529
699.68	0.530
699.87	0.532
700.05	0.533
700.24	0.532
700.42	0.534
700.61	0.534
700.80	0.532
700.98	0.533
701.17	0.535
701.36	0.534
701.54	0.534
701.73	0.535
701.91	0.532
702.10	0.531
702.29	0.530
702.47	0.529
702.66	0.529
702.84	0.531
703.03	0.529
703.22	0.529
703.40	0.529
703.59	0.530
703.77	0.529
703.96	0.529
704.15	0.530
704.33	0.530
704.52	0.529
704.70	0.529
704.89	0.528
705.08	0.527
705.26	0.523
705.45	0.524
705.63	0.523
705.82	0.521
706.00	0.520
706.19	0.519
706.38	0.519
706.56	0.519
706.75	0.517
706.93	0.516
707.12	0.517
707.30	0.518
707.49	0.515
707.68	0.514
707.86	0.513
708.05	0.513
708.23	0.510
708.42	0.510
708.60	0.512
708.79	0.512
708.98	0.512
709.16	0.511
709.35	0.514
709.53	0.517
709.72	0.515
709.90	0.517
710.09	0.519
710.27	0.520
710.46	0.524
710.64	0.522
710.83	0.524
711.02	0.525
711.20	0.524
711.39	0.522
711.57	0.519
711.76	0.520
711.94	0.519
712.13	0.520
712.31	0.520
712.50	0.515
712.68	0.513
712.87	0.514
713.05	0.514
713.24	0.514
713.42	0.513
713.61	0.514
713.79	0.515
713.98	0.514
714.16	0.515
714.35	0.515
714.54	0.516
714.72	0.516
714.91	0.513
715.09	0.519
715.28	0.522
715.46	0.522
715.65	0.521
715.83	0.520
716.02	0.523
716.20	0.519
716.39	0.518
716.57	0.520
716.76	0.522
716.94	0.523
717.12	0.515
717.31	0.516
717.49	0.519
717.68	0.521
717.86	0.520
718.05	0.521
718.23	0.524
718.42	0.526
718.60	0.527
718.79	0.535
718.97	0.537
719.16	0.537
719.34	0.536
719.53	0.535
719.71	0.534
719.90	0.536
720.08	0.533
720.27	0.533
720.45	0.533
720.63	0.531
720.82	0.525
721.00	0.527
721.19	0.530
721.37	0.529
721.56	0.530
721.74	0.534
721.93	0.542
722.11	0.548
722.30	0.548
722.48	0.553
722.66	0.553
722.85	0.554
723.03	0.554
723.22	0.553
723.40	0.556
723.59	0.556
723.77	0.559
723.95	0.552
724.14	0.554
724.32	0.556
724.51	0.555
724.69	0.557
724.88	0.557
725.06	0.555
725.24	0.556
725.43	0.557
725.61	0.559
725.80	0.553
725.98	0.553
726.16	0.549
726.35	0.554
726.53	0.554
726.72	0.553
726.90	0.562
727.09	0.563
727.27	0.568
727.45	0.566
727.64	0.574
727.82	0.583
728.01	0.586
728.19	0.584
728.37	0.589
728.56	0.592
728.74	0.598
728.92	0.587
729.11	0.588
729.29	0.587
729.48	0.591
729.66	0.582
729.84	0.582
730.03	0.585
730.21	0.586
730.40	0.577
730.58	0.578
730.76	0.577
730.95	0.580
731.13	0.580
731.31	0.593
731.50	0.601
731.68	0.604
731.86	0.601
732.05	0.615
732.23	0.618
732.42	0.621
732.60	0.626
732.78	0.631
732.97	0.648
733.15	0.655
733.33	0.643
733.52	0.649
733.70	0.659
733.88	0.667
734.07	0.653
734.25	0.678
734.43	0.685
734.62	0.688
734.80	0.683
734.98	0.674
735.17	0.681
735.35	0.687
735.53	0.676
735.72	0.679
735.90	0.699
736.08	0.719
736.27	0.697
736.45	0.707
736.63	0.716
736.82	0.726
737.00	0.726
737.18	0.733
737.37	0.762
737.55	0.784
737.73	0.775
737.92	0.780
738.10	0.778
738.28	0.796
738.46	0.784
738.65	0.796
738.83	0.815
739.01	0.864
739.20	0.860
739.38	0.840
739.56	0.831
739.75	0.837
739.93	0.804
740.11	0.824
740.29	0.823
740.48	0.827
740.66	0.806
740.84	0.800
741.03	0.766
741.21	0.778
741.39	0.765
741.57	0.776
741.76	0.789
741.94	0.796
742.12	0.766
742.31	0.774
742.49	0.793
742.67	0.819
742.85	0.835
743.04	0.840
743.22	0.844
743.40	0.891
743.58	0.873
743.77	0.889
743.95	0.918
744.13	0.966
744.31	0.947
744.50	0.941
744.68	0.938
744.86	0.915
745.04	0.928
745.23	0.990
745.41	0.971
745.59	0.976
745.77	0.942
745.96	0.932
746.14	0.934
746.32	0.932
746.50	0.925
746.69	0.907
746.87	0.908
747.05	0.893
747.23	0.828
747.42	0.813
747.60	0.835
747.78	0.840
747.96	0.867
748.14	0.828
748.33	0.852
748.51	0.848
748.69	0.843
748.87	0.869
749.06	0.860
749.24	0.862
749.42	0.854
749.60	0.837
749.78	0.844
749.97	0.803
750.15	0.799
750.33	0.801
750.51	0.822
750.69	0.828
750.88	0.834
751.06	0.848
751.24	0.866
751.42	0.857
751.60	0.852
751.79	0.916
751.97	0.955
752.15	0.955
752.33	0.926
752.51	0.983
752.69	0.996
752.88	0.967
753.06	1.006
753.24	0.984
753.42	1.014
753.60	1.162
753.78	1.038
753.97	1.057
754.15	1.069
754.33	1.095
754.51	0.989
754.69	0.975
754.87	0.998
755.06	0.938
755.24	0.943
755.42	0.946
755.60	0.855
755.78	0.863
755.96	0.815
756.15	0.819
756.33	0.823
756.51	0.840
756.69	0.827
756.87	0.797
757.05	0.815
757.23	0.802
757.42	0.777
757.60	0.774
757.78	0.763
757.96	0.759
758.14	0.741
758.32	0.726
758.50	0.736
758.69	0.736
758.87	0.728
759.05	0.729
759.23	0.735
759.41	0.733
759.59	0.728
759.77	0.749
759.95	0.777
760.13	0.823
760.32	0.823
760.50	0.819
760.68	0.840
760.86	0.842
761.04	0.820
761.22	0.823
761.40	0.866
761.58	0.868
761.76	0.843
761.95	0.823
762.13	0.780
762.31	0.780
762.49	0.754
762.67	0.771
762.85	0.782
763.03	0.778
763.21	0.761
763.39	0.746
763.57	0.747
763.75	0.744
763.94	0.731
764.12	0.732
764.30	0.752
764.48	0.755
764.66	0.722
764.84	0.718
765.02	0.750
765.20	0.758
765.38	0.738
765.56	0.744
765.74	0.779
765.92	0.781
766.10	0.788
766.28	0.782
766.46	0.807
766.65	0.808
766.83	0.801
767.01	0.786
767.19	0.793
767.37	0.793
767.55	0.780
767.73	0.759
767.91	0.759
768.09	0.750
768.27	0.741
768.45	0.732
768.63	0.737
768.81	0.738
768.99	0.715
769.17	0.735
769.35	0.749
769.53	0.748
769.71	0.731
769.89	0.740
770.07	0.743
770.25	0.727
770.43	0.705
770.61	0.723
770.79	0.726
770.97	0.736
771.15	0.709
771.33	0.712
771.51	0.713
771.69	0.723
771.87	0.731
772.05	0.736
772.24	0.743
772.42	0.753
772.60	0.734
772.78	0.790
772.96	0.812
773.14	0.809
773.32	0.787
773.49	0.795
773.67	0.793
773.85	0.773
774.03	0.761
774.21	0.791
774.39	0.799
774.57	0.818
774.75	0.755
774.93	0.751
775.11	0.769
775.29	0.777
775.47	0.778
775.65	0.786
775.83	0.799
776.01	0.822
776.19	0.781
776.37	0.782
776.55	0.782
776.73	0.780
776.91	0.778
777.09	0.761
777.27	0.758
777.45	0.748
777.63	0.728
777.81	0.727
777.99	0.715
778.17	0.715
778.35	0.697
778.53	0.687
778.71	0.690
778.89	0.676
779.07	0.668
779.24	0.671
779.42	0.672
779.60	0.687
779.78	0.684
779.96	0.684
780.14	0.690
780.32	0.708
780.50	0.692
780.68	0.692
780.86	0.685
781.04	0.700
781.22	0.707
781.40	0.716
781.58	0.706
781.75	0.699
781.93	0.687
782.11	0.689
782.29	0.675
782.47	0.674
782.65	0.662
782.83	0.687
783.01	0.680
783.19	0.674
783.37	0.664
783.55	0.668
783.72	0.685
783.90	0.695
784.08	0.687
784.26	0.699
784.44	0.719
784.62	0.723
784.80	0.695
784.98	0.701
785.16	0.706
785.33	0.715
785.51	0.703
785.69	0.691
785.87	0.688
786.05	0.701
786.23	0.698
786.41	0.696
786.59	0.700
786.77	0.701
786.94	0.689
787.12	0.693
787.30	0.694
787.48	0.691
787.66	0.679
787.84	0.680
788.02	0.668
788.19	0.665
788.37	0.651
788.55	0.654
788.73	0.654
788.91	0.649
789.09	0.634
789.27	0.624
789.44	0.635
789.62	0.643
789.80	0.653
789.98	0.676
790.16	0.665
790.34	0.663
790.51	0.652
790.69	0.670
790.87	0.676
791.05	0.675
791.23	0.671
791.41	0.671
791.58	0.676
791.76	0.655
791.94	0.628
792.12	0.636
792.30	0.638
792.48	0.635
792.65	0.630
792.83	0.635
793.01	0.640
793.19	0.638
793.37	0.625
793.54	0.621
793.72	0.631
793.90	0.628
794.08	0.619
794.26	0.620
794.43	0.628
794.61	0.612
794.79	0.603
794.97	0.601
795.15	0.606
795.32	0.610
795.50	0.601
795.68	0.595
795.86	0.600
796.04	0.601
796.21	0.595
796.39	0.593
796.57	0.605
796.75	0.612
796.92	0.615
797.10	0.618
797.28	0.621
797.46	0.624
797.64	0.626
797.81	0.632
797.99	0.635
798.17	0.639
798.35	0.635
798.52	0.638
798.70	0.632
798.88	0.638
799.06	0.638
799.23	0.640
799.41	0.648
799.59	0.642
799.77	0.632
799.94	0.640
800.12	0.647
800.30	0.663
800.48	0.665
800.65	0.664
800.83	0.656
801.01	0.648
801.19	0.649
801.36	0.644
801.54	0.644
801.72	0.654
801.90	0.642
802.07	0.636
802.25	0.623
802.43	0.608
802.60	0.605
802.78	0.611
802.96	0.615
803.14	0.609
803.31	0.607
803.49	0.609
803.67	0.606
803.84	0.611
804.02	0.604
804.20	0.608
804.38	0.611
804.55	0.611
804.73	0.597
804.91	0.597
805.08	0.608
805.26	0.606
805.44	0.670
805.61	0.672
805.79	0.670
805.97	0.671
806.15	0.663
806.32	0.660
806.50	0.664
806.68	0.665
806.85	0.658
807.03	0.649
807.21	0.665
807.38	0.601
807.56	0.591
807.74	0.599
807.91	0.605
808.09	0.606
808.27	0.624
808.44	0.648
808.62	0.656
808.80	0.659
808.97	0.653
809.15	0.646
809.33	0.660
809.50	0.667
809.68	0.656
809.86	0.661
810.03	0.690
810.21	0.671
810.39	0.654
810.56	0.659
810.74	0.681
810.91	0.748
811.09	0.737
811.27	0.757
811.44	0.760
811.62	0.765
811.80	0.754
811.97	0.726
812.15	0.727
812.33	0.724
812.50	0.711
812.68	0.698
812.85	0.645
813.03	0.648
813.21	0.620
813.38	0.615
813.56	0.616
813.74	0.623
813.91	0.630
814.09	0.654
814.26	0.650
814.44	0.653
814.62	0.646
814.79	0.649
814.97	0.651
815.14	0.653
815.32	0.656
815.50	0.670
815.67	0.672
815.85	0.662
816.02	0.653
816.20	0.658
816.38	0.670
816.55	0.676
816.73	0.674
816.90	0.684
817.08	0.712
817.26	0.718
817.43	0.700
817.61	0.723
817.78	0.743
817.96	0.727
818.13	0.718
818.31	0.718
818.49	0.728
818.66	0.720
818.84	0.710
819.01	0.691
819.19	0.697
819.36	0.697
819.54	0.671
819.71	0.709
819.89	0.721
820.07	0.732
820.24	0.727
820.42	0.727
820.59	0.745
820.77	0.765
820.94	0.756
821.12	0.772
821.29	0.788
821.47	0.787
821.64	0.728
821.82	0.736
822.00	0.733
822.17	0.730
822.35	0.723
822.52	0.724
822.70	0.716
822.87	0.724
823.05	0.705
823.22	0.715
823.40	0.737
823.57	0.760
823.75	0.747
823.92	0.770
824.10	0.785
824.27	0.824
824.45	0.816
824.62	0.868
824.80	0.884
824.97	0.896
825.15	0.887
825.32	0.903
825.50	0.904
825.67	0.913
825.85	0.892
826.02	0.909
826.20	0.925
826.37	1.034
826.55	0.961
826.72	1.121
826.90	1.176
827.07	1.216
827.25	1.154
827.42	1.269
827.60	1.356
827.77	1.474
827.95	1.444
828.12	1.498
828.30	1.255
828.47	1.328
828.65	1.081
828.82	1.109
829.00	1.149
829.17	1.216
829.34	1.209
829.52	1.232
829.69	-0.000
829.87	-0.000
830.04	-0.000
830.22	-0.000
830.39	-0.000
830.57	-0.000
830.74	-0.000
830.92	-0.000
831.09	-0.000
831.26	-0.000
831.44	-0.000
831.61	-0.000
831.79	-0.000
831.96	-0.000
832.14	-0.000
832.31	-0.000
832.49	-0.000
832.66	-0.000
832.83	-0.000
833.01	-0.000
833.18	-0.000
833.36	-0.000
833.53	-0.000
833.70	-0.000
833.88	-0.000
834.05	-0.000
834.23	-0.000
834.40	-0.000
834.58	-0.000
834.75	-0.000
834.92	-0.000
835.10	-0.000
835.27	-0.000
835.45	-0.000
835.62	-0.000
835.79	-0.000
835.97	-0.000
836.14	-0.000
836.32	-0.000
836.49	-0.000
836.66	-0.000
836.84	-0.000
837.01	-0.000
837.18	-0.000
837.36	-0.000
837.53	-0.000
837.71	-0.000
837.88	-0.000
838.05	-0.000
838.23	-0.000
838.40	-0.000
838.58	-0.000
838.75	-0.000
838.92	-0.000
839.10	-0.000
839.27	-0.000
839.44	-0.000
839.62	-0.000
839.79	-0.000
839.96	-0.000
840.14	-0.000
840.31	-0.000
840.48	-0.000
840.66	-0.000
840.83	-0.000
841.01	-0.000
841.18	-0.000
841.35	-0.000
841.53	-0.000
841.70	-0.000
841.87	-0.000
842.05	-0.000
842.22	-0.000
842.39	-0.000
842.57	-0.000
842.74	-0.000
842.91	-0.000
843.09	-0.000
843.26	-0.000
843.43	-0.000
843.60	-0.000
843.78	-0.000
843.95	-0.000
844.12	-0.000
844.30	-0.000
844.47	-0.000
844.64	-0.000
844.82	-0.000
844.99	-0.000
845.16	-0.000
845.34	-0.000
845.51	-0.000
845.68	-0.000
845.85	-0.000
846.03	-0.000
846.20	-0.000
846.37	-0.000
846.55	-0.000
846.72	-0.000
846.89	-0.000
847.06	-0.000
847.24	-0.000
847.41	-0.000
847.58	-0.000
847.76	-0.000
847.93	-0.000
848.10	-0.000
848.27	-0.000
848.45	-0.000
848.62	-0.000
848.79	-0.000
848.97	-0.000
849.14	-0.000
849.31	-0.000
849.48	-0.000
849.66	-0.000
849.83	-0.000
850.00	-0.000
850.17	-0.000
850.35	-0.000
850.52	-0.000
850.69	-0.000
850.86	-0.000
851.04	-0.000
851.21	-0.000
851.38	-0.000
851.55	-0.000
851.72	-0.000
851.90	-0.000
852.07	-0.000
852.24	-0.000
852.41	-0.000
852.59	-0.000
852.76	-0.000
852.93	-0.000
853.10	-0.000
853.28	-0.000
853.45	-0.000
853.62	-0.000
853.79	-0.000
853.96	-0.000
854.14	-0.000
854.31	-0.000
854.48	-0.000
854.65	-0.000
854.82	-0.000
855.00	-0.000
855.17	-0.000
855.34	-0.000
855.51	-0.000
855.68	-0.000
855.86	-0.000
856.03	-0.000
856.20	-0.000
856.37	-0.000
856.54	-0.000
856.72	-0.000
856.89	-0.000
857.06	-0.000
857.23	-0.000
857.40	-0.000
857.57	-0.000
857.75	-0.000
857.92	-0.000
858.09	-0.000
858.26	-0.000
858.43	-0.000
858.60	-0.000
858.78	-0.000
858.95	-0.000
859.12	-0.000
859.29	-0.000
859.46	-0.000
859.63	-0.000
859.81	-0.000
859.98	-0.000
860.15	-0.000
860.32	-0.000
860.49	-0.000
860.66	-0.000
860.83	-0.000
861.01	-0.000
861.18	-0.000
861.35	-0.000
861.52	-0.000
861.69	-0.000
861.86	-0.000
862.03	-0.000
862.21	-0.000
862.38	-0.000
862.55	-0.000
862.72	-0.000
862.89	-0.000
863.06	-0.000
863.23	-0.000
863.40	-0.000
863.58	-0.000
863.75	-0.000
863.92	-0.000
864.09	-0.000
864.26	-0.000
864.43	-0.000
864.60	-0.000
864.77	-0.000
864.94	-0.000
865.11	-0.000
865.29	-0.000
865.46	-0.000
865.63	-0.000
865.80	-0.000
865.97	-0.000
866.14	-0.000
866.31	-0.000
866.48	-0.000
866.65	-0.000
866.82	-0.000
866.99	-0.000
867.16	-0.000
867.34	-0.000
867.51	-0.000
867.68	-0.000
867.85	-0.000
868.02	-0.000
868.19	-0.000
868.36	-0.000
868.53	-0.000
868.70	-0.000
868.87	-0.000
869.04	-0.000
869.21	-0.000
869.38	-0.000
869.55	-0.000
869.72	-0.000
869.89	-0.000
870.06	-0.000
870.24	-0.000
870.41	-0.000
870.58	-0.000
870.75	-0.000
870.92	-0.000
871.09	-0.000
871.26	-0.000
871.43	-0.000
871.60	-0.000
871.77	-0.000
871.94	-0.000
872.11	-0.000
872.28	-0.000
872.45	-0.000
872.62	-0.000
872.79	-0.000
872.96	-0.000
873.13	-0.000
873.30	-0.000
873.47	-0.000
873.64	-0.000
873.81	-0.000
873.98	-0.000
874.15	-0.000
874.32	-0.000
874.49	-0.000
874.66	-0.000
874.83	-0.000
875.00	-0.000
875.17	-0.000
875.34	-0.000
875.51	-0.000
875.68	-0.000
875.85	-0.000
876.02	-0.000
876.19	-0.000
876.36	-0.000
876.53	-0.000
876.70	-0.000
876.87	-0.000
877.04	-0.000
877.21	-0.000
877.38	-0.000
877.55	-0.000
877.72	-0.000
877.89	-0.000
878.06	-0.000
878.23	-0.000
878.39	-0.000
878.56	-0.000
878.73	-0.000
878.90	-0.000
879.07	-0.000
879.24	-0.000
879.41	-0.000
879.58	-0.000
879.75	-0.000
879.92	-0.000
880.09	-0.000
880.26	-0.000
880.43	-0.000
880.60	-0.000
880.77	-0.000
880.94	-0.000
881.11	-0.000
881.27	-0.000
881.44	-0.000
881.61	-0.000
881.78	-0.000
881.95	-0.000
882.12	-0.000
882.29	-0.000
882.46	-0.000
882.63	-0.000
882.80	-0.000
882.97	-0.000
883.14	-0.000
883.30	-0.000
883.47	-0.000
883.64	-0.000
883.81	-0.000
883.98	-0.000
884.15	-0.000
884.32	-0.000
884.49	-0.000
884.66	-0.000
884.82	-0.000
884.99	-0.000
885.16	-0.000
885.33	-0.000
885.50	-0.000
885.67	-0.000
885.84	-0.000
886.01	-0.000
886.17	-0.000
886.34	-0.000
886.51	-0.000
886.68	-0.000
886.85	-0.000
887.02	-0.000
887.19	-0.000
887.36	-0.000
887.52	-0.000
887.69	-0.000
887.86	-0.000
888.03	-0.000
888.20	-0.000
888.37	-0.000
888.54	-0.000
888.70	-0.000
888.87	-0.000
889.04	-0.000
889.21	-0.000
889.38	-0.000
889.55	-0.000
889.71	-0.000
889.88	-0.000
890.05	-0.000
890.22	-0.000
890.39	-0.000
>>>>>End Processed Spectral Data<<<<<
