SpectraSuite Data File
++++++++++++++++++++++++++++++++++++
Date: Fri Jun 19 14:46:40 CEST 2015
User: introlabs
Dark Spectrum Present: Yes
Reference Spectrum Present: Yes
Number of Sampled Component Spectra: 1
Spectrometers: USB4H08886
Integration Time (usec): 745692 (USB4H08886)
Spectra Averaged: 5 (USB4H08886)
Boxcar Smoothing: 5 (USB4H08886)
Correct for Electrical Dark: Yes (USB4H08886)
Strobe/Lamp Enabled: No (USB4H08886)
Correct for Detector Non-linearity: Yes (USB4H08886)
Correct for Stray Light: Yes (USB4H08886)
Number of Pixels in Processed Spectrum: 3648
>>>>>Begin Processed Spectral Data<<<<<
178.14	-0.000
178.36	-0.000
178.57	-0.000
178.79	-0.000
179.01	-0.000
179.22	-0.000
179.44	-0.000
179.65	-0.000
179.87	-0.000
180.08	-0.000
180.30	-0.000
180.52	-0.000
180.73	-0.000
180.95	-0.000
181.16	-0.000
181.38	-0.000
181.59	-0.000
181.81	-0.000
182.03	-0.000
182.24	-0.000
182.46	-0.000
182.67	-0.000
182.89	-0.000
183.10	-0.000
183.32	-0.000
183.54	-0.000
183.75	-0.000
183.97	-0.000
184.18	-0.000
184.40	-0.000
184.61	-0.000
184.83	-0.000
185.04	-0.000
185.26	-0.000
185.48	-0.000
185.69	-0.000
185.91	-0.000
186.12	-0.000
186.34	-0.000
186.55	-0.000
186.77	-0.000
186.98	-0.000
187.20	-0.000
187.42	-0.000
187.63	-0.000
187.85	-0.000
188.06	-0.000
188.28	-0.000
188.49	-0.000
188.71	-0.000
188.92	-0.000
189.14	-0.000
189.36	-0.000
189.57	-0.000
189.79	-0.000
190.00	-0.000
190.22	-0.000
190.43	-0.000
190.65	-0.000
190.86	-0.000
191.08	-0.000
191.29	-0.000
191.51	-0.000
191.72	-0.000
191.94	-0.000
192.16	-0.000
192.37	-0.000
192.59	-0.000
192.80	-0.000
193.02	-0.000
193.23	-0.000
193.45	-0.000
193.66	-0.000
193.88	-0.000
194.09	-0.000
194.31	-0.000
194.52	-0.000
194.74	-0.000
194.95	-0.000
195.17	-0.000
195.38	-0.000
195.60	-0.000
195.81	-0.000
196.03	-0.000
196.25	-0.000
196.46	-0.000
196.68	-0.000
196.89	-0.000
197.11	-0.000
197.32	-0.000
197.54	-0.000
197.75	-0.000
197.97	-0.000
198.18	-0.000
198.40	-0.000
198.61	-0.000
198.83	-0.000
199.04	-0.000
199.26	-0.000
199.47	-0.000
199.69	-0.000
199.90	-0.000
200.12	-0.000
200.33	-0.000
200.55	-0.000
200.76	-0.000
200.98	-0.000
201.19	-0.000
201.41	-0.000
201.62	-0.000
201.84	-0.000
202.05	-0.000
202.27	-0.000
202.48	-0.000
202.70	-0.000
202.91	-0.000
203.13	-0.000
203.34	-0.000
203.56	-0.000
203.77	-0.000
203.99	-0.000
204.20	-0.000
204.42	-0.000
204.63	-0.000
204.85	-0.000
205.06	-0.000
205.28	-0.000
205.49	-0.000
205.71	-0.000
205.92	-0.000
206.14	-0.000
206.35	-0.000
206.56	-0.000
206.78	-0.000
206.99	-0.000
207.21	-0.000
207.42	-0.000
207.64	-0.000
207.85	-0.000
208.07	-0.000
208.28	-0.000
208.50	-0.000
208.71	-0.000
208.93	-0.000
209.14	-0.000
209.36	-0.000
209.57	-0.000
209.79	-0.000
210.00	-0.000
210.22	-0.000
210.43	-0.000
210.64	-0.000
210.86	-0.000
211.07	-0.000
211.29	-0.000
211.50	-0.000
211.72	-0.000
211.93	-0.000
212.15	-0.000
212.36	-0.000
212.58	-0.000
212.79	-0.000
213.01	-0.000
213.22	-0.000
213.43	-0.000
213.65	-0.000
213.86	-0.000
214.08	-0.000
214.29	-0.000
214.51	-0.000
214.72	-0.000
214.94	-0.000
215.15	-0.000
215.36	-0.000
215.58	-0.000
215.79	-0.000
216.01	-0.000
216.22	-0.000
216.44	-0.000
216.65	-0.000
216.87	-0.000
217.08	-0.000
217.29	-0.000
217.51	-0.000
217.72	-0.000
217.94	-0.000
218.15	-0.000
218.37	-0.000
218.58	-0.000
218.80	-0.000
219.01	-0.000
219.22	-0.000
219.44	-0.000
219.65	-0.000
219.87	-0.000
220.08	-0.000
220.30	-0.000
220.51	-0.000
220.72	-0.000
220.94	-0.000
221.15	-0.000
221.37	-0.000
221.58	-0.000
221.79	-0.000
222.01	-0.000
222.22	-0.000
222.44	-0.000
222.65	-0.000
222.87	-0.000
223.08	-0.000
223.29	-0.000
223.51	-0.000
223.72	-0.000
223.94	-0.000
224.15	-0.000
224.36	-0.000
224.58	-0.000
224.79	-0.000
225.01	-0.000
225.22	-0.000
225.44	-0.000
225.65	-0.000
225.86	-0.000
226.08	-0.000
226.29	-0.000
226.51	-0.000
226.72	-0.000
226.93	-0.000
227.15	-0.000
227.36	-0.000
227.58	-0.000
227.79	-0.000
228.00	-0.000
228.22	-0.000
228.43	-0.000
228.65	-0.000
228.86	-0.000
229.07	-0.000
229.29	-0.000
229.50	-0.000
229.72	-0.000
229.93	-0.000
230.14	-0.000
230.36	-0.000
230.57	-0.000
230.78	-0.000
231.00	-0.000
231.21	-0.000
231.43	-0.000
231.64	-0.000
231.85	-0.000
232.07	-0.000
232.28	-0.000
232.50	-0.000
232.71	-0.000
232.92	-0.000
233.14	-0.000
233.35	-0.000
233.56	-0.000
233.78	-0.000
233.99	-0.000
234.21	-0.000
234.42	-0.000
234.63	-0.000
234.85	-0.000
235.06	-0.000
235.27	-0.000
235.49	-0.000
235.70	-0.000
235.91	-0.000
236.13	-0.000
236.34	-0.000
236.56	-0.000
236.77	-0.000
236.98	-0.000
237.20	-0.000
237.41	-0.000
237.62	-0.000
237.84	-0.000
238.05	-0.000
238.26	-0.000
238.48	-0.000
238.69	-0.000
238.91	-0.000
239.12	-0.000
239.33	-0.000
239.55	-0.000
239.76	-0.000
239.97	-0.000
240.19	-0.000
240.40	-0.000
240.61	-0.000
240.83	-0.000
241.04	-0.000
241.25	-0.000
241.47	-0.000
241.68	-0.000
241.89	-0.000
242.11	-0.000
242.32	-0.000
242.53	-0.000
242.75	-0.000
242.96	-0.000
243.17	-0.000
243.39	-0.000
243.60	-0.000
243.81	-0.000
244.03	-0.000
244.24	-0.000
244.45	-0.000
244.67	-0.000
244.88	-0.000
245.09	-0.000
245.31	-0.000
245.52	-0.000
245.73	-0.000
245.95	-0.000
246.16	-0.000
246.37	-0.000
246.59	-0.000
246.80	-0.000
247.01	-0.000
247.23	-0.000
247.44	-0.000
247.65	-0.000
247.87	-0.000
248.08	-0.000
248.29	-0.000
248.51	-0.000
248.72	-0.000
248.93	-0.000
249.15	-0.000
249.36	-0.000
249.57	-0.000
249.78	-0.000
250.00	-0.000
250.21	-0.000
250.42	-0.000
250.64	-0.000
250.85	-0.000
251.06	-0.000
251.28	-0.000
251.49	-0.000
251.70	-0.000
251.92	-0.000
252.13	-0.000
252.34	-0.000
252.55	-0.000
252.77	-0.000
252.98	-0.000
253.19	-0.000
253.41	-0.000
253.62	-0.000
253.83	-0.000
254.05	-0.000
254.26	-0.000
254.47	-0.000
254.68	-0.000
254.90	-0.000
255.11	-0.000
255.32	-0.000
255.54	-0.000
255.75	-0.000
255.96	-0.000
256.17	-0.000
256.39	-0.000
256.60	-0.000
256.81	-0.000
257.03	-0.000
257.24	-0.000
257.45	-0.000
257.66	-0.000
257.88	-0.000
258.09	-0.000
258.30	-0.000
258.51	-0.000
258.73	-0.000
258.94	-0.000
259.15	-0.000
259.37	-0.000
259.58	-0.000
259.79	-0.000
260.00	-0.000
260.22	-0.000
260.43	-0.000
260.64	-0.000
260.85	-0.000
261.07	-0.000
261.28	-0.000
261.49	-0.000
261.71	-0.000
261.92	-0.000
262.13	-0.000
262.34	-0.000
262.56	-0.000
262.77	-0.000
262.98	-0.000
263.19	-0.000
263.41	-0.000
263.62	-0.000
263.83	-0.000
264.04	-0.000
264.26	-0.000
264.47	-0.000
264.68	-0.000
264.89	-0.000
265.11	-0.000
265.32	-0.000
265.53	-0.000
265.74	-0.000
265.96	-0.000
266.17	-0.000
266.38	-0.000
266.59	-0.000
266.81	-0.000
267.02	-0.000
267.23	-0.000
267.44	-0.000
267.65	-0.000
267.87	-0.000
268.08	-0.000
268.29	-0.000
268.50	-0.000
268.72	-0.000
268.93	-0.000
269.14	-0.000
269.35	-0.000
269.57	-0.000
269.78	-0.000
269.99	-0.000
270.20	-0.000
270.41	-0.000
270.63	-0.000
270.84	-0.000
271.05	-0.000
271.26	-0.000
271.48	-0.000
271.69	-0.000
271.90	-0.000
272.11	-0.000
272.32	-0.000
272.54	-0.000
272.75	-0.000
272.96	-0.000
273.17	-0.000
273.39	-0.000
273.60	-0.000
273.81	-0.000
274.02	-0.000
274.23	-0.000
274.45	-0.000
274.66	-0.000
274.87	-0.000
275.08	-0.000
275.29	-0.000
275.51	-0.000
275.72	-0.000
275.93	-0.000
276.14	-0.000
276.35	-0.000
276.57	-0.000
276.78	-0.000
276.99	-0.000
277.20	-0.000
277.41	-0.000
277.63	-0.000
277.84	-0.000
278.05	-0.000
278.26	-0.000
278.47	-0.000
278.69	-0.000
278.90	-0.000
279.11	-0.000
279.32	-0.000
279.53	-0.000
279.74	-0.000
279.96	-0.000
280.17	-0.000
280.38	-0.000
280.59	-0.000
280.80	-0.000
281.02	-0.000
281.23	-0.000
281.44	-0.000
281.65	-0.000
281.86	-0.000
282.07	-0.000
282.29	-0.000
282.50	-0.000
282.71	-0.000
282.92	-0.000
283.13	-0.000
283.35	-0.000
283.56	-0.000
283.77	-0.000
283.98	-0.000
284.19	-0.000
284.40	-0.000
284.62	-0.000
284.83	-0.000
285.04	-0.000
285.25	-0.000
285.46	-0.000
285.67	-0.000
285.88	-0.000
286.10	-0.000
286.31	-0.000
286.52	-0.000
286.73	-0.000
286.94	-0.000
287.15	-0.000
287.37	-0.000
287.58	-0.000
287.79	-0.000
288.00	-0.000
288.21	-0.000
288.42	-0.000
288.63	-0.000
288.85	-0.000
289.06	-0.000
289.27	-0.000
289.48	-0.000
289.69	-0.000
289.90	-0.000
290.11	-0.000
290.33	-0.000
290.54	-0.000
290.75	-0.000
290.96	-0.000
291.17	-0.000
291.38	-0.000
291.59	-0.000
291.81	-0.000
292.02	-0.000
292.23	-0.000
292.44	-0.000
292.65	-0.000
292.86	-0.000
293.07	-0.000
293.28	-0.000
293.50	-0.000
293.71	-0.000
293.92	-0.000
294.13	-0.000
294.34	-0.000
294.55	-0.000
294.76	-0.000
294.97	-0.000
295.19	-0.000
295.40	-0.000
295.61	-0.000
295.82	-0.000
296.03	-0.000
296.24	-0.000
296.45	2.343
296.66	1.843
296.87	1.882
297.09	1.977
297.30	2.237
297.51	1.775
297.72	1.723
297.93	1.823
298.14	1.790
298.35	1.734
298.56	1.712
298.77	1.869
298.99	1.851
299.20	1.817
299.41	1.788
299.62	1.743
299.83	1.732
300.04	1.667
300.25	1.648
300.46	1.693
300.67	1.662
300.88	1.605
301.10	1.600
301.31	1.677
301.52	1.601
301.73	1.539
301.94	1.542
302.15	1.560
302.36	1.511
302.57	1.448
302.78	1.455
302.99	1.495
303.20	1.512
303.41	1.415
303.63	1.392
303.84	1.400
304.05	1.400
304.26	1.340
304.47	1.348
304.68	1.350
304.89	1.340
305.10	1.300
305.31	1.285
305.52	1.332
305.73	1.330
305.94	1.292
306.15	1.282
306.37	1.302
306.58	1.305
306.79	1.273
307.00	1.297
307.21	1.340
307.42	1.331
307.63	1.297
307.84	1.260
308.05	1.299
308.26	1.300
308.47	1.277
308.68	1.273
308.89	1.274
309.10	1.270
309.31	1.227
309.52	1.216
309.73	1.231
309.95	1.225
310.16	1.198
310.37	1.186
310.58	1.203
310.79	1.203
311.00	1.200
311.21	1.205
311.42	1.206
311.63	1.201
311.84	1.184
312.05	1.182
312.26	1.208
312.47	1.217
312.68	1.192
312.89	1.176
313.10	1.183
313.31	1.156
313.52	1.158
313.73	1.162
313.94	1.164
314.15	1.147
314.36	1.125
314.57	1.117
314.78	1.107
314.99	1.100
315.21	1.088
315.42	1.093
315.63	1.106
315.84	1.082
316.05	1.066
316.26	1.074
316.47	1.091
316.68	1.086
316.89	1.065
317.10	1.082
317.31	1.088
317.52	1.088
317.73	1.066
317.94	1.061
318.15	1.103
318.36	1.104
318.57	1.087
318.78	1.076
318.99	1.112
319.20	1.112
319.41	1.080
319.62	1.083
319.83	1.096
320.04	1.093
320.25	1.083
320.46	1.051
320.67	1.053
320.88	1.046
321.09	1.032
321.30	1.016
321.51	1.033
321.72	1.032
321.93	1.014
322.14	1.006
322.35	1.033
322.56	1.033
322.77	1.020
322.98	1.032
323.19	1.042
323.40	1.048
323.61	1.028
323.82	1.020
324.03	1.026
324.24	1.023
324.45	1.010
324.66	0.990
324.87	0.987
325.08	0.987
325.29	0.968
325.50	0.962
325.71	0.967
325.92	0.975
326.13	0.963
326.34	0.961
326.55	0.970
326.76	0.969
326.97	0.958
327.18	0.953
327.39	0.978
327.60	0.979
327.80	0.979
328.01	0.977
328.22	0.975
328.43	0.979
328.64	0.968
328.85	0.971
329.06	0.973
329.27	0.973
329.48	0.969
329.69	0.949
329.90	0.958
330.11	0.950
330.32	0.944
330.53	0.936
330.74	0.935
330.95	0.933
331.16	0.920
331.37	0.928
331.58	0.928
331.79	0.928
332.00	0.919
332.21	0.912
332.42	0.916
332.63	0.908
332.83	0.904
333.04	0.908
333.25	0.921
333.46	0.919
333.67	0.905
333.88	0.908
334.09	0.918
334.30	0.915
334.51	0.908
334.72	0.903
334.93	0.907
335.14	0.906
335.35	0.899
335.56	0.894
335.77	0.902
335.98	0.901
336.18	0.893
336.39	0.885
336.60	0.889
336.81	0.886
337.02	0.885
337.23	0.889
337.44	0.891
337.65	0.891
337.86	0.880
338.07	0.876
338.28	0.880
338.49	0.879
338.70	0.870
338.91	0.877
339.11	0.886
339.32	0.882
339.53	0.869
339.74	0.867
339.95	0.864
340.16	0.862
340.37	0.853
340.58	0.851
340.79	0.855
341.00	0.856
341.21	0.846
341.41	0.847
341.62	0.849
341.83	0.850
342.04	0.845
342.25	0.856
342.46	0.861
342.67	0.859
342.88	0.854
343.09	0.852
343.30	0.858
343.50	0.861
343.71	0.850
343.92	0.848
344.13	0.853
344.34	0.852
344.55	0.836
344.76	0.835
344.97	0.839
345.18	0.837
345.38	0.835
345.59	0.830
345.80	0.830
346.01	0.828
346.22	0.823
346.43	0.817
346.64	0.825
346.85	0.826
347.06	0.819
347.26	0.819
347.47	0.824
347.68	0.819
347.89	0.815
348.10	0.810
348.31	0.818
348.52	0.817
348.73	0.814
348.93	0.813
349.14	0.814
349.35	0.814
349.56	0.808
349.77	0.802
349.98	0.808
350.19	0.806
350.39	0.800
350.60	0.796
350.81	0.811
351.02	0.810
351.23	0.805
351.44	0.808
351.65	0.810
351.86	0.808
352.06	0.807
352.27	0.806
352.48	0.807
352.69	0.807
352.90	0.802
353.11	0.789
353.31	0.796
353.52	0.792
353.73	0.784
353.94	0.786
354.15	0.792
354.36	0.792
354.57	0.783
354.77	0.786
354.98	0.785
355.19	0.785
355.40	0.783
355.61	0.789
355.82	0.792
356.02	0.791
356.23	0.783
356.44	0.785
356.65	0.788
356.86	0.789
357.07	0.784
357.27	0.787
357.48	0.788
357.69	0.785
357.90	0.769
358.11	0.766
358.32	0.770
358.52	0.772
358.73	0.763
358.94	0.765
359.15	0.769
359.36	0.768
359.56	0.763
359.77	0.760
359.98	0.767
360.19	0.767
360.40	0.764
360.61	0.765
360.81	0.763
361.02	0.763
361.23	0.755
361.44	0.754
361.65	0.756
361.85	0.755
362.06	0.754
362.27	0.756
362.48	0.755
362.69	0.757
362.89	0.751
363.10	0.753
363.31	0.758
363.52	0.761
363.73	0.756
363.93	0.755
364.14	0.757
364.35	0.758
364.56	0.748
364.77	0.751
364.97	0.753
365.18	0.753
365.39	0.748
365.60	0.745
365.81	0.746
366.01	0.745
366.22	0.742
366.43	0.741
366.64	0.743
366.84	0.748
367.05	0.745
367.26	0.745
367.47	0.747
367.68	0.747
367.88	0.744
368.09	0.741
368.30	0.745
368.51	0.744
368.71	0.743
368.92	0.747
369.13	0.745
369.34	0.745
369.55	0.743
369.75	0.743
369.96	0.750
370.17	0.750
370.38	0.747
370.58	0.746
370.79	0.752
371.00	0.750
371.21	0.742
371.41	0.746
371.62	0.749
371.83	0.746
372.04	0.743
372.24	0.736
372.45	0.737
372.66	0.737
372.87	0.734
373.07	0.731
373.28	0.732
373.49	0.736
373.70	0.727
373.90	0.727
374.11	0.736
374.32	0.736
374.53	0.734
374.73	0.735
374.94	0.737
375.15	0.738
375.36	0.734
375.56	0.742
375.77	0.743
375.98	0.743
376.19	0.739
376.39	0.733
376.60	0.736
376.81	0.737
377.02	0.734
377.22	0.733
377.43	0.733
377.64	0.734
377.84	0.724
378.05	0.729
378.26	0.735
378.47	0.735
378.67	0.732
378.88	0.729
379.09	0.729
379.30	0.730
379.50	0.726
379.71	0.729
379.92	0.731
380.12	0.732
380.33	0.723
380.54	0.719
380.75	0.726
380.95	0.726
381.16	0.725
381.37	0.725
381.57	0.726
381.78	0.727
381.99	0.726
382.20	0.726
382.40	0.728
382.61	0.729
382.82	0.725
383.02	0.718
383.23	0.721
383.44	0.722
383.64	0.720
383.85	0.722
384.06	0.726
384.27	0.724
384.47	0.722
384.68	0.723
384.89	0.729
385.09	0.729
385.30	0.728
385.51	0.727
385.71	0.730
385.92	0.731
386.13	0.729
386.33	0.731
386.54	0.732
386.75	0.732
386.95	0.727
387.16	0.722
387.37	0.725
387.58	0.725
387.78	0.723
387.99	0.721
388.20	0.722
388.40	0.719
388.61	0.715
388.82	0.718
389.02	0.720
389.23	0.721
389.44	0.719
389.64	0.719
389.85	0.731
390.06	0.731
390.26	0.731
390.47	0.731
390.68	0.734
390.88	0.732
391.09	0.728
391.30	0.728
391.50	0.727
391.71	0.727
391.92	0.725
392.12	0.716
392.33	0.717
392.53	0.717
392.74	0.716
392.95	0.715
393.15	0.718
393.36	0.719
393.57	0.717
393.77	0.720
393.98	0.722
394.19	0.722
394.39	0.722
394.60	0.724
394.81	0.725
395.01	0.724
395.22	0.722
395.43	0.723
395.63	0.728
395.84	0.729
396.04	0.725
396.25	0.728
396.46	0.730
396.66	0.728
396.87	0.725
397.08	0.723
397.28	0.724
397.49	0.726
397.69	0.722
397.90	0.717
398.11	0.719
398.31	0.719
398.52	0.715
398.73	0.716
398.93	0.715
399.14	0.715
399.34	0.713
399.55	0.715
399.76	0.714
399.96	0.716
400.17	0.715
400.37	0.713
400.58	0.720
400.79	0.721
400.99	0.719
401.20	0.725
401.41	0.726
401.61	0.727
401.82	0.733
402.02	0.732
402.23	0.733
402.44	0.733
402.64	0.733
402.85	0.727
403.05	0.726
403.26	0.725
403.47	0.718
403.67	0.718
403.88	0.719
404.08	0.713
404.29	0.712
404.50	0.711
404.70	0.712
404.91	0.711
405.11	0.708
405.32	0.708
405.52	0.708
405.73	0.708
405.94	0.706
406.14	0.709
406.35	0.711
406.55	0.710
406.76	0.708
406.97	0.709
407.17	0.712
407.38	0.711
407.58	0.710
407.79	0.713
407.99	0.715
408.20	0.716
408.41	0.711
408.61	0.709
408.82	0.710
409.02	0.710
409.23	0.707
409.43	0.706
409.64	0.708
409.84	0.707
410.05	0.704
410.26	0.702
410.46	0.702
410.67	0.701
410.87	0.703
411.08	0.705
411.28	0.707
411.49	0.709
411.69	0.707
411.90	0.708
412.11	0.710
412.31	0.711
412.52	0.709
412.72	0.711
412.93	0.711
413.13	0.710
413.34	0.707
413.54	0.708
413.75	0.709
413.95	0.708
414.16	0.705
414.37	0.708
414.57	0.708
414.78	0.711
414.98	0.708
415.19	0.709
415.39	0.707
415.60	0.708
415.80	0.707
416.01	0.706
416.21	0.709
416.42	0.708
416.62	0.703
416.83	0.703
417.03	0.703
417.24	0.704
417.44	0.702
417.65	0.701
417.86	0.701
418.06	0.699
418.27	0.697
418.47	0.698
418.68	0.699
418.88	0.699
419.09	0.697
419.29	0.698
419.50	0.698
419.70	0.698
419.91	0.696
420.11	0.694
420.32	0.697
420.52	0.697
420.73	0.696
420.93	0.697
421.14	0.698
421.34	0.697
421.55	0.693
421.75	0.693
421.96	0.695
422.16	0.695
422.37	0.694
422.57	0.691
422.78	0.692
422.98	0.689
423.19	0.687
423.39	0.686
423.60	0.690
423.80	0.691
424.01	0.690
424.21	0.692
424.42	0.693
424.62	0.693
424.83	0.692
425.03	0.692
425.23	0.694
425.44	0.694
425.64	0.694
425.85	0.692
426.05	0.693
426.26	0.693
426.46	0.689
426.67	0.688
426.87	0.693
427.08	0.694
427.28	0.692
427.49	0.693
427.69	0.693
427.90	0.693
428.10	0.690
428.31	0.690
428.51	0.692
428.71	0.691
428.92	0.692
429.12	0.690
429.33	0.690
429.53	0.695
429.74	0.698
429.94	0.698
430.15	0.698
430.35	0.697
430.56	0.694
430.76	0.693
430.96	0.694
431.17	0.691
431.37	0.689
431.58	0.687
431.78	0.684
431.99	0.677
432.19	0.679
432.40	0.680
432.60	0.681
432.80	0.684
433.01	0.682
433.21	0.681
433.42	0.683
433.62	0.683
433.83	0.682
434.03	0.685
434.23	0.688
434.44	0.687
434.64	0.685
434.85	0.690
435.05	0.691
435.26	0.691
435.46	0.690
435.66	0.690
435.87	0.689
436.07	0.690
436.28	0.685
436.48	0.682
436.69	0.682
436.89	0.682
437.09	0.676
437.30	0.674
437.50	0.674
437.71	0.686
437.91	0.685
438.11	0.687
438.32	0.690
438.52	0.691
438.73	0.690
438.93	0.687
439.13	0.687
439.34	0.691
439.54	0.689
439.75	0.689
439.95	0.679
440.15	0.683
440.36	0.681
440.56	0.679
440.77	0.680
440.97	0.680
441.17	0.679
441.38	0.681
441.58	0.678
441.79	0.678
441.99	0.676
442.19	0.674
442.40	0.672
442.60	0.672
442.81	0.670
443.01	0.671
443.21	0.671
443.42	0.670
443.62	0.668
443.82	0.668
444.03	0.669
444.23	0.669
444.44	0.670
444.64	0.669
444.84	0.670
445.05	0.670
445.25	0.667
445.45	0.668
445.66	0.671
445.86	0.670
446.06	0.671
446.27	0.671
446.47	0.674
446.68	0.672
446.88	0.671
447.08	0.670
447.29	0.672
447.49	0.672
447.69	0.671
447.90	0.669
448.10	0.673
448.30	0.670
448.51	0.671
448.71	0.668
448.91	0.670
449.12	0.669
449.32	0.670
449.52	0.668
449.73	0.672
449.93	0.672
450.14	0.673
450.34	0.672
450.54	0.675
450.75	0.672
450.95	0.672
451.15	0.671
451.36	0.674
451.56	0.670
451.76	0.669
451.97	0.666
452.17	0.666
452.37	0.665
452.58	0.661
452.78	0.660
452.98	0.663
453.19	0.662
453.39	0.663
453.59	0.662
453.79	0.663
454.00	0.663
454.20	0.663
454.40	0.663
454.61	0.665
454.81	0.666
455.01	0.664
455.22	0.664
455.42	0.666
455.62	0.664
455.83	0.664
456.03	0.667
456.23	0.668
456.44	0.668
456.64	0.667
456.84	0.667
457.04	0.668
457.25	0.667
457.45	0.664
457.65	0.663
457.86	0.663
458.06	0.662
458.26	0.658
458.47	0.657
458.67	0.658
458.87	0.658
459.07	0.656
459.28	0.658
459.48	0.661
459.68	0.661
459.89	0.659
460.09	0.658
460.29	0.659
460.49	0.660
460.70	0.659
460.90	0.659
461.10	0.660
461.31	0.659
461.51	0.656
461.71	0.657
461.91	0.658
462.12	0.659
462.32	0.658
462.52	0.659
462.72	0.662
462.93	0.662
463.13	0.661
463.33	0.662
463.53	0.663
463.74	0.663
463.94	0.658
464.14	0.659
464.35	0.661
464.55	0.661
464.75	0.658
464.95	0.656
465.16	0.658
465.36	0.656
465.56	0.655
465.76	0.654
465.97	0.655
466.17	0.655
466.37	0.653
466.57	0.654
466.78	0.655
466.98	0.655
467.18	0.653
467.38	0.652
467.59	0.654
467.79	0.656
467.99	0.654
468.19	0.656
468.39	0.660
468.60	0.660
468.80	0.658
469.00	0.659
469.20	0.660
469.41	0.660
469.61	0.659
469.81	0.659
470.01	0.658
470.22	0.659
470.42	0.656
470.62	0.653
470.82	0.655
471.02	0.654
471.23	0.652
471.43	0.653
471.63	0.656
471.83	0.655
472.04	0.654
472.24	0.653
472.44	0.658
472.64	0.659
472.84	0.658
473.05	0.657
473.25	0.660
473.45	0.659
473.65	0.657
473.85	0.657
474.06	0.658
474.26	0.658
474.46	0.659
474.66	0.655
474.86	0.655
475.07	0.655
475.27	0.653
475.47	0.651
475.67	0.651
475.87	0.654
476.08	0.650
476.28	0.651
476.48	0.652
476.68	0.651
476.88	0.650
477.09	0.651
477.29	0.653
477.49	0.653
477.69	0.652
477.89	0.652
478.09	0.651
478.30	0.654
478.50	0.651
478.70	0.651
478.90	0.651
479.10	0.653
479.31	0.654
479.51	0.652
479.71	0.653
479.91	0.654
480.11	0.653
480.31	0.653
480.52	0.653
480.72	0.653
480.92	0.651
481.12	0.651
481.32	0.649
481.52	0.646
481.72	0.646
481.93	0.649
482.13	0.650
482.33	0.649
482.53	0.647
482.73	0.647
482.93	0.648
483.14	0.648
483.34	0.647
483.54	0.648
483.74	0.647
483.94	0.647
484.14	0.642
484.34	0.642
484.55	0.643
484.75	0.643
484.95	0.641
485.15	0.640
485.35	0.641
485.55	0.640
485.75	0.638
485.96	0.639
486.16	0.640
486.36	0.639
486.56	0.637
486.76	0.637
486.96	0.637
487.16	0.636
487.36	0.635
487.57	0.634
487.77	0.635
487.97	0.636
488.17	0.634
488.37	0.633
488.57	0.634
488.77	0.634
488.97	0.632
489.18	0.632
489.38	0.635
489.58	0.636
489.78	0.635
489.98	0.634
490.18	0.634
490.38	0.635
490.58	0.634
490.78	0.634
490.98	0.637
491.19	0.637
491.39	0.636
491.59	0.635
491.79	0.638
491.99	0.638
492.19	0.638
492.39	0.641
492.59	0.641
492.79	0.643
492.99	0.643
493.20	0.643
493.40	0.643
493.60	0.645
493.80	0.643
494.00	0.641
494.20	0.641
494.40	0.641
494.60	0.639
494.80	0.643
495.00	0.642
495.20	0.641
495.40	0.639
495.61	0.641
495.81	0.641
496.01	0.644
496.21	0.645
496.41	0.644
496.61	0.645
496.81	0.644
497.01	0.638
497.21	0.638
497.41	0.638
497.61	0.638
497.81	0.635
498.01	0.636
498.21	0.634
498.41	0.632
498.61	0.632
498.82	0.633
499.02	0.636
499.22	0.636
499.42	0.635
499.62	0.637
499.82	0.637
500.02	0.639
500.22	0.637
500.42	0.639
500.62	0.640
500.82	0.640
501.02	0.638
501.22	0.638
501.42	0.637
501.62	0.640
501.82	0.639
502.02	0.639
502.22	0.639
502.42	0.641
502.62	0.638
502.82	0.638
503.02	0.639
503.22	0.639
503.42	0.637
503.63	0.637
503.83	0.635
504.03	0.634
504.23	0.632
504.43	0.633
504.63	0.633
504.83	0.633
505.03	0.633
505.23	0.634
505.43	0.635
505.63	0.636
505.83	0.636
506.03	0.637
506.23	0.639
506.43	0.640
506.63	0.639
506.83	0.638
507.03	0.640
507.23	0.640
507.43	0.638
507.63	0.638
507.83	0.639
508.03	0.639
508.23	0.638
508.43	0.636
508.63	0.638
508.83	0.638
509.03	0.639
509.23	0.638
509.43	0.639
509.63	0.639
509.83	0.638
510.03	0.641
510.23	0.642
510.43	0.642
510.63	0.643
510.83	0.642
511.03	0.644
511.23	0.642
511.43	0.641
511.63	0.643
511.83	0.645
512.03	0.644
512.22	0.642
512.42	0.641
512.62	0.643
512.82	0.642
513.02	0.641
513.22	0.641
513.42	0.643
513.62	0.646
513.82	0.643
514.02	0.643
514.22	0.645
514.42	0.645
514.62	0.645
514.82	0.645
515.02	0.647
515.22	0.650
515.42	0.649
515.62	0.651
515.82	0.650
516.02	0.652
516.22	0.651
516.42	0.652
516.62	0.654
516.82	0.655
517.01	0.654
517.21	0.653
517.41	0.657
517.61	0.657
517.81	0.653
518.01	0.652
518.21	0.652
518.41	0.651
518.61	0.650
518.81	0.651
519.01	0.652
519.21	0.652
519.41	0.651
519.61	0.645
519.81	0.648
520.00	0.649
520.20	0.649
520.40	0.652
520.60	0.654
520.80	0.652
521.00	0.653
521.20	0.654
521.40	0.658
521.60	0.658
521.80	0.658
522.00	0.658
522.20	0.660
522.39	0.659
522.59	0.656
522.79	0.657
522.99	0.659
523.19	0.657
523.39	0.655
523.59	0.653
523.79	0.656
523.99	0.659
524.19	0.658
524.38	0.656
524.58	0.658
524.78	0.659
524.98	0.656
525.18	0.659
525.38	0.660
525.58	0.661
525.78	0.658
525.98	0.656
526.18	0.656
526.37	0.655
526.57	0.657
526.77	0.657
526.97	0.658
527.17	0.658
527.37	0.655
527.57	0.657
527.77	0.658
527.96	0.659
528.16	0.657
528.36	0.658
528.56	0.660
528.76	0.658
528.96	0.657
529.16	0.657
529.36	0.660
529.55	0.660
529.75	0.656
529.95	0.657
530.15	0.658
530.35	0.661
530.55	0.658
530.75	0.658
530.94	0.661
531.14	0.660
531.34	0.659
531.54	0.657
531.74	0.661
531.94	0.664
532.13	0.662
532.33	0.664
532.53	0.663
532.73	0.662
532.93	0.661
533.13	0.662
533.33	0.663
533.52	0.663
533.72	0.666
533.92	0.664
534.12	0.661
534.32	0.661
534.52	0.659
534.71	0.661
534.91	0.665
535.11	0.666
535.31	0.664
535.51	0.666
535.71	0.668
535.90	0.665
536.10	0.667
536.30	0.669
536.50	0.670
536.70	0.670
536.89	0.668
537.09	0.667
537.29	0.668
537.49	0.669
537.69	0.666
537.89	0.667
538.08	0.667
538.28	0.666
538.48	0.666
538.68	0.667
538.88	0.669
539.07	0.669
539.27	0.667
539.47	0.666
539.67	0.667
539.87	0.668
540.06	0.665
540.26	0.665
540.46	0.667
540.66	0.664
540.86	0.662
541.05	0.662
541.25	0.663
541.45	0.664
541.65	0.662
541.84	0.664
542.04	0.664
542.24	0.665
542.44	0.664
542.64	0.665
542.83	0.668
543.03	0.669
543.23	0.667
543.43	0.668
543.62	0.669
543.82	0.669
544.02	0.668
544.22	0.669
544.42	0.672
544.61	0.672
544.81	0.669
545.01	0.668
545.21	0.670
545.40	0.669
545.60	0.668
545.80	0.671
546.00	0.671
546.19	0.671
546.39	0.670
546.59	0.668
546.79	0.669
546.98	0.670
547.18	0.670
547.38	0.670
547.58	0.673
547.77	0.673
547.97	0.668
548.17	0.671
548.37	0.671
548.56	0.671
548.76	0.670
548.96	0.672
549.16	0.675
549.35	0.674
549.55	0.671
549.75	0.672
549.95	0.675
550.14	0.676
550.34	0.673
550.54	0.678
550.73	0.682
550.93	0.682
551.13	0.679
551.33	0.678
551.52	0.680
551.72	0.680
551.92	0.677
552.12	0.678
552.31	0.679
552.51	0.679
552.71	0.674
552.90	0.675
553.10	0.676
553.30	0.676
553.50	0.675
553.69	0.677
553.89	0.678
554.09	0.678
554.28	0.675
554.48	0.677
554.68	0.678
554.87	0.678
555.07	0.674
555.27	0.674
555.47	0.675
555.66	0.675
555.86	0.673
556.06	0.676
556.25	0.677
556.45	0.685
556.65	0.683
556.84	0.685
557.04	0.689
557.24	0.691
557.43	0.690
557.63	0.694
557.83	0.696
558.02	0.697
558.22	0.700
558.42	0.701
558.61	0.694
558.81	0.695
559.01	0.691
559.21	0.690
559.40	0.690
559.60	0.690
559.80	0.686
559.99	0.687
560.19	0.689
560.39	0.683
560.58	0.681
560.78	0.681
560.97	0.684
561.17	0.684
561.37	0.682
561.56	0.683
561.76	0.684
561.96	0.684
562.15	0.682
562.35	0.684
562.55	0.685
562.74	0.684
562.94	0.683
563.14	0.681
563.33	0.681
563.53	0.682
563.73	0.679
563.92	0.681
564.12	0.684
564.31	0.686
564.51	0.684
564.71	0.685
564.90	0.689
565.10	0.690
565.30	0.693
565.49	0.694
565.69	0.696
565.89	0.696
566.08	0.694
566.28	0.695
566.47	0.697
566.67	0.695
566.87	0.692
567.06	0.694
567.26	0.700
567.46	0.696
567.65	0.695
567.85	0.696
568.04	0.700
568.24	0.699
568.44	0.697
568.63	0.695
568.83	0.697
569.02	0.695
569.22	0.691
569.42	0.686
569.61	0.689
569.81	0.687
570.00	0.685
570.20	0.686
570.40	0.687
570.59	0.687
570.79	0.685
570.98	0.683
571.18	0.685
571.38	0.684
571.57	0.682
571.77	0.680
571.96	0.683
572.16	0.681
572.35	0.676
572.55	0.677
572.75	0.675
572.94	0.675
573.14	0.673
573.33	0.673
573.53	0.673
573.73	0.672
573.92	0.670
574.12	0.668
574.31	0.671
574.51	0.672
574.70	0.669
574.90	0.671
575.09	0.673
575.29	0.673
575.49	0.670
575.68	0.671
575.88	0.672
576.07	0.674
576.27	0.671
576.46	0.670
576.66	0.669
576.86	0.668
577.05	0.666
577.25	0.665
577.44	0.666
577.64	0.667
577.83	0.665
578.03	0.666
578.22	0.665
578.42	0.665
578.61	0.663
578.81	0.664
579.00	0.665
579.20	0.665
579.40	0.663
579.59	0.662
579.79	0.663
579.98	0.662
580.18	0.661
580.37	0.661
580.57	0.663
580.76	0.667
580.96	0.665
581.15	0.666
581.35	0.668
581.54	0.668
581.74	0.667
581.93	0.668
582.13	0.670
582.32	0.667
582.52	0.665
582.71	0.664
582.91	0.661
583.10	0.661
583.30	0.659
583.49	0.659
583.69	0.662
583.88	0.663
584.08	0.662
584.27	0.664
584.47	0.667
584.66	0.668
584.86	0.667
585.05	0.670
585.25	0.672
585.44	0.672
585.64	0.670
585.83	0.667
586.03	0.668
586.22	0.666
586.42	0.662
586.61	0.664
586.81	0.666
587.00	0.666
587.20	0.663
587.39	0.664
587.59	0.666
587.78	0.667
587.98	0.667
588.17	0.668
588.37	0.671
588.56	0.672
588.76	0.668
588.95	0.668
589.15	0.672
589.34	0.675
589.54	0.673
589.73	0.674
589.92	0.677
590.12	0.677
590.31	0.675
590.51	0.680
590.70	0.682
590.90	0.682
591.09	0.680
591.29	0.679
591.48	0.679
591.68	0.679
591.87	0.678
592.06	0.677
592.26	0.679
592.45	0.679
592.65	0.673
592.84	0.672
593.04	0.675
593.23	0.676
593.43	0.674
593.62	0.674
593.81	0.674
594.01	0.673
594.20	0.671
594.40	0.669
594.59	0.671
594.79	0.671
594.98	0.670
595.17	0.669
595.37	0.670
595.56	0.673
595.76	0.672
595.95	0.674
596.14	0.677
596.34	0.679
596.53	0.678
596.73	0.680
596.92	0.682
597.12	0.684
597.31	0.684
597.50	0.683
597.70	0.685
597.89	0.684
598.09	0.680
598.28	0.681
598.47	0.684
598.67	0.682
598.86	0.678
599.06	0.680
599.25	0.680
599.44	0.678
599.64	0.675
599.83	0.672
600.03	0.675
600.22	0.676
600.41	0.676
600.61	0.673
600.80	0.675
601.00	0.676
601.19	0.672
601.38	0.671
601.58	0.674
601.77	0.676
601.96	0.678
602.16	0.679
602.35	0.688
602.55	0.685
602.74	0.686
602.93	0.687
603.13	0.693
603.32	0.695
603.51	0.694
603.71	0.697
603.90	0.698
604.09	0.698
604.29	0.696
604.48	0.690
604.68	0.692
604.87	0.690
605.06	0.686
605.26	0.683
605.45	0.683
605.64	0.682
605.84	0.678
606.03	0.677
606.22	0.675
606.42	0.675
606.61	0.671
606.80	0.671
607.00	0.673
607.19	0.673
607.38	0.672
607.58	0.673
607.77	0.676
607.96	0.675
608.16	0.673
608.35	0.678
608.54	0.681
608.74	0.684
608.93	0.688
609.12	0.691
609.32	0.694
609.51	0.697
609.70	0.695
609.90	0.697
610.09	0.702
610.28	0.707
610.48	0.701
610.67	0.702
610.86	0.703
611.06	0.698
611.25	0.696
611.44	0.697
611.64	0.696
611.83	0.699
612.02	0.695
612.21	0.694
612.41	0.693
612.60	0.692
612.79	0.689
612.99	0.689
613.18	0.691
613.37	0.689
613.57	0.686
613.76	0.688
613.95	0.686
614.14	0.686
614.34	0.683
614.53	0.684
614.72	0.686
614.92	0.687
615.11	0.683
615.30	0.680
615.49	0.682
615.69	0.684
615.88	0.679
616.07	0.681
616.26	0.683
616.46	0.684
616.65	0.681
616.84	0.680
617.04	0.681
617.23	0.684
617.42	0.685
617.61	0.688
617.81	0.689
618.00	0.691
618.19	0.689
618.38	0.694
618.58	0.697
618.77	0.698
618.96	0.698
619.15	0.700
619.35	0.702
619.54	0.703
619.73	0.699
619.92	0.701
620.12	0.705
620.31	0.705
620.50	0.699
620.69	0.699
620.89	0.702
621.08	0.703
621.27	0.702
621.46	0.702
621.66	0.705
621.85	0.705
622.04	0.701
622.23	0.702
622.43	0.703
622.62	0.703
622.81	0.703
623.00	0.702
623.19	0.705
623.39	0.704
623.58	0.700
623.77	0.699
623.96	0.703
624.16	0.703
624.35	0.698
624.54	0.701
624.73	0.704
624.92	0.701
625.12	0.698
625.31	0.699
625.50	0.701
625.69	0.703
625.88	0.698
626.08	0.697
626.27	0.699
626.46	0.699
626.65	0.696
626.84	0.697
627.04	0.702
627.23	0.703
627.42	0.699
627.61	0.701
627.80	0.704
628.00	0.705
628.19	0.703
628.38	0.707
628.57	0.709
628.76	0.708
628.96	0.705
629.15	0.706
629.34	0.708
629.53	0.709
629.72	0.704
629.91	0.704
630.11	0.710
630.30	0.710
630.49	0.712
630.68	0.712
630.87	0.715
631.06	0.717
631.26	0.712
631.45	0.714
631.64	0.722
631.83	0.723
632.02	0.720
632.21	0.718
632.41	0.725
632.60	0.720
632.79	0.718
632.98	0.720
633.17	0.721
633.36	0.722
633.55	0.718
633.75	0.714
633.94	0.716
634.13	0.717
634.32	0.714
634.51	0.708
634.70	0.710
634.89	0.710
635.09	0.706
635.28	0.706
635.47	0.708
635.66	0.711
635.85	0.707
636.04	0.709
636.23	0.714
636.43	0.715
636.62	0.714
636.81	0.713
637.00	0.716
637.19	0.719
637.38	0.715
637.57	0.714
637.76	0.715
637.95	0.715
638.15	0.711
638.34	0.708
638.53	0.711
638.72	0.713
638.91	0.710
639.10	0.707
639.29	0.708
639.48	0.709
639.67	0.710
639.87	0.708
640.06	0.714
640.25	0.714
640.44	0.714
640.63	0.713
640.82	0.716
641.01	0.717
641.20	0.717
641.39	0.719
641.58	0.722
641.78	0.719
641.97	0.716
642.16	0.730
642.35	0.730
642.54	0.729
642.73	0.724
642.92	0.722
643.11	0.726
643.30	0.726
643.49	0.720
643.68	0.722
643.87	0.724
644.06	0.724
644.25	0.703
644.45	0.706
644.64	0.708
644.83	0.708
645.02	0.706
645.21	0.704
645.40	0.705
645.59	0.705
645.78	0.699
645.97	0.701
646.16	0.703
646.35	0.703
646.54	0.701
646.73	0.701
646.92	0.702
647.11	0.702
647.30	0.698
647.49	0.700
647.68	0.700
647.88	0.699
648.07	0.693
648.26	0.696
648.45	0.698
648.64	0.694
648.83	0.693
649.02	0.696
649.21	0.707
649.40	0.706
649.59	0.701
649.78	0.702
649.97	0.717
650.16	0.716
650.35	0.709
650.54	0.712
650.73	0.721
650.92	0.717
651.11	0.710
651.30	0.707
651.49	0.712
651.68	0.713
651.87	0.709
652.06	0.698
652.25	0.702
652.44	0.704
652.63	0.702
652.82	0.703
653.01	0.703
653.20	0.701
653.39	0.690
653.58	0.688
653.77	0.686
653.96	0.682
654.15	0.674
654.34	0.672
654.53	0.667
654.72	0.661
654.91	0.652
655.10	0.647
655.29	0.645
655.48	0.643
655.67	0.638
655.86	0.635
656.05	0.633
656.24	0.633
656.43	0.628
656.62	0.627
656.81	0.627
657.00	0.624
657.19	0.621
657.38	0.621
657.57	0.620
657.76	0.622
657.95	0.620
658.14	0.623
658.33	0.626
658.51	0.631
658.70	0.631
658.89	0.632
659.08	0.641
659.27	0.650
659.46	0.650
659.65	0.656
659.84	0.659
660.03	0.662
660.22	0.664
660.41	0.668
660.60	0.668
660.79	0.670
660.98	0.675
661.17	0.674
661.36	0.673
661.55	0.674
661.74	0.672
661.92	0.675
662.11	0.677
662.30	0.675
662.49	0.668
662.68	0.667
662.87	0.670
663.06	0.664
663.25	0.666
663.44	0.666
663.63	0.666
663.82	0.665
664.01	0.660
664.20	0.658
664.38	0.660
664.57	0.661
664.76	0.661
664.95	0.662
665.14	0.667
665.33	0.662
665.52	0.669
665.71	0.674
665.90	0.675
666.09	0.676
666.28	0.674
666.46	0.672
666.65	0.672
666.84	0.670
667.03	0.664
667.22	0.661
667.41	0.663
667.60	0.653
667.79	0.645
667.98	0.646
668.16	0.647
668.35	0.646
668.54	0.643
668.73	0.644
668.92	0.645
669.11	0.645
669.30	0.640
669.49	0.636
669.67	0.638
669.86	0.641
670.05	0.639
670.24	0.637
670.43	0.635
670.62	0.633
670.81	0.629
671.00	0.629
671.18	0.629
671.37	0.628
671.56	0.626
671.75	0.624
671.94	0.621
672.13	0.619
672.32	0.614
672.50	0.614
672.69	0.614
672.88	0.615
673.07	0.611
673.26	0.612
673.45	0.614
673.63	0.614
673.82	0.610
674.01	0.612
674.20	0.611
674.39	0.611
674.58	0.610
674.76	0.610
674.95	0.609
675.14	0.609
675.33	0.605
675.52	0.604
675.71	0.603
675.89	0.603
676.08	0.600
676.27	0.600
676.46	0.600
676.65	0.600
676.84	0.599
677.02	0.601
677.21	0.603
677.40	0.602
677.59	0.599
677.78	0.600
677.96	0.602
678.15	0.601
678.34	0.599
678.53	0.600
678.72	0.600
678.90	0.596
679.09	0.592
679.28	0.588
679.47	0.588
679.66	0.588
679.84	0.584
680.03	0.582
680.22	0.581
680.41	0.583
680.60	0.579
680.78	0.578
680.97	0.580
681.16	0.581
681.35	0.579
681.53	0.579
681.72	0.580
681.91	0.581
682.10	0.579
682.29	0.582
682.47	0.579
682.66	0.579
682.85	0.578
683.04	0.576
683.22	0.575
683.41	0.577
683.60	0.576
683.79	0.576
683.97	0.576
684.16	0.575
684.35	0.571
684.54	0.572
684.72	0.572
684.91	0.573
685.10	0.572
685.29	0.573
685.47	0.571
685.66	0.570
685.85	0.567
686.04	0.566
686.22	0.569
686.41	0.572
686.60	0.569
686.79	0.571
686.97	0.572
687.16	0.574
687.35	0.571
687.54	0.575
687.72	0.579
687.91	0.579
688.10	0.581
688.29	0.580
688.47	0.578
688.66	0.578
688.85	0.575
689.03	0.572
689.22	0.576
689.41	0.576
689.60	0.572
689.78	0.569
689.97	0.569
690.16	0.567
690.34	0.564
690.53	0.563
690.72	0.563
690.91	0.561
691.09	0.560
691.28	0.555
691.47	0.553
691.65	0.551
691.84	0.548
692.03	0.547
692.21	0.545
692.40	0.544
692.59	0.542
692.77	0.541
692.96	0.542
693.15	0.543
693.34	0.540
693.52	0.540
693.71	0.541
693.90	0.542
694.08	0.543
694.27	0.544
694.46	0.552
694.64	0.553
694.83	0.553
695.02	0.551
695.20	0.551
695.39	0.551
695.58	0.550
695.76	0.551
695.95	0.550
696.14	0.549
696.32	0.547
696.51	0.538
696.70	0.538
696.88	0.539
697.07	0.538
697.26	0.539
697.44	0.540
697.63	0.539
697.81	0.537
698.00	0.537
698.19	0.536
698.37	0.536
698.56	0.535
698.75	0.535
698.93	0.535
699.12	0.534
699.31	0.533
699.49	0.532
699.68	0.533
699.87	0.536
700.05	0.536
700.24	0.535
700.42	0.537
700.61	0.536
700.80	0.535
700.98	0.534
701.17	0.536
701.36	0.536
701.54	0.535
701.73	0.536
701.91	0.534
702.10	0.534
702.29	0.532
702.47	0.531
702.66	0.533
702.84	0.534
703.03	0.532
703.22	0.533
703.40	0.533
703.59	0.535
703.77	0.534
703.96	0.534
704.15	0.534
704.33	0.534
704.52	0.534
704.70	0.533
704.89	0.533
705.08	0.531
705.26	0.527
705.45	0.527
705.63	0.526
705.82	0.523
706.00	0.522
706.19	0.522
706.38	0.521
706.56	0.521
706.75	0.519
706.93	0.518
707.12	0.520
707.30	0.520
707.49	0.518
707.68	0.516
707.86	0.516
708.05	0.515
708.23	0.512
708.42	0.513
708.60	0.515
708.79	0.515
708.98	0.513
709.16	0.512
709.35	0.515
709.53	0.518
709.72	0.518
709.90	0.519
710.09	0.521
710.27	0.523
710.46	0.526
710.64	0.525
710.83	0.527
711.02	0.528
711.20	0.527
711.39	0.526
711.57	0.523
711.76	0.524
711.94	0.522
712.13	0.523
712.31	0.523
712.50	0.519
712.68	0.516
712.87	0.517
713.05	0.517
713.24	0.518
713.42	0.517
713.61	0.518
713.79	0.518
713.98	0.518
714.16	0.519
714.35	0.519
714.54	0.520
714.72	0.520
714.91	0.517
715.09	0.523
715.28	0.526
715.46	0.525
715.65	0.523
715.83	0.523
716.02	0.525
716.20	0.521
716.39	0.520
716.57	0.522
716.76	0.523
716.94	0.524
717.12	0.518
717.31	0.519
717.49	0.522
717.68	0.523
717.86	0.523
718.05	0.525
718.23	0.527
718.42	0.530
718.60	0.532
718.79	0.539
718.97	0.541
719.16	0.540
719.34	0.538
719.53	0.537
719.71	0.538
719.90	0.540
720.08	0.536
720.27	0.536
720.45	0.536
720.63	0.534
720.82	0.528
721.00	0.530
721.19	0.534
721.37	0.533
721.56	0.534
721.74	0.536
721.93	0.544
722.11	0.552
722.30	0.551
722.48	0.554
722.66	0.556
722.85	0.556
723.03	0.556
723.22	0.555
723.40	0.558
723.59	0.558
723.77	0.561
723.95	0.555
724.14	0.556
724.32	0.558
724.51	0.558
724.69	0.559
724.88	0.560
725.06	0.558
725.24	0.559
725.43	0.560
725.61	0.562
725.80	0.555
725.98	0.553
726.16	0.549
726.35	0.555
726.53	0.554
726.72	0.552
726.90	0.562
727.09	0.563
727.27	0.569
727.45	0.566
727.64	0.575
727.82	0.584
728.01	0.589
728.19	0.585
728.37	0.590
728.56	0.594
728.74	0.601
728.92	0.589
729.11	0.591
729.29	0.591
729.48	0.592
729.66	0.582
729.84	0.583
730.03	0.585
730.21	0.589
730.40	0.579
730.58	0.580
730.76	0.580
730.95	0.584
731.13	0.584
731.31	0.597
731.50	0.606
731.68	0.609
731.86	0.603
732.05	0.618
732.23	0.620
732.42	0.623
732.60	0.626
732.78	0.630
732.97	0.648
733.15	0.654
733.33	0.641
733.52	0.647
733.70	0.658
733.88	0.667
734.07	0.653
734.25	0.679
734.43	0.687
734.62	0.689
734.80	0.685
734.98	0.675
735.17	0.680
735.35	0.685
735.53	0.674
735.72	0.676
735.90	0.698
736.08	0.715
736.27	0.692
736.45	0.701
736.63	0.713
736.82	0.722
737.00	0.721
737.18	0.732
737.37	0.763
737.55	0.785
737.73	0.780
737.92	0.780
738.10	0.779
738.28	0.798
738.46	0.787
738.65	0.797
738.83	0.815
739.01	0.870
739.20	0.865
739.38	0.848
739.56	0.841
739.75	0.846
739.93	0.814
740.11	0.840
740.29	0.840
740.48	0.847
740.66	0.828
740.84	0.825
741.03	0.789
741.21	0.800
741.39	0.780
741.57	0.792
741.76	0.809
741.94	0.818
742.12	0.782
742.31	0.788
742.49	0.806
742.67	0.828
742.85	0.841
743.04	0.840
743.22	0.846
743.40	0.898
743.58	0.878
743.77	0.890
743.95	0.919
744.13	0.968
744.31	0.951
744.50	0.945
744.68	0.946
744.86	0.917
745.04	0.930
745.23	0.988
745.41	0.972
745.59	0.977
745.77	0.946
745.96	0.932
746.14	0.940
746.32	0.937
746.50	0.929
746.69	0.913
746.87	0.925
747.05	0.909
747.23	0.841
747.42	0.829
747.60	0.854
747.78	0.855
747.96	0.885
748.14	0.842
748.33	0.867
748.51	0.864
748.69	0.856
748.87	0.885
749.06	0.883
749.24	0.883
749.42	0.870
749.60	0.854
749.78	0.863
749.97	0.818
750.15	0.815
750.33	0.816
750.51	0.834
750.69	0.840
750.88	0.843
751.06	0.856
751.24	0.878
751.42	0.870
751.60	0.862
751.79	0.928
751.97	0.971
752.15	0.971
752.33	0.938
752.51	1.003
752.69	1.021
752.88	0.986
753.06	1.022
753.24	1.000
753.42	1.033
753.60	1.180
753.78	1.049
753.97	1.072
754.15	1.084
754.33	1.112
754.51	0.997
754.69	0.982
754.87	1.010
755.06	0.949
755.24	0.951
755.42	0.959
755.60	0.866
755.78	0.874
755.96	0.822
756.15	0.823
756.33	0.831
756.51	0.847
756.69	0.834
756.87	0.803
757.05	0.819
757.23	0.807
757.42	0.776
757.60	0.776
757.78	0.767
757.96	0.765
758.14	0.748
758.32	0.732
758.50	0.745
758.69	0.743
758.87	0.733
759.05	0.735
759.23	0.745
759.41	0.745
759.59	0.736
759.77	0.755
759.95	0.782
760.13	0.829
760.32	0.829
760.50	0.822
760.68	0.846
760.86	0.851
761.04	0.827
761.22	0.826
761.40	0.872
761.58	0.874
761.76	0.848
761.95	0.831
762.13	0.789
762.31	0.788
762.49	0.759
762.67	0.776
762.85	0.788
763.03	0.784
763.21	0.768
763.39	0.749
763.57	0.754
763.75	0.752
763.94	0.737
764.12	0.737
764.30	0.761
764.48	0.766
764.66	0.730
764.84	0.727
765.02	0.761
765.20	0.769
765.38	0.750
765.56	0.755
765.74	0.789
765.92	0.788
766.10	0.796
766.28	0.787
766.46	0.814
766.65	0.818
766.83	0.806
767.01	0.790
767.19	0.796
767.37	0.798
767.55	0.783
767.73	0.766
767.91	0.772
768.09	0.761
768.27	0.752
768.45	0.741
768.63	0.743
768.81	0.746
768.99	0.723
769.17	0.744
769.35	0.758
769.53	0.757
769.71	0.739
769.89	0.745
770.07	0.750
770.25	0.734
770.43	0.715
770.61	0.739
770.79	0.746
770.97	0.753
771.15	0.724
771.33	0.725
771.51	0.727
771.69	0.741
771.87	0.751
772.05	0.757
772.24	0.765
772.42	0.773
772.60	0.751
772.78	0.806
772.96	0.833
773.14	0.830
773.32	0.809
773.49	0.818
773.67	0.814
773.85	0.791
774.03	0.779
774.21	0.808
774.39	0.819
774.57	0.839
774.75	0.772
774.93	0.770
775.11	0.789
775.29	0.793
775.47	0.791
775.65	0.798
775.83	0.816
776.01	0.837
776.19	0.793
776.37	0.796
776.55	0.797
776.73	0.795
776.91	0.787
777.09	0.773
777.27	0.774
777.45	0.763
777.63	0.742
777.81	0.737
777.99	0.725
778.17	0.724
778.35	0.704
778.53	0.691
778.71	0.697
778.89	0.685
779.07	0.673
779.24	0.679
779.42	0.682
779.60	0.699
779.78	0.695
779.96	0.701
780.14	0.709
780.32	0.727
780.50	0.713
780.68	0.710
780.86	0.704
781.04	0.723
781.22	0.727
781.40	0.737
781.58	0.728
781.75	0.721
781.93	0.703
782.11	0.704
782.29	0.693
782.47	0.690
782.65	0.679
782.83	0.706
783.01	0.698
783.19	0.692
783.37	0.679
783.55	0.682
783.72	0.700
783.90	0.710
784.08	0.701
784.26	0.711
784.44	0.732
784.62	0.734
784.80	0.703
784.98	0.708
785.16	0.714
785.33	0.726
785.51	0.711
785.69	0.697
785.87	0.696
786.05	0.706
786.23	0.704
786.41	0.699
786.59	0.705
786.77	0.705
786.94	0.693
787.12	0.696
787.30	0.697
787.48	0.695
787.66	0.685
787.84	0.687
788.02	0.677
788.19	0.675
788.37	0.662
788.55	0.666
788.73	0.667
788.91	0.661
789.09	0.643
789.27	0.634
789.44	0.645
789.62	0.650
789.80	0.659
789.98	0.681
790.16	0.668
790.34	0.665
790.51	0.653
790.69	0.671
790.87	0.678
791.05	0.677
791.23	0.672
791.41	0.672
791.58	0.679
791.76	0.660
791.94	0.634
792.12	0.644
792.30	0.648
792.48	0.645
792.65	0.637
792.83	0.644
793.01	0.650
793.19	0.647
793.37	0.635
793.54	0.632
793.72	0.641
793.90	0.639
794.08	0.627
794.26	0.627
794.43	0.636
794.61	0.622
794.79	0.610
794.97	0.608
795.15	0.615
795.32	0.619
795.50	0.608
795.68	0.604
795.86	0.609
796.04	0.610
796.21	0.605
796.39	0.603
796.57	0.617
796.75	0.626
796.92	0.626
797.10	0.629
797.28	0.628
797.46	0.632
797.64	0.634
797.81	0.641
797.99	0.645
798.17	0.651
798.35	0.646
798.52	0.649
798.70	0.644
798.88	0.654
799.06	0.652
799.23	0.657
799.41	0.665
799.59	0.657
799.77	0.645
799.94	0.654
800.12	0.660
800.30	0.677
800.48	0.675
800.65	0.676
800.83	0.666
801.01	0.660
801.19	0.660
801.36	0.655
801.54	0.658
801.72	0.668
801.90	0.655
802.07	0.651
802.25	0.638
802.43	0.621
802.60	0.616
802.78	0.622
802.96	0.628
803.14	0.621
803.31	0.620
803.49	0.620
803.67	0.618
803.84	0.622
804.02	0.614
804.20	0.616
804.38	0.623
804.55	0.622
804.73	0.609
804.91	0.609
805.08	0.622
805.26	0.619
805.44	0.684
805.61	0.685
805.79	0.683
805.97	0.683
806.15	0.676
806.32	0.670
806.50	0.677
806.68	0.678
806.85	0.669
807.03	0.658
807.21	0.673
807.38	0.607
807.56	0.597
807.74	0.608
807.91	0.614
808.09	0.615
808.27	0.631
808.44	0.656
808.62	0.665
808.80	0.667
808.97	0.664
809.15	0.658
809.33	0.673
809.50	0.680
809.68	0.665
809.86	0.674
810.03	0.703
810.21	0.686
810.39	0.669
810.56	0.672
810.74	0.693
810.91	0.762
811.09	0.751
811.27	0.771
811.44	0.778
811.62	0.780
811.80	0.764
811.97	0.735
812.15	0.735
812.33	0.730
812.50	0.718
812.68	0.706
812.85	0.653
813.03	0.654
813.21	0.624
813.38	0.618
813.56	0.623
813.74	0.633
813.91	0.641
814.09	0.671
814.26	0.665
814.44	0.669
814.62	0.660
814.79	0.664
814.97	0.671
815.14	0.673
815.32	0.675
815.50	0.690
815.67	0.692
815.85	0.681
816.02	0.669
816.20	0.676
816.38	0.688
816.55	0.692
816.73	0.690
816.90	0.699
817.08	0.729
817.26	0.736
817.43	0.715
817.61	0.739
817.78	0.758
817.96	0.738
818.13	0.729
818.31	0.729
818.49	0.740
818.66	0.730
818.84	0.716
819.01	0.697
819.19	0.701
819.36	0.705
819.54	0.675
819.71	0.713
819.89	0.726
820.07	0.739
820.24	0.733
820.42	0.735
820.59	0.755
820.77	0.776
820.94	0.766
821.12	0.788
821.29	0.802
821.47	0.805
821.64	0.745
821.82	0.758
822.00	0.753
822.17	0.751
822.35	0.742
822.52	0.745
822.70	0.735
822.87	0.744
823.05	0.722
823.22	0.731
823.40	0.759
823.57	0.779
823.75	0.759
823.92	0.784
824.10	0.800
824.27	0.842
824.45	0.832
824.62	0.896
824.80	0.915
824.97	0.930
825.15	0.926
825.32	0.935
825.50	0.936
825.67	0.948
825.85	0.922
826.02	0.942
826.20	0.962
826.37	1.082
826.55	0.998
826.72	1.175
826.90	1.248
827.07	1.282
827.25	1.217
827.42	1.386
827.60	1.541
827.77	1.737
827.95	1.699
828.12	1.823
828.30	1.435
828.47	1.568
828.65	1.204
828.82	1.249
829.00	1.303
829.17	1.404
829.34	1.377
829.52	1.405
829.69	-0.000
829.87	-0.000
830.04	-0.000
830.22	-0.000
830.39	-0.000
830.57	-0.000
830.74	-0.000
830.92	-0.000
831.09	-0.000
831.26	-0.000
831.44	-0.000
831.61	-0.000
831.79	-0.000
831.96	-0.000
832.14	-0.000
832.31	-0.000
832.49	-0.000
832.66	-0.000
832.83	-0.000
833.01	-0.000
833.18	-0.000
833.36	-0.000
833.53	-0.000
833.70	-0.000
833.88	-0.000
834.05	-0.000
834.23	-0.000
834.40	-0.000
834.58	-0.000
834.75	-0.000
834.92	-0.000
835.10	-0.000
835.27	-0.000
835.45	-0.000
835.62	-0.000
835.79	-0.000
835.97	-0.000
836.14	-0.000
836.32	-0.000
836.49	-0.000
836.66	-0.000
836.84	-0.000
837.01	-0.000
837.18	-0.000
837.36	-0.000
837.53	-0.000
837.71	-0.000
837.88	-0.000
838.05	-0.000
838.23	-0.000
838.40	-0.000
838.58	-0.000
838.75	-0.000
838.92	-0.000
839.10	-0.000
839.27	-0.000
839.44	-0.000
839.62	-0.000
839.79	-0.000
839.96	-0.000
840.14	-0.000
840.31	-0.000
840.48	-0.000
840.66	-0.000
840.83	-0.000
841.01	-0.000
841.18	-0.000
841.35	-0.000
841.53	-0.000
841.70	-0.000
841.87	-0.000
842.05	-0.000
842.22	-0.000
842.39	-0.000
842.57	-0.000
842.74	-0.000
842.91	-0.000
843.09	-0.000
843.26	-0.000
843.43	-0.000
843.60	-0.000
843.78	-0.000
843.95	-0.000
844.12	-0.000
844.30	-0.000
844.47	-0.000
844.64	-0.000
844.82	-0.000
844.99	-0.000
845.16	-0.000
845.34	-0.000
845.51	-0.000
845.68	-0.000
845.85	-0.000
846.03	-0.000
846.20	-0.000
846.37	-0.000
846.55	-0.000
846.72	-0.000
846.89	-0.000
847.06	-0.000
847.24	-0.000
847.41	-0.000
847.58	-0.000
847.76	-0.000
847.93	-0.000
848.10	-0.000
848.27	-0.000
848.45	-0.000
848.62	-0.000
848.79	-0.000
848.97	-0.000
849.14	-0.000
849.31	-0.000
849.48	-0.000
849.66	-0.000
849.83	-0.000
850.00	-0.000
850.17	-0.000
850.35	-0.000
850.52	-0.000
850.69	-0.000
850.86	-0.000
851.04	-0.000
851.21	-0.000
851.38	-0.000
851.55	-0.000
851.72	-0.000
851.90	-0.000
852.07	-0.000
852.24	-0.000
852.41	-0.000
852.59	-0.000
852.76	-0.000
852.93	-0.000
853.10	-0.000
853.28	-0.000
853.45	-0.000
853.62	-0.000
853.79	-0.000
853.96	-0.000
854.14	-0.000
854.31	-0.000
854.48	-0.000
854.65	-0.000
854.82	-0.000
855.00	-0.000
855.17	-0.000
855.34	-0.000
855.51	-0.000
855.68	-0.000
855.86	-0.000
856.03	-0.000
856.20	-0.000
856.37	-0.000
856.54	-0.000
856.72	-0.000
856.89	-0.000
857.06	-0.000
857.23	-0.000
857.40	-0.000
857.57	-0.000
857.75	-0.000
857.92	-0.000
858.09	-0.000
858.26	-0.000
858.43	-0.000
858.60	-0.000
858.78	-0.000
858.95	-0.000
859.12	-0.000
859.29	-0.000
859.46	-0.000
859.63	-0.000
859.81	-0.000
859.98	-0.000
860.15	-0.000
860.32	-0.000
860.49	-0.000
860.66	-0.000
860.83	-0.000
861.01	-0.000
861.18	-0.000
861.35	-0.000
861.52	-0.000
861.69	-0.000
861.86	-0.000
862.03	-0.000
862.21	-0.000
862.38	-0.000
862.55	-0.000
862.72	-0.000
862.89	-0.000
863.06	-0.000
863.23	-0.000
863.40	-0.000
863.58	-0.000
863.75	-0.000
863.92	-0.000
864.09	-0.000
864.26	-0.000
864.43	-0.000
864.60	-0.000
864.77	-0.000
864.94	-0.000
865.11	-0.000
865.29	-0.000
865.46	-0.000
865.63	-0.000
865.80	-0.000
865.97	-0.000
866.14	-0.000
866.31	-0.000
866.48	-0.000
866.65	-0.000
866.82	-0.000
866.99	-0.000
867.16	-0.000
867.34	-0.000
867.51	-0.000
867.68	-0.000
867.85	-0.000
868.02	-0.000
868.19	-0.000
868.36	-0.000
868.53	-0.000
868.70	-0.000
868.87	-0.000
869.04	-0.000
869.21	-0.000
869.38	-0.000
869.55	-0.000
869.72	-0.000
869.89	-0.000
870.06	-0.000
870.24	-0.000
870.41	-0.000
870.58	-0.000
870.75	-0.000
870.92	-0.000
871.09	-0.000
871.26	-0.000
871.43	-0.000
871.60	-0.000
871.77	-0.000
871.94	-0.000
872.11	-0.000
872.28	-0.000
872.45	-0.000
872.62	-0.000
872.79	-0.000
872.96	-0.000
873.13	-0.000
873.30	-0.000
873.47	-0.000
873.64	-0.000
873.81	-0.000
873.98	-0.000
874.15	-0.000
874.32	-0.000
874.49	-0.000
874.66	-0.000
874.83	-0.000
875.00	-0.000
875.17	-0.000
875.34	-0.000
875.51	-0.000
875.68	-0.000
875.85	-0.000
876.02	-0.000
876.19	-0.000
876.36	-0.000
876.53	-0.000
876.70	-0.000
876.87	-0.000
877.04	-0.000
877.21	-0.000
877.38	-0.000
877.55	-0.000
877.72	-0.000
877.89	-0.000
878.06	-0.000
878.23	-0.000
878.39	-0.000
878.56	-0.000
878.73	-0.000
878.90	-0.000
879.07	-0.000
879.24	-0.000
879.41	-0.000
879.58	-0.000
879.75	-0.000
879.92	-0.000
880.09	-0.000
880.26	-0.000
880.43	-0.000
880.60	-0.000
880.77	-0.000
880.94	-0.000
881.11	-0.000
881.27	-0.000
881.44	-0.000
881.61	-0.000
881.78	-0.000
881.95	-0.000
882.12	-0.000
882.29	-0.000
882.46	-0.000
882.63	-0.000
882.80	-0.000
882.97	-0.000
883.14	-0.000
883.30	-0.000
883.47	-0.000
883.64	-0.000
883.81	-0.000
883.98	-0.000
884.15	-0.000
884.32	-0.000
884.49	-0.000
884.66	-0.000
884.82	-0.000
884.99	-0.000
885.16	-0.000
885.33	-0.000
885.50	-0.000
885.67	-0.000
885.84	-0.000
886.01	-0.000
886.17	-0.000
886.34	-0.000
886.51	-0.000
886.68	-0.000
886.85	-0.000
887.02	-0.000
887.19	-0.000
887.36	-0.000
887.52	-0.000
887.69	-0.000
887.86	-0.000
888.03	-0.000
888.20	-0.000
888.37	-0.000
888.54	-0.000
888.70	-0.000
888.87	-0.000
889.04	-0.000
889.21	-0.000
889.38	-0.000
889.55	-0.000
889.71	-0.000
889.88	-0.000
890.05	-0.000
890.22	-0.000
890.39	-0.000
>>>>>End Processed Spectral Data<<<<<
