SpectraSuite Data File
++++++++++++++++++++++++++++++++++++
Date: Fri Jun 19 14:40:14 CEST 2015
User: introlabs
Dark Spectrum Present: Yes
Reference Spectrum Present: Yes
Number of Sampled Component Spectra: 1
Spectrometers: USB4H08886
Integration Time (usec): 745692 (USB4H08886)
Spectra Averaged: 5 (USB4H08886)
Boxcar Smoothing: 5 (USB4H08886)
Correct for Electrical Dark: Yes (USB4H08886)
Strobe/Lamp Enabled: No (USB4H08886)
Correct for Detector Non-linearity: Yes (USB4H08886)
Correct for Stray Light: Yes (USB4H08886)
Number of Pixels in Processed Spectrum: 3648
>>>>>Begin Processed Spectral Data<<<<<
178.14	-0.000
178.36	-0.000
178.57	-0.000
178.79	-0.000
179.01	-0.000
179.22	-0.000
179.44	-0.000
179.65	-0.000
179.87	-0.000
180.08	-0.000
180.30	-0.000
180.52	-0.000
180.73	-0.000
180.95	-0.000
181.16	-0.000
181.38	-0.000
181.59	-0.000
181.81	-0.000
182.03	-0.000
182.24	-0.000
182.46	-0.000
182.67	-0.000
182.89	-0.000
183.10	-0.000
183.32	-0.000
183.54	-0.000
183.75	-0.000
183.97	-0.000
184.18	-0.000
184.40	-0.000
184.61	-0.000
184.83	-0.000
185.04	-0.000
185.26	-0.000
185.48	-0.000
185.69	-0.000
185.91	-0.000
186.12	-0.000
186.34	-0.000
186.55	-0.000
186.77	-0.000
186.98	-0.000
187.20	-0.000
187.42	-0.000
187.63	-0.000
187.85	-0.000
188.06	-0.000
188.28	-0.000
188.49	-0.000
188.71	-0.000
188.92	-0.000
189.14	-0.000
189.36	-0.000
189.57	-0.000
189.79	-0.000
190.00	-0.000
190.22	-0.000
190.43	-0.000
190.65	-0.000
190.86	-0.000
191.08	-0.000
191.29	-0.000
191.51	-0.000
191.72	-0.000
191.94	-0.000
192.16	-0.000
192.37	-0.000
192.59	-0.000
192.80	-0.000
193.02	-0.000
193.23	-0.000
193.45	-0.000
193.66	-0.000
193.88	-0.000
194.09	-0.000
194.31	-0.000
194.52	-0.000
194.74	-0.000
194.95	-0.000
195.17	-0.000
195.38	-0.000
195.60	-0.000
195.81	-0.000
196.03	-0.000
196.25	-0.000
196.46	-0.000
196.68	-0.000
196.89	-0.000
197.11	-0.000
197.32	-0.000
197.54	-0.000
197.75	-0.000
197.97	-0.000
198.18	-0.000
198.40	-0.000
198.61	-0.000
198.83	-0.000
199.04	-0.000
199.26	-0.000
199.47	-0.000
199.69	-0.000
199.90	-0.000
200.12	-0.000
200.33	-0.000
200.55	-0.000
200.76	-0.000
200.98	-0.000
201.19	-0.000
201.41	-0.000
201.62	-0.000
201.84	-0.000
202.05	-0.000
202.27	-0.000
202.48	-0.000
202.70	-0.000
202.91	-0.000
203.13	-0.000
203.34	-0.000
203.56	-0.000
203.77	-0.000
203.99	-0.000
204.20	-0.000
204.42	-0.000
204.63	-0.000
204.85	-0.000
205.06	-0.000
205.28	-0.000
205.49	-0.000
205.71	-0.000
205.92	-0.000
206.14	-0.000
206.35	-0.000
206.56	-0.000
206.78	-0.000
206.99	-0.000
207.21	-0.000
207.42	-0.000
207.64	-0.000
207.85	-0.000
208.07	-0.000
208.28	-0.000
208.50	-0.000
208.71	-0.000
208.93	-0.000
209.14	-0.000
209.36	-0.000
209.57	-0.000
209.79	-0.000
210.00	-0.000
210.22	-0.000
210.43	-0.000
210.64	-0.000
210.86	-0.000
211.07	-0.000
211.29	-0.000
211.50	-0.000
211.72	-0.000
211.93	-0.000
212.15	-0.000
212.36	-0.000
212.58	-0.000
212.79	-0.000
213.01	-0.000
213.22	-0.000
213.43	-0.000
213.65	-0.000
213.86	-0.000
214.08	-0.000
214.29	-0.000
214.51	-0.000
214.72	-0.000
214.94	-0.000
215.15	-0.000
215.36	-0.000
215.58	-0.000
215.79	-0.000
216.01	-0.000
216.22	-0.000
216.44	-0.000
216.65	-0.000
216.87	-0.000
217.08	-0.000
217.29	-0.000
217.51	-0.000
217.72	-0.000
217.94	-0.000
218.15	-0.000
218.37	-0.000
218.58	-0.000
218.80	-0.000
219.01	-0.000
219.22	-0.000
219.44	-0.000
219.65	-0.000
219.87	-0.000
220.08	-0.000
220.30	-0.000
220.51	-0.000
220.72	-0.000
220.94	-0.000
221.15	-0.000
221.37	-0.000
221.58	-0.000
221.79	-0.000
222.01	-0.000
222.22	-0.000
222.44	-0.000
222.65	-0.000
222.87	-0.000
223.08	-0.000
223.29	-0.000
223.51	-0.000
223.72	-0.000
223.94	-0.000
224.15	-0.000
224.36	-0.000
224.58	-0.000
224.79	-0.000
225.01	-0.000
225.22	-0.000
225.44	-0.000
225.65	-0.000
225.86	-0.000
226.08	-0.000
226.29	-0.000
226.51	-0.000
226.72	-0.000
226.93	-0.000
227.15	-0.000
227.36	-0.000
227.58	-0.000
227.79	-0.000
228.00	-0.000
228.22	-0.000
228.43	-0.000
228.65	-0.000
228.86	-0.000
229.07	-0.000
229.29	-0.000
229.50	-0.000
229.72	-0.000
229.93	-0.000
230.14	-0.000
230.36	-0.000
230.57	-0.000
230.78	-0.000
231.00	-0.000
231.21	-0.000
231.43	-0.000
231.64	-0.000
231.85	-0.000
232.07	-0.000
232.28	-0.000
232.50	-0.000
232.71	-0.000
232.92	-0.000
233.14	-0.000
233.35	-0.000
233.56	-0.000
233.78	-0.000
233.99	-0.000
234.21	-0.000
234.42	-0.000
234.63	-0.000
234.85	-0.000
235.06	-0.000
235.27	-0.000
235.49	-0.000
235.70	-0.000
235.91	-0.000
236.13	-0.000
236.34	-0.000
236.56	-0.000
236.77	-0.000
236.98	-0.000
237.20	-0.000
237.41	-0.000
237.62	-0.000
237.84	-0.000
238.05	-0.000
238.26	-0.000
238.48	-0.000
238.69	-0.000
238.91	-0.000
239.12	-0.000
239.33	-0.000
239.55	-0.000
239.76	-0.000
239.97	-0.000
240.19	-0.000
240.40	-0.000
240.61	-0.000
240.83	-0.000
241.04	-0.000
241.25	-0.000
241.47	-0.000
241.68	-0.000
241.89	-0.000
242.11	-0.000
242.32	-0.000
242.53	-0.000
242.75	-0.000
242.96	-0.000
243.17	-0.000
243.39	-0.000
243.60	-0.000
243.81	-0.000
244.03	-0.000
244.24	-0.000
244.45	-0.000
244.67	-0.000
244.88	-0.000
245.09	-0.000
245.31	-0.000
245.52	-0.000
245.73	-0.000
245.95	-0.000
246.16	-0.000
246.37	-0.000
246.59	-0.000
246.80	-0.000
247.01	-0.000
247.23	-0.000
247.44	-0.000
247.65	-0.000
247.87	-0.000
248.08	-0.000
248.29	-0.000
248.51	-0.000
248.72	-0.000
248.93	-0.000
249.15	-0.000
249.36	-0.000
249.57	-0.000
249.78	-0.000
250.00	-0.000
250.21	-0.000
250.42	-0.000
250.64	-0.000
250.85	-0.000
251.06	-0.000
251.28	-0.000
251.49	-0.000
251.70	-0.000
251.92	-0.000
252.13	-0.000
252.34	-0.000
252.55	-0.000
252.77	-0.000
252.98	-0.000
253.19	-0.000
253.41	-0.000
253.62	-0.000
253.83	-0.000
254.05	-0.000
254.26	-0.000
254.47	-0.000
254.68	-0.000
254.90	-0.000
255.11	-0.000
255.32	-0.000
255.54	-0.000
255.75	-0.000
255.96	-0.000
256.17	-0.000
256.39	-0.000
256.60	-0.000
256.81	-0.000
257.03	-0.000
257.24	-0.000
257.45	-0.000
257.66	-0.000
257.88	-0.000
258.09	-0.000
258.30	-0.000
258.51	-0.000
258.73	-0.000
258.94	-0.000
259.15	-0.000
259.37	-0.000
259.58	-0.000
259.79	-0.000
260.00	-0.000
260.22	-0.000
260.43	-0.000
260.64	-0.000
260.85	-0.000
261.07	-0.000
261.28	-0.000
261.49	-0.000
261.71	-0.000
261.92	-0.000
262.13	-0.000
262.34	-0.000
262.56	-0.000
262.77	-0.000
262.98	-0.000
263.19	-0.000
263.41	-0.000
263.62	-0.000
263.83	-0.000
264.04	-0.000
264.26	-0.000
264.47	-0.000
264.68	-0.000
264.89	-0.000
265.11	-0.000
265.32	-0.000
265.53	-0.000
265.74	-0.000
265.96	-0.000
266.17	-0.000
266.38	-0.000
266.59	-0.000
266.81	-0.000
267.02	-0.000
267.23	-0.000
267.44	-0.000
267.65	-0.000
267.87	-0.000
268.08	-0.000
268.29	-0.000
268.50	-0.000
268.72	-0.000
268.93	-0.000
269.14	-0.000
269.35	-0.000
269.57	-0.000
269.78	-0.000
269.99	-0.000
270.20	-0.000
270.41	-0.000
270.63	-0.000
270.84	-0.000
271.05	-0.000
271.26	-0.000
271.48	-0.000
271.69	-0.000
271.90	-0.000
272.11	-0.000
272.32	-0.000
272.54	-0.000
272.75	-0.000
272.96	-0.000
273.17	-0.000
273.39	-0.000
273.60	-0.000
273.81	-0.000
274.02	-0.000
274.23	-0.000
274.45	-0.000
274.66	-0.000
274.87	-0.000
275.08	-0.000
275.29	-0.000
275.51	-0.000
275.72	-0.000
275.93	-0.000
276.14	-0.000
276.35	-0.000
276.57	-0.000
276.78	-0.000
276.99	-0.000
277.20	-0.000
277.41	-0.000
277.63	-0.000
277.84	-0.000
278.05	-0.000
278.26	-0.000
278.47	-0.000
278.69	-0.000
278.90	-0.000
279.11	-0.000
279.32	-0.000
279.53	-0.000
279.74	-0.000
279.96	-0.000
280.17	-0.000
280.38	-0.000
280.59	-0.000
280.80	-0.000
281.02	-0.000
281.23	-0.000
281.44	-0.000
281.65	-0.000
281.86	-0.000
282.07	-0.000
282.29	-0.000
282.50	-0.000
282.71	-0.000
282.92	-0.000
283.13	-0.000
283.35	-0.000
283.56	-0.000
283.77	-0.000
283.98	-0.000
284.19	-0.000
284.40	-0.000
284.62	-0.000
284.83	-0.000
285.04	-0.000
285.25	-0.000
285.46	-0.000
285.67	-0.000
285.88	-0.000
286.10	-0.000
286.31	-0.000
286.52	-0.000
286.73	-0.000
286.94	-0.000
287.15	-0.000
287.37	-0.000
287.58	-0.000
287.79	-0.000
288.00	-0.000
288.21	-0.000
288.42	-0.000
288.63	-0.000
288.85	-0.000
289.06	-0.000
289.27	-0.000
289.48	-0.000
289.69	-0.000
289.90	-0.000
290.11	-0.000
290.33	-0.000
290.54	-0.000
290.75	-0.000
290.96	-0.000
291.17	-0.000
291.38	-0.000
291.59	-0.000
291.81	-0.000
292.02	-0.000
292.23	-0.000
292.44	-0.000
292.65	-0.000
292.86	-0.000
293.07	-0.000
293.28	-0.000
293.50	-0.000
293.71	-0.000
293.92	-0.000
294.13	-0.000
294.34	-0.000
294.55	-0.000
294.76	-0.000
294.97	-0.000
295.19	-0.000
295.40	-0.000
295.61	-0.000
295.82	-0.000
296.03	-0.000
296.24	-0.000
296.45	2.304
296.66	1.833
296.87	1.864
297.09	1.947
297.30	2.232
297.51	1.757
297.72	1.729
297.93	1.839
298.14	1.812
298.35	1.758
298.56	1.730
298.77	1.885
298.99	1.874
299.20	1.828
299.41	1.794
299.62	1.736
299.83	1.730
300.04	1.650
300.25	1.631
300.46	1.666
300.67	1.636
300.88	1.578
301.10	1.576
301.31	1.646
301.52	1.575
301.73	1.524
301.94	1.517
302.15	1.536
302.36	1.488
302.57	1.429
302.78	1.440
302.99	1.485
303.20	1.505
303.41	1.412
303.63	1.396
303.84	1.404
304.05	1.398
304.26	1.340
304.47	1.340
304.68	1.346
304.89	1.332
305.10	1.291
305.31	1.278
305.52	1.325
305.73	1.314
305.94	1.271
306.15	1.264
306.37	1.287
306.58	1.297
306.79	1.268
307.00	1.290
307.21	1.336
307.42	1.332
307.63	1.295
307.84	1.259
308.05	1.299
308.26	1.302
308.47	1.280
308.68	1.276
308.89	1.276
309.10	1.275
309.31	1.232
309.52	1.222
309.73	1.236
309.95	1.230
310.16	1.202
310.37	1.188
310.58	1.206
310.79	1.206
311.00	1.201
311.21	1.200
311.42	1.202
311.63	1.194
311.84	1.174
312.05	1.172
312.26	1.193
312.47	1.203
312.68	1.179
312.89	1.162
313.10	1.167
313.31	1.141
313.52	1.143
313.73	1.143
313.94	1.148
314.15	1.132
314.36	1.110
314.57	1.103
314.78	1.090
314.99	1.089
315.21	1.076
315.42	1.081
315.63	1.093
315.84	1.071
316.05	1.057
316.26	1.065
316.47	1.081
316.68	1.077
316.89	1.057
317.10	1.080
317.31	1.084
317.52	1.085
317.73	1.064
317.94	1.063
318.15	1.108
318.36	1.105
318.57	1.088
318.78	1.078
318.99	1.114
319.20	1.112
319.41	1.076
319.62	1.076
319.83	1.091
320.04	1.086
320.25	1.071
320.46	1.037
320.67	1.042
320.88	1.037
321.09	1.022
321.30	1.008
321.51	1.022
321.72	1.021
321.93	1.007
322.14	0.999
322.35	1.027
322.56	1.030
322.77	1.017
322.98	1.028
323.19	1.036
323.40	1.044
323.61	1.021
323.82	1.016
324.03	1.020
324.24	1.017
324.45	1.004
324.66	0.984
324.87	0.979
325.08	0.980
325.29	0.961
325.50	0.954
325.71	0.959
325.92	0.966
326.13	0.954
326.34	0.955
326.55	0.963
326.76	0.961
326.97	0.950
327.18	0.946
327.39	0.972
327.60	0.972
327.80	0.972
328.01	0.971
328.22	0.971
328.43	0.974
328.64	0.962
328.85	0.966
329.06	0.968
329.27	0.967
329.48	0.961
329.69	0.942
329.90	0.953
330.11	0.946
330.32	0.938
330.53	0.931
330.74	0.930
330.95	0.928
331.16	0.914
331.37	0.922
331.58	0.923
331.79	0.923
332.00	0.913
332.21	0.906
332.42	0.911
332.63	0.902
332.83	0.898
333.04	0.902
333.25	0.915
333.46	0.914
333.67	0.899
333.88	0.902
334.09	0.912
334.30	0.909
334.51	0.902
334.72	0.896
334.93	0.899
335.14	0.898
335.35	0.890
335.56	0.885
335.77	0.893
335.98	0.892
336.18	0.885
336.39	0.878
336.60	0.882
336.81	0.880
337.02	0.879
337.23	0.883
337.44	0.887
337.65	0.889
337.86	0.879
338.07	0.874
338.28	0.879
338.49	0.877
338.70	0.868
338.91	0.876
339.11	0.883
339.32	0.879
339.53	0.868
339.74	0.864
339.95	0.861
340.16	0.858
340.37	0.851
340.58	0.849
340.79	0.853
341.00	0.854
341.21	0.842
341.41	0.842
341.62	0.843
341.83	0.844
342.04	0.840
342.25	0.851
342.46	0.855
342.67	0.854
342.88	0.847
343.09	0.845
343.30	0.852
343.50	0.855
343.71	0.846
343.92	0.845
344.13	0.850
344.34	0.849
344.55	0.832
344.76	0.831
344.97	0.835
345.18	0.835
345.38	0.832
345.59	0.826
345.80	0.827
346.01	0.824
346.22	0.819
346.43	0.813
346.64	0.822
346.85	0.822
347.06	0.816
347.26	0.815
347.47	0.818
347.68	0.815
347.89	0.811
348.10	0.805
348.31	0.811
348.52	0.810
348.73	0.807
348.93	0.803
349.14	0.806
349.35	0.805
349.56	0.801
349.77	0.795
349.98	0.801
350.19	0.798
350.39	0.795
350.60	0.791
350.81	0.807
351.02	0.806
351.23	0.801
351.44	0.803
351.65	0.806
351.86	0.804
352.06	0.802
352.27	0.802
352.48	0.805
352.69	0.804
352.90	0.798
353.11	0.784
353.31	0.792
353.52	0.788
353.73	0.780
353.94	0.781
354.15	0.786
354.36	0.787
354.57	0.778
354.77	0.779
354.98	0.778
355.19	0.779
355.40	0.779
355.61	0.784
355.82	0.788
356.02	0.787
356.23	0.780
356.44	0.781
356.65	0.784
356.86	0.785
357.07	0.779
357.27	0.782
357.48	0.784
357.69	0.779
357.90	0.764
358.11	0.762
358.32	0.766
358.52	0.769
358.73	0.759
358.94	0.762
359.15	0.766
359.36	0.767
359.56	0.762
359.77	0.759
359.98	0.765
360.19	0.765
360.40	0.761
360.61	0.762
360.81	0.760
361.02	0.761
361.23	0.753
361.44	0.751
361.65	0.751
361.85	0.750
362.06	0.748
362.27	0.751
362.48	0.750
362.69	0.754
362.89	0.747
363.10	0.749
363.31	0.754
363.52	0.757
363.73	0.752
363.93	0.753
364.14	0.755
364.35	0.756
364.56	0.746
364.77	0.748
364.97	0.749
365.18	0.751
365.39	0.744
365.60	0.741
365.81	0.742
366.01	0.741
366.22	0.738
366.43	0.738
366.64	0.740
366.84	0.745
367.05	0.743
367.26	0.742
367.47	0.744
367.68	0.744
367.88	0.740
368.09	0.739
368.30	0.742
368.51	0.741
368.71	0.740
368.92	0.745
369.13	0.742
369.34	0.741
369.55	0.740
369.75	0.740
369.96	0.747
370.17	0.747
370.38	0.744
370.58	0.743
370.79	0.749
371.00	0.746
371.21	0.737
371.41	0.742
371.62	0.747
371.83	0.743
372.04	0.740
372.24	0.733
372.45	0.734
372.66	0.735
372.87	0.732
373.07	0.729
373.28	0.731
373.49	0.734
373.70	0.726
373.90	0.724
374.11	0.734
374.32	0.733
374.53	0.732
374.73	0.732
374.94	0.734
375.15	0.734
375.36	0.731
375.56	0.739
375.77	0.738
375.98	0.738
376.19	0.736
376.39	0.729
376.60	0.733
376.81	0.734
377.02	0.732
377.22	0.731
377.43	0.732
377.64	0.732
377.84	0.723
378.05	0.727
378.26	0.733
378.47	0.733
378.67	0.730
378.88	0.728
379.09	0.729
379.30	0.729
379.50	0.726
379.71	0.728
379.92	0.731
380.12	0.730
380.33	0.722
380.54	0.718
380.75	0.725
380.95	0.724
381.16	0.722
381.37	0.721
381.57	0.723
381.78	0.724
381.99	0.724
382.20	0.723
382.40	0.727
382.61	0.727
382.82	0.724
383.02	0.717
383.23	0.721
383.44	0.721
383.64	0.719
383.85	0.721
384.06	0.724
384.27	0.721
384.47	0.719
384.68	0.718
384.89	0.724
385.09	0.723
385.30	0.723
385.51	0.722
385.71	0.725
385.92	0.726
386.13	0.725
386.33	0.727
386.54	0.728
386.75	0.728
386.95	0.723
387.16	0.719
387.37	0.723
387.58	0.722
387.78	0.719
387.99	0.717
388.20	0.720
388.40	0.717
388.61	0.713
388.82	0.716
389.02	0.718
389.23	0.718
389.44	0.716
389.64	0.716
389.85	0.727
390.06	0.728
390.26	0.728
390.47	0.727
390.68	0.729
390.88	0.727
391.09	0.723
391.30	0.722
391.50	0.723
391.71	0.723
391.92	0.721
392.12	0.713
392.33	0.714
392.53	0.714
392.74	0.714
392.95	0.714
393.15	0.716
393.36	0.718
393.57	0.715
393.77	0.719
393.98	0.720
394.19	0.719
394.39	0.718
394.60	0.720
394.81	0.722
395.01	0.720
395.22	0.718
395.43	0.719
395.63	0.725
395.84	0.726
396.04	0.722
396.25	0.723
396.46	0.726
396.66	0.724
396.87	0.722
397.08	0.719
397.28	0.721
397.49	0.722
397.69	0.719
397.90	0.713
398.11	0.714
398.31	0.715
398.52	0.712
398.73	0.713
398.93	0.712
399.14	0.710
399.34	0.709
399.55	0.710
399.76	0.710
399.96	0.711
400.17	0.709
400.37	0.708
400.58	0.715
400.79	0.716
400.99	0.714
401.20	0.719
401.41	0.722
401.61	0.723
401.82	0.728
402.02	0.728
402.23	0.730
402.44	0.729
402.64	0.729
402.85	0.723
403.05	0.723
403.26	0.722
403.47	0.716
403.67	0.714
403.88	0.715
404.08	0.709
404.29	0.707
404.50	0.707
404.70	0.708
404.91	0.707
405.11	0.704
405.32	0.705
405.52	0.705
405.73	0.705
405.94	0.704
406.14	0.707
406.35	0.708
406.55	0.708
406.76	0.705
406.97	0.707
407.17	0.709
407.38	0.709
407.58	0.707
407.79	0.710
407.99	0.711
408.20	0.712
408.41	0.708
408.61	0.706
408.82	0.707
409.02	0.707
409.23	0.704
409.43	0.703
409.64	0.705
409.84	0.703
410.05	0.700
410.26	0.698
410.46	0.697
410.67	0.697
410.87	0.698
411.08	0.700
411.28	0.701
411.49	0.702
411.69	0.701
411.90	0.702
412.11	0.704
412.31	0.705
412.52	0.704
412.72	0.706
412.93	0.706
413.13	0.706
413.34	0.702
413.54	0.703
413.75	0.705
413.95	0.704
414.16	0.701
414.37	0.704
414.57	0.704
414.78	0.707
414.98	0.705
415.19	0.706
415.39	0.704
415.60	0.706
415.80	0.705
416.01	0.703
416.21	0.705
416.42	0.705
416.62	0.700
416.83	0.700
417.03	0.700
417.24	0.700
417.44	0.697
417.65	0.696
417.86	0.697
418.06	0.695
418.27	0.693
418.47	0.695
418.68	0.695
418.88	0.695
419.09	0.694
419.29	0.695
419.50	0.696
419.70	0.695
419.91	0.694
420.11	0.692
420.32	0.694
420.52	0.695
420.73	0.693
420.93	0.695
421.14	0.697
421.34	0.695
421.55	0.692
421.75	0.691
421.96	0.693
422.16	0.692
422.37	0.692
422.57	0.689
422.78	0.690
422.98	0.687
423.19	0.684
423.39	0.683
423.60	0.686
423.80	0.687
424.01	0.686
424.21	0.688
424.42	0.690
424.62	0.689
424.83	0.688
425.03	0.688
425.23	0.690
425.44	0.690
425.64	0.691
425.85	0.690
426.05	0.691
426.26	0.692
426.46	0.688
426.67	0.687
426.87	0.692
427.08	0.692
427.28	0.689
427.49	0.690
427.69	0.691
427.90	0.689
428.10	0.686
428.31	0.686
428.51	0.687
428.71	0.686
428.92	0.688
429.12	0.685
429.33	0.686
429.53	0.690
429.74	0.694
429.94	0.694
430.15	0.694
430.35	0.694
430.56	0.691
430.76	0.690
430.96	0.691
431.17	0.688
431.37	0.685
431.58	0.684
431.78	0.680
431.99	0.673
432.19	0.675
432.40	0.677
432.60	0.677
432.80	0.680
433.01	0.678
433.21	0.678
433.42	0.681
433.62	0.681
433.83	0.681
434.03	0.682
434.23	0.685
434.44	0.684
434.64	0.682
434.85	0.687
435.05	0.688
435.26	0.688
435.46	0.686
435.66	0.685
435.87	0.685
436.07	0.685
436.28	0.681
436.48	0.678
436.69	0.677
436.89	0.678
437.09	0.672
437.30	0.670
437.50	0.671
437.71	0.683
437.91	0.682
438.11	0.683
438.32	0.688
438.52	0.688
438.73	0.688
438.93	0.687
439.13	0.686
439.34	0.690
439.54	0.687
439.75	0.687
439.95	0.677
440.15	0.682
440.36	0.680
440.56	0.677
440.77	0.678
440.97	0.678
441.17	0.676
441.38	0.678
441.58	0.675
441.79	0.675
441.99	0.673
442.19	0.672
442.40	0.669
442.60	0.669
442.81	0.667
443.01	0.667
443.21	0.667
443.42	0.666
443.62	0.664
443.82	0.664
444.03	0.666
444.23	0.666
444.44	0.666
444.64	0.665
444.84	0.667
445.05	0.667
445.25	0.664
445.45	0.664
445.66	0.667
445.86	0.666
446.06	0.668
446.27	0.667
446.47	0.669
446.68	0.668
446.88	0.667
447.08	0.666
447.29	0.668
447.49	0.668
447.69	0.668
447.90	0.667
448.10	0.671
448.30	0.668
448.51	0.669
448.71	0.667
448.91	0.669
449.12	0.667
449.32	0.669
449.52	0.667
449.73	0.670
449.93	0.669
450.14	0.670
450.34	0.669
450.54	0.672
450.75	0.668
450.95	0.668
451.15	0.667
451.36	0.670
451.56	0.667
451.76	0.667
451.97	0.664
452.17	0.664
452.37	0.663
452.58	0.660
452.78	0.659
452.98	0.662
453.19	0.661
453.39	0.662
453.59	0.660
453.79	0.662
454.00	0.662
454.20	0.661
454.40	0.662
454.61	0.663
454.81	0.664
455.01	0.662
455.22	0.662
455.42	0.664
455.62	0.662
455.83	0.662
456.03	0.664
456.23	0.666
456.44	0.667
456.64	0.665
456.84	0.665
457.04	0.666
457.25	0.665
457.45	0.662
457.65	0.661
457.86	0.662
458.06	0.661
458.26	0.656
458.47	0.655
458.67	0.655
458.87	0.655
459.07	0.653
459.28	0.655
459.48	0.658
459.68	0.657
459.89	0.656
460.09	0.656
460.29	0.657
460.49	0.658
460.70	0.657
460.90	0.657
461.10	0.658
461.31	0.658
461.51	0.655
461.71	0.656
461.91	0.658
462.12	0.658
462.32	0.657
462.52	0.658
462.72	0.662
462.93	0.662
463.13	0.660
463.33	0.661
463.53	0.662
463.74	0.662
463.94	0.658
464.14	0.658
464.35	0.659
464.55	0.659
464.75	0.657
464.95	0.654
465.16	0.656
465.36	0.655
465.56	0.654
465.76	0.653
465.97	0.653
466.17	0.654
466.37	0.652
466.57	0.653
466.78	0.654
466.98	0.654
467.18	0.652
467.38	0.650
467.59	0.652
467.79	0.654
467.99	0.653
468.19	0.654
468.39	0.657
468.60	0.657
468.80	0.656
469.00	0.657
469.20	0.658
469.41	0.658
469.61	0.657
469.81	0.657
470.01	0.657
470.22	0.657
470.42	0.655
470.62	0.653
470.82	0.654
471.02	0.653
471.23	0.651
471.43	0.652
471.63	0.654
471.83	0.653
472.04	0.651
472.24	0.650
472.44	0.655
472.64	0.656
472.84	0.654
473.05	0.654
473.25	0.657
473.45	0.656
473.65	0.654
473.85	0.655
474.06	0.656
474.26	0.656
474.46	0.657
474.66	0.654
474.86	0.655
475.07	0.655
475.27	0.654
475.47	0.651
475.67	0.652
475.87	0.654
476.08	0.651
476.28	0.652
476.48	0.653
476.68	0.651
476.88	0.649
477.09	0.650
477.29	0.652
477.49	0.652
477.69	0.651
477.89	0.651
478.09	0.650
478.30	0.652
478.50	0.649
478.70	0.649
478.90	0.649
479.10	0.652
479.31	0.653
479.51	0.650
479.71	0.651
479.91	0.652
480.11	0.650
480.31	0.651
480.52	0.650
480.72	0.650
480.92	0.649
481.12	0.647
481.32	0.645
481.52	0.643
481.72	0.643
481.93	0.646
482.13	0.647
482.33	0.646
482.53	0.644
482.73	0.645
482.93	0.646
483.14	0.646
483.34	0.645
483.54	0.646
483.74	0.645
483.94	0.644
484.14	0.640
484.34	0.640
484.55	0.640
484.75	0.640
484.95	0.639
485.15	0.638
485.35	0.638
485.55	0.638
485.75	0.637
485.96	0.637
486.16	0.639
486.36	0.638
486.56	0.637
486.76	0.637
486.96	0.637
487.16	0.636
487.36	0.634
487.57	0.634
487.77	0.635
487.97	0.635
488.17	0.633
488.37	0.632
488.57	0.633
488.77	0.633
488.97	0.631
489.18	0.630
489.38	0.633
489.58	0.633
489.78	0.633
489.98	0.632
490.18	0.632
490.38	0.633
490.58	0.631
490.78	0.632
490.98	0.634
491.19	0.635
491.39	0.634
491.59	0.633
491.79	0.636
491.99	0.636
492.19	0.636
492.39	0.639
492.59	0.639
492.79	0.641
492.99	0.641
493.20	0.642
493.40	0.642
493.60	0.644
493.80	0.642
494.00	0.640
494.20	0.640
494.40	0.639
494.60	0.637
494.80	0.641
495.00	0.640
495.20	0.638
495.40	0.637
495.61	0.638
495.81	0.638
496.01	0.641
496.21	0.642
496.41	0.641
496.61	0.642
496.81	0.641
497.01	0.636
497.21	0.635
497.41	0.636
497.61	0.636
497.81	0.633
498.01	0.633
498.21	0.631
498.41	0.629
498.61	0.629
498.82	0.631
499.02	0.633
499.22	0.633
499.42	0.633
499.62	0.633
499.82	0.634
500.02	0.635
500.22	0.634
500.42	0.637
500.62	0.637
500.82	0.637
501.02	0.635
501.22	0.635
501.42	0.636
501.62	0.637
501.82	0.637
502.02	0.638
502.22	0.637
502.42	0.639
502.62	0.636
502.82	0.637
503.02	0.638
503.22	0.637
503.42	0.636
503.63	0.636
503.83	0.634
504.03	0.633
504.23	0.631
504.43	0.632
504.63	0.632
504.83	0.632
505.03	0.631
505.23	0.633
505.43	0.635
505.63	0.635
505.83	0.634
506.03	0.636
506.23	0.638
506.43	0.639
506.63	0.638
506.83	0.637
507.03	0.639
507.23	0.639
507.43	0.636
507.63	0.637
507.83	0.637
508.03	0.637
508.23	0.636
508.43	0.635
508.63	0.637
508.83	0.637
509.03	0.638
509.23	0.636
509.43	0.637
509.63	0.637
509.83	0.636
510.03	0.639
510.23	0.641
510.43	0.642
510.63	0.641
510.83	0.641
511.03	0.643
511.23	0.641
511.43	0.641
511.63	0.642
511.83	0.645
512.03	0.645
512.22	0.641
512.42	0.641
512.62	0.641
512.82	0.641
513.02	0.641
513.22	0.641
513.42	0.643
513.62	0.645
513.82	0.643
514.02	0.642
514.22	0.644
514.42	0.644
514.62	0.644
514.82	0.645
515.02	0.648
515.22	0.650
515.42	0.649
515.62	0.651
515.82	0.650
516.02	0.651
516.22	0.651
516.42	0.652
516.62	0.654
516.82	0.655
517.01	0.653
517.21	0.651
517.41	0.655
517.61	0.655
517.81	0.651
518.01	0.651
518.21	0.651
518.41	0.649
518.61	0.648
518.81	0.648
519.01	0.649
519.21	0.649
519.41	0.649
519.61	0.643
519.81	0.646
520.00	0.646
520.20	0.646
520.40	0.649
520.60	0.650
520.80	0.649
521.00	0.649
521.20	0.650
521.40	0.654
521.60	0.655
521.80	0.654
522.00	0.654
522.20	0.657
522.39	0.656
522.59	0.653
522.79	0.655
522.99	0.658
523.19	0.656
523.39	0.654
523.59	0.652
523.79	0.654
523.99	0.656
524.19	0.655
524.38	0.654
524.58	0.655
524.78	0.655
524.98	0.653
525.18	0.655
525.38	0.656
525.58	0.657
525.78	0.655
525.98	0.653
526.18	0.654
526.37	0.653
526.57	0.655
526.77	0.655
526.97	0.656
527.17	0.656
527.37	0.653
527.57	0.656
527.77	0.657
527.96	0.657
528.16	0.656
528.36	0.657
528.56	0.658
528.76	0.656
528.96	0.655
529.16	0.656
529.36	0.659
529.55	0.659
529.75	0.655
529.95	0.655
530.15	0.656
530.35	0.659
530.55	0.656
530.75	0.656
530.94	0.658
531.14	0.659
531.34	0.657
531.54	0.655
531.74	0.659
531.94	0.662
532.13	0.660
532.33	0.663
532.53	0.662
532.73	0.663
532.93	0.660
533.13	0.661
533.33	0.662
533.52	0.662
533.72	0.665
533.92	0.663
534.12	0.662
534.32	0.662
534.52	0.659
534.71	0.660
534.91	0.663
535.11	0.666
535.31	0.663
535.51	0.665
535.71	0.668
535.90	0.664
536.10	0.666
536.30	0.667
536.50	0.668
536.70	0.668
536.89	0.666
537.09	0.666
537.29	0.667
537.49	0.668
537.69	0.666
537.89	0.666
538.08	0.666
538.28	0.663
538.48	0.664
538.68	0.666
538.88	0.667
539.07	0.667
539.27	0.665
539.47	0.664
539.67	0.664
539.87	0.665
540.06	0.663
540.26	0.664
540.46	0.666
540.66	0.663
540.86	0.661
541.05	0.661
541.25	0.662
541.45	0.662
541.65	0.661
541.84	0.663
542.04	0.663
542.24	0.664
542.44	0.663
542.64	0.665
542.83	0.668
543.03	0.668
543.23	0.666
543.43	0.667
543.62	0.669
543.82	0.669
544.02	0.668
544.22	0.668
544.42	0.671
544.61	0.671
544.81	0.668
545.01	0.666
545.21	0.668
545.40	0.669
545.60	0.667
545.80	0.670
546.00	0.670
546.19	0.669
546.39	0.668
546.59	0.666
546.79	0.668
546.98	0.669
547.18	0.668
547.38	0.669
547.58	0.671
547.77	0.672
547.97	0.668
548.17	0.670
548.37	0.670
548.56	0.670
548.76	0.670
548.96	0.672
549.16	0.674
549.35	0.674
549.55	0.671
549.75	0.671
549.95	0.675
550.14	0.675
550.34	0.673
550.54	0.678
550.73	0.682
550.93	0.682
551.13	0.678
551.33	0.677
551.52	0.678
551.72	0.679
551.92	0.677
552.12	0.677
552.31	0.678
552.51	0.678
552.71	0.674
552.90	0.674
553.10	0.674
553.30	0.675
553.50	0.675
553.69	0.677
553.89	0.677
554.09	0.677
554.28	0.673
554.48	0.675
554.68	0.677
554.87	0.676
555.07	0.673
555.27	0.673
555.47	0.675
555.66	0.675
555.86	0.673
556.06	0.675
556.25	0.677
556.45	0.684
556.65	0.682
556.84	0.686
557.04	0.689
557.24	0.691
557.43	0.690
557.63	0.692
557.83	0.695
558.02	0.695
558.22	0.699
558.42	0.699
558.61	0.693
558.81	0.693
559.01	0.689
559.21	0.689
559.40	0.690
559.60	0.690
559.80	0.686
559.99	0.687
560.19	0.689
560.39	0.683
560.58	0.680
560.78	0.680
560.97	0.684
561.17	0.682
561.37	0.680
561.56	0.681
561.76	0.682
561.96	0.682
562.15	0.680
562.35	0.682
562.55	0.684
562.74	0.684
562.94	0.682
563.14	0.680
563.33	0.681
563.53	0.681
563.73	0.679
563.92	0.680
564.12	0.683
564.31	0.685
564.51	0.683
564.71	0.684
564.90	0.688
565.10	0.689
565.30	0.691
565.49	0.693
565.69	0.696
565.89	0.696
566.08	0.693
566.28	0.694
566.47	0.696
566.67	0.694
566.87	0.691
567.06	0.692
567.26	0.698
567.46	0.695
567.65	0.693
567.85	0.695
568.04	0.698
568.24	0.697
568.44	0.693
568.63	0.692
568.83	0.694
569.02	0.693
569.22	0.688
569.42	0.685
569.61	0.688
569.81	0.687
570.00	0.684
570.20	0.686
570.40	0.687
570.59	0.687
570.79	0.685
570.98	0.684
571.18	0.685
571.38	0.685
571.57	0.681
571.77	0.679
571.96	0.683
572.16	0.679
572.35	0.674
572.55	0.675
572.75	0.674
572.94	0.673
573.14	0.672
573.33	0.672
573.53	0.672
573.73	0.672
573.92	0.670
574.12	0.667
574.31	0.671
574.51	0.671
574.70	0.668
574.90	0.670
575.09	0.672
575.29	0.672
575.49	0.669
575.68	0.671
575.88	0.672
576.07	0.674
576.27	0.671
576.46	0.671
576.66	0.669
576.86	0.668
577.05	0.666
577.25	0.665
577.44	0.666
577.64	0.667
577.83	0.664
578.03	0.665
578.22	0.664
578.42	0.664
578.61	0.662
578.81	0.663
579.00	0.663
579.20	0.663
579.40	0.661
579.59	0.660
579.79	0.660
579.98	0.660
580.18	0.659
580.37	0.659
580.57	0.661
580.76	0.666
580.96	0.664
581.15	0.665
581.35	0.667
581.54	0.667
581.74	0.666
581.93	0.668
582.13	0.669
582.32	0.666
582.52	0.664
582.71	0.664
582.91	0.660
583.10	0.660
583.30	0.658
583.49	0.658
583.69	0.661
583.88	0.663
584.08	0.662
584.27	0.664
584.47	0.667
584.66	0.668
584.86	0.667
585.05	0.669
585.25	0.671
585.44	0.671
585.64	0.670
585.83	0.666
586.03	0.667
586.22	0.665
586.42	0.662
586.61	0.663
586.81	0.666
587.00	0.665
587.20	0.662
587.39	0.663
587.59	0.665
587.78	0.666
587.98	0.666
588.17	0.667
588.37	0.670
588.56	0.672
588.76	0.668
588.95	0.667
589.15	0.672
589.34	0.674
589.54	0.673
589.73	0.673
589.92	0.676
590.12	0.676
590.31	0.673
590.51	0.678
590.70	0.680
590.90	0.680
591.09	0.678
591.29	0.676
591.48	0.676
591.68	0.678
591.87	0.676
592.06	0.676
592.26	0.679
592.45	0.678
592.65	0.671
592.84	0.671
593.04	0.673
593.23	0.676
593.43	0.673
593.62	0.673
593.81	0.674
594.01	0.673
594.20	0.670
594.40	0.669
594.59	0.671
594.79	0.672
594.98	0.671
595.17	0.670
595.37	0.671
595.56	0.673
595.76	0.672
595.95	0.673
596.14	0.677
596.34	0.678
596.53	0.676
596.73	0.678
596.92	0.679
597.12	0.682
597.31	0.681
597.50	0.681
597.70	0.683
597.89	0.682
598.09	0.679
598.28	0.680
598.47	0.683
598.67	0.682
598.86	0.678
599.06	0.680
599.25	0.680
599.44	0.678
599.64	0.675
599.83	0.673
600.03	0.676
600.22	0.677
600.41	0.676
600.61	0.675
600.80	0.677
601.00	0.678
601.19	0.674
601.38	0.672
601.58	0.675
601.77	0.676
601.96	0.677
602.16	0.677
602.35	0.686
602.55	0.683
602.74	0.684
602.93	0.685
603.13	0.690
603.32	0.691
603.51	0.691
603.71	0.694
603.90	0.696
604.09	0.697
604.29	0.694
604.48	0.688
604.68	0.689
604.87	0.688
605.06	0.685
605.26	0.681
605.45	0.682
605.64	0.681
605.84	0.676
606.03	0.675
606.22	0.674
606.42	0.674
606.61	0.671
606.80	0.671
607.00	0.673
607.19	0.673
607.38	0.671
607.58	0.673
607.77	0.675
607.96	0.675
608.16	0.674
608.35	0.679
608.54	0.682
608.74	0.685
608.93	0.689
609.12	0.692
609.32	0.695
609.51	0.699
609.70	0.697
609.90	0.699
610.09	0.703
610.28	0.708
610.48	0.701
610.67	0.703
610.86	0.704
611.06	0.698
611.25	0.695
611.44	0.696
611.64	0.696
611.83	0.699
612.02	0.695
612.21	0.694
612.41	0.693
612.60	0.692
612.79	0.687
612.99	0.687
613.18	0.690
613.37	0.687
613.57	0.685
613.76	0.687
613.95	0.684
614.14	0.684
614.34	0.680
614.53	0.681
614.72	0.685
614.92	0.685
615.11	0.682
615.30	0.679
615.49	0.681
615.69	0.684
615.88	0.679
616.07	0.681
616.26	0.683
616.46	0.685
616.65	0.682
616.84	0.680
617.04	0.682
617.23	0.685
617.42	0.685
617.61	0.689
617.81	0.689
618.00	0.691
618.19	0.689
618.38	0.692
618.58	0.696
618.77	0.697
618.96	0.696
619.15	0.699
619.35	0.700
619.54	0.701
619.73	0.696
619.92	0.699
620.12	0.703
620.31	0.704
620.50	0.699
620.69	0.698
620.89	0.702
621.08	0.702
621.27	0.702
621.46	0.701
621.66	0.704
621.85	0.704
622.04	0.701
622.23	0.702
622.43	0.703
622.62	0.703
622.81	0.701
623.00	0.701
623.19	0.705
623.39	0.703
623.58	0.700
623.77	0.699
623.96	0.702
624.16	0.701
624.35	0.696
624.54	0.699
624.73	0.702
624.92	0.700
625.12	0.697
625.31	0.698
625.50	0.701
625.69	0.701
625.88	0.697
626.08	0.697
626.27	0.699
626.46	0.700
626.65	0.697
626.84	0.698
627.04	0.703
627.23	0.704
627.42	0.699
627.61	0.701
627.80	0.705
628.00	0.706
628.19	0.704
628.38	0.707
628.57	0.710
628.76	0.710
628.96	0.706
629.15	0.706
629.34	0.709
629.53	0.710
629.72	0.704
629.91	0.704
630.11	0.709
630.30	0.709
630.49	0.712
630.68	0.711
630.87	0.715
631.06	0.717
631.26	0.711
631.45	0.713
631.64	0.721
631.83	0.722
632.02	0.719
632.21	0.717
632.41	0.724
632.60	0.717
632.79	0.716
632.98	0.716
633.17	0.717
633.36	0.719
633.55	0.715
633.75	0.711
633.94	0.714
634.13	0.715
634.32	0.712
634.51	0.707
634.70	0.710
634.89	0.709
635.09	0.704
635.28	0.705
635.47	0.706
635.66	0.709
635.85	0.705
636.04	0.706
636.23	0.711
636.43	0.712
636.62	0.711
636.81	0.710
637.00	0.712
637.19	0.717
637.38	0.713
637.57	0.714
637.76	0.715
637.95	0.715
638.15	0.711
638.34	0.708
638.53	0.711
638.72	0.712
638.91	0.710
639.10	0.708
639.29	0.708
639.48	0.709
639.67	0.709
639.87	0.708
640.06	0.714
640.25	0.714
640.44	0.715
640.63	0.716
640.82	0.719
641.01	0.718
641.20	0.717
641.39	0.719
641.58	0.721
641.78	0.719
641.97	0.715
642.16	0.729
642.35	0.729
642.54	0.728
642.73	0.723
642.92	0.721
643.11	0.726
643.30	0.725
643.49	0.720
643.68	0.722
643.87	0.724
644.06	0.725
644.25	0.705
644.45	0.708
644.64	0.709
644.83	0.710
645.02	0.705
645.21	0.704
645.40	0.706
645.59	0.706
645.78	0.700
645.97	0.702
646.16	0.703
646.35	0.702
646.54	0.700
646.73	0.701
646.92	0.704
647.11	0.704
647.30	0.700
647.49	0.702
647.68	0.702
647.88	0.701
648.07	0.695
648.26	0.698
648.45	0.701
648.64	0.697
648.83	0.694
649.02	0.696
649.21	0.707
649.40	0.706
649.59	0.701
649.78	0.701
649.97	0.716
650.16	0.715
650.35	0.709
650.54	0.711
650.73	0.720
650.92	0.717
651.11	0.709
651.30	0.707
651.49	0.712
651.68	0.712
651.87	0.709
652.06	0.698
652.25	0.702
652.44	0.704
652.63	0.701
652.82	0.699
653.01	0.699
653.20	0.698
653.39	0.686
653.58	0.684
653.77	0.684
653.96	0.679
654.15	0.671
654.34	0.669
654.53	0.664
654.72	0.659
654.91	0.650
655.10	0.646
655.29	0.644
655.48	0.641
655.67	0.636
655.86	0.634
656.05	0.633
656.24	0.632
656.43	0.627
656.62	0.626
656.81	0.626
657.00	0.624
657.19	0.621
657.38	0.620
657.57	0.620
657.76	0.622
657.95	0.620
658.14	0.623
658.33	0.626
658.51	0.630
658.70	0.631
658.89	0.633
659.08	0.642
659.27	0.650
659.46	0.649
659.65	0.655
659.84	0.659
660.03	0.663
660.22	0.664
660.41	0.668
660.60	0.668
660.79	0.668
660.98	0.674
661.17	0.672
661.36	0.672
661.55	0.673
661.74	0.672
661.92	0.675
662.11	0.677
662.30	0.675
662.49	0.669
662.68	0.669
662.87	0.673
663.06	0.667
663.25	0.669
663.44	0.670
663.63	0.671
663.82	0.669
664.01	0.663
664.20	0.662
664.38	0.662
664.57	0.663
664.76	0.662
664.95	0.663
665.14	0.667
665.33	0.661
665.52	0.668
665.71	0.671
665.90	0.671
666.09	0.672
666.28	0.670
666.46	0.668
666.65	0.669
666.84	0.667
667.03	0.661
667.22	0.659
667.41	0.662
667.60	0.652
667.79	0.645
667.98	0.647
668.16	0.649
668.35	0.649
668.54	0.645
668.73	0.646
668.92	0.647
669.11	0.646
669.30	0.640
669.49	0.636
669.67	0.639
669.86	0.641
670.05	0.638
670.24	0.636
670.43	0.633
670.62	0.633
670.81	0.629
671.00	0.629
671.18	0.629
671.37	0.628
671.56	0.626
671.75	0.625
671.94	0.622
672.13	0.619
672.32	0.615
672.50	0.615
672.69	0.616
672.88	0.616
673.07	0.611
673.26	0.614
673.45	0.615
673.63	0.615
673.82	0.611
674.01	0.612
674.20	0.612
674.39	0.611
674.58	0.610
674.76	0.610
674.95	0.609
675.14	0.609
675.33	0.604
675.52	0.603
675.71	0.603
675.89	0.602
676.08	0.599
676.27	0.599
676.46	0.600
676.65	0.599
676.84	0.599
677.02	0.600
677.21	0.602
677.40	0.601
677.59	0.599
677.78	0.600
677.96	0.602
678.15	0.600
678.34	0.598
678.53	0.599
678.72	0.598
678.90	0.595
679.09	0.591
679.28	0.588
679.47	0.588
679.66	0.588
679.84	0.584
680.03	0.582
680.22	0.581
680.41	0.583
680.60	0.579
680.78	0.579
680.97	0.582
681.16	0.582
681.35	0.580
681.53	0.579
681.72	0.580
681.91	0.582
682.10	0.580
682.29	0.582
682.47	0.579
682.66	0.579
682.85	0.577
683.04	0.575
683.22	0.576
683.41	0.577
683.60	0.576
683.79	0.578
683.97	0.577
684.16	0.576
684.35	0.573
684.54	0.575
684.72	0.575
684.91	0.576
685.10	0.574
685.29	0.575
685.47	0.572
685.66	0.571
685.85	0.567
686.04	0.566
686.22	0.569
686.41	0.571
686.60	0.567
686.79	0.570
686.97	0.572
687.16	0.573
687.35	0.571
687.54	0.574
687.72	0.578
687.91	0.577
688.10	0.579
688.29	0.579
688.47	0.578
688.66	0.577
688.85	0.573
689.03	0.571
689.22	0.575
689.41	0.576
689.60	0.571
689.78	0.569
689.97	0.569
690.16	0.566
690.34	0.562
690.53	0.562
690.72	0.562
690.91	0.561
691.09	0.558
691.28	0.552
691.47	0.550
691.65	0.549
691.84	0.546
692.03	0.545
692.21	0.543
692.40	0.543
692.59	0.540
692.77	0.539
692.96	0.540
693.15	0.540
693.34	0.538
693.52	0.538
693.71	0.539
693.90	0.540
694.08	0.541
694.27	0.542
694.46	0.551
694.64	0.552
694.83	0.552
695.02	0.551
695.20	0.551
695.39	0.551
695.58	0.551
695.76	0.552
695.95	0.550
696.14	0.550
696.32	0.547
696.51	0.538
696.70	0.537
696.88	0.539
697.07	0.537
697.26	0.539
697.44	0.539
697.63	0.538
697.81	0.536
698.00	0.536
698.19	0.536
698.37	0.536
698.56	0.536
698.75	0.536
698.93	0.536
699.12	0.535
699.31	0.534
699.49	0.533
699.68	0.534
699.87	0.537
700.05	0.537
700.24	0.536
700.42	0.538
700.61	0.537
700.80	0.535
700.98	0.535
701.17	0.536
701.36	0.536
701.54	0.535
701.73	0.536
701.91	0.534
702.10	0.533
702.29	0.532
702.47	0.531
702.66	0.532
702.84	0.533
703.03	0.531
703.22	0.533
703.40	0.533
703.59	0.535
703.77	0.534
703.96	0.533
704.15	0.534
704.33	0.534
704.52	0.533
704.70	0.532
704.89	0.532
705.08	0.530
705.26	0.526
705.45	0.526
705.63	0.525
705.82	0.522
706.00	0.521
706.19	0.521
706.38	0.521
706.56	0.520
706.75	0.518
706.93	0.517
707.12	0.518
707.30	0.518
707.49	0.516
707.68	0.514
707.86	0.514
708.05	0.514
708.23	0.511
708.42	0.511
708.60	0.514
708.79	0.514
708.98	0.513
709.16	0.513
709.35	0.515
709.53	0.519
709.72	0.518
709.90	0.520
710.09	0.522
710.27	0.524
710.46	0.528
710.64	0.526
710.83	0.528
711.02	0.529
711.20	0.527
711.39	0.525
711.57	0.523
711.76	0.523
711.94	0.521
712.13	0.522
712.31	0.521
712.50	0.516
712.68	0.514
712.87	0.515
713.05	0.516
713.24	0.518
713.42	0.517
713.61	0.518
713.79	0.518
713.98	0.519
714.16	0.519
714.35	0.520
714.54	0.520
714.72	0.520
714.91	0.517
715.09	0.523
715.28	0.526
715.46	0.526
715.65	0.524
715.83	0.523
716.02	0.526
716.20	0.522
716.39	0.521
716.57	0.522
716.76	0.524
716.94	0.524
717.12	0.517
717.31	0.517
717.49	0.520
717.68	0.522
717.86	0.522
718.05	0.523
718.23	0.526
718.42	0.528
718.60	0.529
718.79	0.537
718.97	0.540
719.16	0.540
719.34	0.537
719.53	0.537
719.71	0.537
719.90	0.538
720.08	0.535
720.27	0.535
720.45	0.535
720.63	0.534
720.82	0.527
721.00	0.530
721.19	0.534
721.37	0.534
721.56	0.534
721.74	0.538
721.93	0.547
722.11	0.553
722.30	0.553
722.48	0.557
722.66	0.558
722.85	0.558
723.03	0.558
723.22	0.555
723.40	0.557
723.59	0.557
723.77	0.561
723.95	0.554
724.14	0.556
724.32	0.558
724.51	0.557
724.69	0.558
724.88	0.559
725.06	0.557
725.24	0.559
725.43	0.561
725.61	0.564
725.80	0.558
725.98	0.556
726.16	0.553
726.35	0.559
726.53	0.558
726.72	0.557
726.90	0.568
727.09	0.568
727.27	0.573
727.45	0.569
727.64	0.578
727.82	0.586
728.01	0.590
728.19	0.588
728.37	0.592
728.56	0.597
728.74	0.602
728.92	0.590
729.11	0.593
729.29	0.591
729.48	0.593
729.66	0.584
729.84	0.582
730.03	0.585
730.21	0.585
730.40	0.576
730.58	0.578
730.76	0.578
730.95	0.581
731.13	0.581
731.31	0.595
731.50	0.605
731.68	0.608
731.86	0.604
732.05	0.619
732.23	0.623
732.42	0.626
732.60	0.628
732.78	0.633
732.97	0.650
733.15	0.657
733.33	0.645
733.52	0.650
733.70	0.660
733.88	0.671
734.07	0.656
734.25	0.681
734.43	0.690
734.62	0.693
734.80	0.687
734.98	0.677
735.17	0.682
735.35	0.689
735.53	0.678
735.72	0.681
735.90	0.701
736.08	0.718
736.27	0.695
736.45	0.704
736.63	0.716
736.82	0.725
737.00	0.723
737.18	0.735
737.37	0.764
737.55	0.788
737.73	0.780
737.92	0.782
738.10	0.780
738.28	0.801
738.46	0.788
738.65	0.800
738.83	0.823
739.01	0.879
739.20	0.868
739.38	0.852
739.56	0.841
739.75	0.846
739.93	0.814
740.11	0.837
740.29	0.837
740.48	0.844
740.66	0.822
740.84	0.814
741.03	0.779
741.21	0.788
741.39	0.770
741.57	0.784
741.76	0.804
741.94	0.812
742.12	0.777
742.31	0.783
742.49	0.799
742.67	0.823
742.85	0.839
743.04	0.845
743.22	0.856
743.40	0.907
743.58	0.887
743.77	0.901
743.95	0.934
744.13	0.985
744.31	0.960
744.50	0.958
744.68	0.959
744.86	0.932
745.04	0.938
745.23	1.002
745.41	0.981
745.59	0.984
745.77	0.948
745.96	0.933
746.14	0.942
746.32	0.943
746.50	0.936
746.69	0.918
746.87	0.922
747.05	0.910
747.23	0.838
747.42	0.829
747.60	0.855
747.78	0.858
747.96	0.882
748.14	0.841
748.33	0.868
748.51	0.861
748.69	0.850
748.87	0.883
749.06	0.880
749.24	0.879
749.42	0.864
749.60	0.845
749.78	0.853
749.97	0.813
750.15	0.805
750.33	0.806
750.51	0.833
750.69	0.843
750.88	0.842
751.06	0.851
751.24	0.875
751.42	0.865
751.60	0.859
751.79	0.928
751.97	0.971
752.15	0.972
752.33	0.942
752.51	0.997
752.69	1.009
752.88	0.978
753.06	1.021
753.24	0.998
753.42	1.040
753.60	1.193
753.78	1.059
753.97	1.075
754.15	1.092
754.33	1.115
754.51	0.996
754.69	0.984
754.87	1.012
755.06	0.944
755.24	0.946
755.42	0.948
755.60	0.861
755.78	0.868
755.96	0.819
756.15	0.817
756.33	0.826
756.51	0.846
756.69	0.830
756.87	0.800
757.05	0.822
757.23	0.806
757.42	0.776
757.60	0.772
757.78	0.764
757.96	0.764
758.14	0.751
758.32	0.737
758.50	0.748
758.69	0.748
758.87	0.738
759.05	0.743
759.23	0.753
759.41	0.755
759.59	0.750
759.77	0.771
759.95	0.796
760.13	0.844
760.32	0.841
760.50	0.839
760.68	0.863
760.86	0.864
761.04	0.833
761.22	0.834
761.40	0.882
761.58	0.882
761.76	0.854
761.95	0.838
762.13	0.795
762.31	0.795
762.49	0.765
762.67	0.781
762.85	0.796
763.03	0.790
763.21	0.772
763.39	0.750
763.57	0.753
763.75	0.750
763.94	0.734
764.12	0.734
764.30	0.758
764.48	0.761
764.66	0.727
764.84	0.726
765.02	0.763
765.20	0.769
765.38	0.749
765.56	0.755
765.74	0.793
765.92	0.794
766.10	0.802
766.28	0.793
766.46	0.819
766.65	0.819
766.83	0.805
767.01	0.792
767.19	0.800
767.37	0.804
767.55	0.790
767.73	0.768
767.91	0.774
768.09	0.761
768.27	0.751
768.45	0.742
768.63	0.747
768.81	0.751
768.99	0.725
769.17	0.747
769.35	0.760
769.53	0.758
769.71	0.740
769.89	0.747
770.07	0.752
770.25	0.734
770.43	0.711
770.61	0.733
770.79	0.738
770.97	0.750
771.15	0.722
771.33	0.726
771.51	0.729
771.69	0.738
771.87	0.745
772.05	0.750
772.24	0.758
772.42	0.770
772.60	0.748
772.78	0.804
772.96	0.830
773.14	0.825
773.32	0.801
773.49	0.808
773.67	0.811
773.85	0.790
774.03	0.781
774.21	0.813
774.39	0.826
774.57	0.845
774.75	0.773
774.93	0.765
775.11	0.787
775.29	0.792
775.47	0.794
775.65	0.801
775.83	0.817
776.01	0.838
776.19	0.791
776.37	0.791
776.55	0.793
776.73	0.792
776.91	0.787
777.09	0.770
777.27	0.768
777.45	0.756
777.63	0.733
777.81	0.728
777.99	0.716
778.17	0.715
778.35	0.694
778.53	0.685
778.71	0.692
778.89	0.681
779.07	0.671
779.24	0.676
779.42	0.678
779.60	0.698
779.78	0.697
779.96	0.703
780.14	0.711
780.32	0.732
780.50	0.713
780.68	0.714
780.86	0.706
781.04	0.725
781.22	0.728
781.40	0.737
781.58	0.726
781.75	0.718
781.93	0.699
782.11	0.700
782.29	0.686
782.47	0.686
782.65	0.672
782.83	0.699
783.01	0.692
783.19	0.687
783.37	0.675
783.55	0.678
783.72	0.696
783.90	0.708
784.08	0.699
784.26	0.711
784.44	0.732
784.62	0.735
784.80	0.704
784.98	0.708
785.16	0.714
785.33	0.726
785.51	0.711
785.69	0.699
785.87	0.697
786.05	0.707
786.23	0.702
786.41	0.698
786.59	0.705
786.77	0.705
786.94	0.696
787.12	0.699
787.30	0.699
787.48	0.698
787.66	0.686
787.84	0.687
788.02	0.678
788.19	0.678
788.37	0.665
788.55	0.666
788.73	0.666
788.91	0.658
789.09	0.642
789.27	0.634
789.44	0.646
789.62	0.652
789.80	0.661
789.98	0.685
790.16	0.673
790.34	0.670
790.51	0.658
790.69	0.678
790.87	0.685
791.05	0.682
791.23	0.675
791.41	0.676
791.58	0.684
791.76	0.664
791.94	0.635
792.12	0.644
792.30	0.645
792.48	0.642
792.65	0.636
792.83	0.641
793.01	0.649
793.19	0.648
793.37	0.631
793.54	0.627
793.72	0.637
793.90	0.635
794.08	0.625
794.26	0.625
794.43	0.633
794.61	0.617
794.79	0.608
794.97	0.607
795.15	0.612
795.32	0.617
795.50	0.609
795.68	0.605
795.86	0.609
796.04	0.611
796.21	0.606
796.39	0.603
796.57	0.618
796.75	0.626
796.92	0.626
797.10	0.631
797.28	0.634
797.46	0.637
797.64	0.639
797.81	0.646
797.99	0.649
798.17	0.653
798.35	0.649
798.52	0.650
798.70	0.643
798.88	0.651
799.06	0.648
799.23	0.649
799.41	0.657
799.59	0.650
799.77	0.640
799.94	0.648
800.12	0.658
800.30	0.675
800.48	0.673
800.65	0.675
800.83	0.665
801.01	0.659
801.19	0.660
801.36	0.654
801.54	0.656
801.72	0.666
801.90	0.652
802.07	0.646
802.25	0.633
802.43	0.618
802.60	0.614
802.78	0.621
802.96	0.625
803.14	0.618
803.31	0.617
803.49	0.619
803.67	0.615
803.84	0.621
804.02	0.610
804.20	0.614
804.38	0.621
804.55	0.621
804.73	0.606
804.91	0.608
805.08	0.620
805.26	0.617
805.44	0.679
805.61	0.683
805.79	0.681
805.97	0.682
806.15	0.674
806.32	0.670
806.50	0.676
806.68	0.677
806.85	0.667
807.03	0.659
807.21	0.675
807.38	0.608
807.56	0.598
807.74	0.607
807.91	0.614
808.09	0.616
808.27	0.631
808.44	0.656
808.62	0.664
808.80	0.666
808.97	0.660
809.15	0.655
809.33	0.672
809.50	0.680
809.68	0.668
809.86	0.676
810.03	0.705
810.21	0.688
810.39	0.669
810.56	0.675
810.74	0.699
810.91	0.769
811.09	0.757
811.27	0.780
811.44	0.784
811.62	0.784
811.80	0.766
811.97	0.735
812.15	0.735
812.33	0.730
812.50	0.718
812.68	0.707
812.85	0.653
813.03	0.654
813.21	0.624
813.38	0.618
813.56	0.622
813.74	0.632
813.91	0.640
814.09	0.668
814.26	0.663
814.44	0.665
814.62	0.654
814.79	0.658
814.97	0.663
815.14	0.667
815.32	0.669
815.50	0.687
815.67	0.690
815.85	0.681
816.02	0.670
816.20	0.676
816.38	0.689
816.55	0.695
816.73	0.696
816.90	0.705
817.08	0.732
817.26	0.739
817.43	0.717
817.61	0.739
817.78	0.758
817.96	0.738
818.13	0.730
818.31	0.730
818.49	0.742
818.66	0.731
818.84	0.718
819.01	0.699
819.19	0.705
819.36	0.705
819.54	0.676
819.71	0.715
819.89	0.728
820.07	0.739
820.24	0.732
820.42	0.732
820.59	0.751
820.77	0.772
820.94	0.763
821.12	0.780
821.29	0.797
821.47	0.799
821.64	0.737
821.82	0.751
822.00	0.748
822.17	0.748
822.35	0.739
822.52	0.741
822.70	0.732
822.87	0.741
823.05	0.719
823.22	0.733
823.40	0.758
823.57	0.784
823.75	0.765
823.92	0.793
824.10	0.811
824.27	0.852
824.45	0.844
824.62	0.905
824.80	0.919
824.97	0.936
825.15	0.925
825.32	0.932
825.50	0.932
825.67	0.943
825.85	0.910
826.02	0.923
826.20	0.943
826.37	1.053
826.55	0.973
826.72	1.148
826.90	1.211
827.07	1.252
827.25	1.205
827.42	1.343
827.60	1.468
827.77	1.639
827.95	1.624
828.12	1.729
828.30	1.385
828.47	1.506
828.65	1.164
828.82	1.217
829.00	1.260
829.17	1.341
829.34	1.332
829.52	1.363
829.69	-0.000
829.87	-0.000
830.04	-0.000
830.22	-0.000
830.39	-0.000
830.57	-0.000
830.74	-0.000
830.92	-0.000
831.09	-0.000
831.26	-0.000
831.44	-0.000
831.61	-0.000
831.79	-0.000
831.96	-0.000
832.14	-0.000
832.31	-0.000
832.49	-0.000
832.66	-0.000
832.83	-0.000
833.01	-0.000
833.18	-0.000
833.36	-0.000
833.53	-0.000
833.70	-0.000
833.88	-0.000
834.05	-0.000
834.23	-0.000
834.40	-0.000
834.58	-0.000
834.75	-0.000
834.92	-0.000
835.10	-0.000
835.27	-0.000
835.45	-0.000
835.62	-0.000
835.79	-0.000
835.97	-0.000
836.14	-0.000
836.32	-0.000
836.49	-0.000
836.66	-0.000
836.84	-0.000
837.01	-0.000
837.18	-0.000
837.36	-0.000
837.53	-0.000
837.71	-0.000
837.88	-0.000
838.05	-0.000
838.23	-0.000
838.40	-0.000
838.58	-0.000
838.75	-0.000
838.92	-0.000
839.10	-0.000
839.27	-0.000
839.44	-0.000
839.62	-0.000
839.79	-0.000
839.96	-0.000
840.14	-0.000
840.31	-0.000
840.48	-0.000
840.66	-0.000
840.83	-0.000
841.01	-0.000
841.18	-0.000
841.35	-0.000
841.53	-0.000
841.70	-0.000
841.87	-0.000
842.05	-0.000
842.22	-0.000
842.39	-0.000
842.57	-0.000
842.74	-0.000
842.91	-0.000
843.09	-0.000
843.26	-0.000
843.43	-0.000
843.60	-0.000
843.78	-0.000
843.95	-0.000
844.12	-0.000
844.30	-0.000
844.47	-0.000
844.64	-0.000
844.82	-0.000
844.99	-0.000
845.16	-0.000
845.34	-0.000
845.51	-0.000
845.68	-0.000
845.85	-0.000
846.03	-0.000
846.20	-0.000
846.37	-0.000
846.55	-0.000
846.72	-0.000
846.89	-0.000
847.06	-0.000
847.24	-0.000
847.41	-0.000
847.58	-0.000
847.76	-0.000
847.93	-0.000
848.10	-0.000
848.27	-0.000
848.45	-0.000
848.62	-0.000
848.79	-0.000
848.97	-0.000
849.14	-0.000
849.31	-0.000
849.48	-0.000
849.66	-0.000
849.83	-0.000
850.00	-0.000
850.17	-0.000
850.35	-0.000
850.52	-0.000
850.69	-0.000
850.86	-0.000
851.04	-0.000
851.21	-0.000
851.38	-0.000
851.55	-0.000
851.72	-0.000
851.90	-0.000
852.07	-0.000
852.24	-0.000
852.41	-0.000
852.59	-0.000
852.76	-0.000
852.93	-0.000
853.10	-0.000
853.28	-0.000
853.45	-0.000
853.62	-0.000
853.79	-0.000
853.96	-0.000
854.14	-0.000
854.31	-0.000
854.48	-0.000
854.65	-0.000
854.82	-0.000
855.00	-0.000
855.17	-0.000
855.34	-0.000
855.51	-0.000
855.68	-0.000
855.86	-0.000
856.03	-0.000
856.20	-0.000
856.37	-0.000
856.54	-0.000
856.72	-0.000
856.89	-0.000
857.06	-0.000
857.23	-0.000
857.40	-0.000
857.57	-0.000
857.75	-0.000
857.92	-0.000
858.09	-0.000
858.26	-0.000
858.43	-0.000
858.60	-0.000
858.78	-0.000
858.95	-0.000
859.12	-0.000
859.29	-0.000
859.46	-0.000
859.63	-0.000
859.81	-0.000
859.98	-0.000
860.15	-0.000
860.32	-0.000
860.49	-0.000
860.66	-0.000
860.83	-0.000
861.01	-0.000
861.18	-0.000
861.35	-0.000
861.52	-0.000
861.69	-0.000
861.86	-0.000
862.03	-0.000
862.21	-0.000
862.38	-0.000
862.55	-0.000
862.72	-0.000
862.89	-0.000
863.06	-0.000
863.23	-0.000
863.40	-0.000
863.58	-0.000
863.75	-0.000
863.92	-0.000
864.09	-0.000
864.26	-0.000
864.43	-0.000
864.60	-0.000
864.77	-0.000
864.94	-0.000
865.11	-0.000
865.29	-0.000
865.46	-0.000
865.63	-0.000
865.80	-0.000
865.97	-0.000
866.14	-0.000
866.31	-0.000
866.48	-0.000
866.65	-0.000
866.82	-0.000
866.99	-0.000
867.16	-0.000
867.34	-0.000
867.51	-0.000
867.68	-0.000
867.85	-0.000
868.02	-0.000
868.19	-0.000
868.36	-0.000
868.53	-0.000
868.70	-0.000
868.87	-0.000
869.04	-0.000
869.21	-0.000
869.38	-0.000
869.55	-0.000
869.72	-0.000
869.89	-0.000
870.06	-0.000
870.24	-0.000
870.41	-0.000
870.58	-0.000
870.75	-0.000
870.92	-0.000
871.09	-0.000
871.26	-0.000
871.43	-0.000
871.60	-0.000
871.77	-0.000
871.94	-0.000
872.11	-0.000
872.28	-0.000
872.45	-0.000
872.62	-0.000
872.79	-0.000
872.96	-0.000
873.13	-0.000
873.30	-0.000
873.47	-0.000
873.64	-0.000
873.81	-0.000
873.98	-0.000
874.15	-0.000
874.32	-0.000
874.49	-0.000
874.66	-0.000
874.83	-0.000
875.00	-0.000
875.17	-0.000
875.34	-0.000
875.51	-0.000
875.68	-0.000
875.85	-0.000
876.02	-0.000
876.19	-0.000
876.36	-0.000
876.53	-0.000
876.70	-0.000
876.87	-0.000
877.04	-0.000
877.21	-0.000
877.38	-0.000
877.55	-0.000
877.72	-0.000
877.89	-0.000
878.06	-0.000
878.23	-0.000
878.39	-0.000
878.56	-0.000
878.73	-0.000
878.90	-0.000
879.07	-0.000
879.24	-0.000
879.41	-0.000
879.58	-0.000
879.75	-0.000
879.92	-0.000
880.09	-0.000
880.26	-0.000
880.43	-0.000
880.60	-0.000
880.77	-0.000
880.94	-0.000
881.11	-0.000
881.27	-0.000
881.44	-0.000
881.61	-0.000
881.78	-0.000
881.95	-0.000
882.12	-0.000
882.29	-0.000
882.46	-0.000
882.63	-0.000
882.80	-0.000
882.97	-0.000
883.14	-0.000
883.30	-0.000
883.47	-0.000
883.64	-0.000
883.81	-0.000
883.98	-0.000
884.15	-0.000
884.32	-0.000
884.49	-0.000
884.66	-0.000
884.82	-0.000
884.99	-0.000
885.16	-0.000
885.33	-0.000
885.50	-0.000
885.67	-0.000
885.84	-0.000
886.01	-0.000
886.17	-0.000
886.34	-0.000
886.51	-0.000
886.68	-0.000
886.85	-0.000
887.02	-0.000
887.19	-0.000
887.36	-0.000
887.52	-0.000
887.69	-0.000
887.86	-0.000
888.03	-0.000
888.20	-0.000
888.37	-0.000
888.54	-0.000
888.70	-0.000
888.87	-0.000
889.04	-0.000
889.21	-0.000
889.38	-0.000
889.55	-0.000
889.71	-0.000
889.88	-0.000
890.05	-0.000
890.22	-0.000
890.39	-0.000
>>>>>End Processed Spectral Data<<<<<
