SpectraSuite Data File
++++++++++++++++++++++++++++++++++++
Date: Fri Jun 19 12:48:28 CEST 2015
User: introlabs
Dark Spectrum Present: Yes
Reference Spectrum Present: Yes
Number of Sampled Component Spectra: 1
Spectrometers: USB4H08886
Integration Time (usec): 745692 (USB4H08886)
Spectra Averaged: 5 (USB4H08886)
Boxcar Smoothing: 5 (USB4H08886)
Correct for Electrical Dark: Yes (USB4H08886)
Strobe/Lamp Enabled: No (USB4H08886)
Correct for Detector Non-linearity: Yes (USB4H08886)
Correct for Stray Light: Yes (USB4H08886)
Number of Pixels in Processed Spectrum: 3648
>>>>>Begin Processed Spectral Data<<<<<
178.14	-0.000
178.36	-0.000
178.57	-0.000
178.79	-0.000
179.01	-0.000
179.22	-0.000
179.44	-0.000
179.65	-0.000
179.87	-0.000
180.08	-0.000
180.30	-0.000
180.52	-0.000
180.73	-0.000
180.95	-0.000
181.16	-0.000
181.38	-0.000
181.59	-0.000
181.81	-0.000
182.03	-0.000
182.24	-0.000
182.46	-0.000
182.67	-0.000
182.89	-0.000
183.10	-0.000
183.32	-0.000
183.54	-0.000
183.75	-0.000
183.97	-0.000
184.18	-0.000
184.40	-0.000
184.61	-0.000
184.83	-0.000
185.04	-0.000
185.26	-0.000
185.48	-0.000
185.69	-0.000
185.91	-0.000
186.12	-0.000
186.34	-0.000
186.55	-0.000
186.77	-0.000
186.98	-0.000
187.20	-0.000
187.42	-0.000
187.63	-0.000
187.85	-0.000
188.06	-0.000
188.28	-0.000
188.49	-0.000
188.71	-0.000
188.92	-0.000
189.14	-0.000
189.36	-0.000
189.57	-0.000
189.79	-0.000
190.00	-0.000
190.22	-0.000
190.43	-0.000
190.65	-0.000
190.86	-0.000
191.08	-0.000
191.29	-0.000
191.51	-0.000
191.72	-0.000
191.94	-0.000
192.16	-0.000
192.37	-0.000
192.59	-0.000
192.80	-0.000
193.02	-0.000
193.23	-0.000
193.45	-0.000
193.66	-0.000
193.88	-0.000
194.09	-0.000
194.31	-0.000
194.52	-0.000
194.74	-0.000
194.95	-0.000
195.17	-0.000
195.38	-0.000
195.60	-0.000
195.81	-0.000
196.03	-0.000
196.25	-0.000
196.46	-0.000
196.68	-0.000
196.89	-0.000
197.11	-0.000
197.32	-0.000
197.54	-0.000
197.75	-0.000
197.97	-0.000
198.18	-0.000
198.40	-0.000
198.61	-0.000
198.83	-0.000
199.04	-0.000
199.26	-0.000
199.47	-0.000
199.69	-0.000
199.90	-0.000
200.12	-0.000
200.33	-0.000
200.55	-0.000
200.76	-0.000
200.98	-0.000
201.19	-0.000
201.41	-0.000
201.62	-0.000
201.84	-0.000
202.05	-0.000
202.27	-0.000
202.48	-0.000
202.70	-0.000
202.91	-0.000
203.13	-0.000
203.34	-0.000
203.56	-0.000
203.77	-0.000
203.99	-0.000
204.20	-0.000
204.42	-0.000
204.63	-0.000
204.85	-0.000
205.06	-0.000
205.28	-0.000
205.49	-0.000
205.71	-0.000
205.92	-0.000
206.14	-0.000
206.35	-0.000
206.56	-0.000
206.78	-0.000
206.99	-0.000
207.21	-0.000
207.42	-0.000
207.64	-0.000
207.85	-0.000
208.07	-0.000
208.28	-0.000
208.50	-0.000
208.71	-0.000
208.93	-0.000
209.14	-0.000
209.36	-0.000
209.57	-0.000
209.79	-0.000
210.00	-0.000
210.22	-0.000
210.43	-0.000
210.64	-0.000
210.86	-0.000
211.07	-0.000
211.29	-0.000
211.50	-0.000
211.72	-0.000
211.93	-0.000
212.15	-0.000
212.36	-0.000
212.58	-0.000
212.79	-0.000
213.01	-0.000
213.22	-0.000
213.43	-0.000
213.65	-0.000
213.86	-0.000
214.08	-0.000
214.29	-0.000
214.51	-0.000
214.72	-0.000
214.94	-0.000
215.15	-0.000
215.36	-0.000
215.58	-0.000
215.79	-0.000
216.01	-0.000
216.22	-0.000
216.44	-0.000
216.65	-0.000
216.87	-0.000
217.08	-0.000
217.29	-0.000
217.51	-0.000
217.72	-0.000
217.94	-0.000
218.15	-0.000
218.37	-0.000
218.58	-0.000
218.80	-0.000
219.01	-0.000
219.22	-0.000
219.44	-0.000
219.65	-0.000
219.87	-0.000
220.08	-0.000
220.30	-0.000
220.51	-0.000
220.72	-0.000
220.94	-0.000
221.15	-0.000
221.37	-0.000
221.58	-0.000
221.79	-0.000
222.01	-0.000
222.22	-0.000
222.44	-0.000
222.65	-0.000
222.87	-0.000
223.08	-0.000
223.29	-0.000
223.51	-0.000
223.72	-0.000
223.94	-0.000
224.15	-0.000
224.36	-0.000
224.58	-0.000
224.79	-0.000
225.01	-0.000
225.22	-0.000
225.44	-0.000
225.65	-0.000
225.86	-0.000
226.08	-0.000
226.29	-0.000
226.51	-0.000
226.72	-0.000
226.93	-0.000
227.15	-0.000
227.36	-0.000
227.58	-0.000
227.79	-0.000
228.00	-0.000
228.22	-0.000
228.43	-0.000
228.65	-0.000
228.86	-0.000
229.07	-0.000
229.29	-0.000
229.50	-0.000
229.72	-0.000
229.93	-0.000
230.14	-0.000
230.36	-0.000
230.57	-0.000
230.78	-0.000
231.00	-0.000
231.21	-0.000
231.43	-0.000
231.64	-0.000
231.85	-0.000
232.07	-0.000
232.28	-0.000
232.50	-0.000
232.71	-0.000
232.92	-0.000
233.14	-0.000
233.35	-0.000
233.56	-0.000
233.78	-0.000
233.99	-0.000
234.21	-0.000
234.42	-0.000
234.63	-0.000
234.85	-0.000
235.06	-0.000
235.27	-0.000
235.49	-0.000
235.70	-0.000
235.91	-0.000
236.13	-0.000
236.34	-0.000
236.56	-0.000
236.77	-0.000
236.98	-0.000
237.20	-0.000
237.41	-0.000
237.62	-0.000
237.84	-0.000
238.05	-0.000
238.26	-0.000
238.48	-0.000
238.69	-0.000
238.91	-0.000
239.12	-0.000
239.33	-0.000
239.55	-0.000
239.76	-0.000
239.97	-0.000
240.19	-0.000
240.40	-0.000
240.61	-0.000
240.83	-0.000
241.04	-0.000
241.25	-0.000
241.47	-0.000
241.68	-0.000
241.89	-0.000
242.11	-0.000
242.32	-0.000
242.53	-0.000
242.75	-0.000
242.96	-0.000
243.17	-0.000
243.39	-0.000
243.60	-0.000
243.81	-0.000
244.03	-0.000
244.24	-0.000
244.45	-0.000
244.67	-0.000
244.88	-0.000
245.09	-0.000
245.31	-0.000
245.52	-0.000
245.73	-0.000
245.95	-0.000
246.16	-0.000
246.37	-0.000
246.59	-0.000
246.80	-0.000
247.01	-0.000
247.23	-0.000
247.44	-0.000
247.65	-0.000
247.87	-0.000
248.08	-0.000
248.29	-0.000
248.51	-0.000
248.72	-0.000
248.93	-0.000
249.15	-0.000
249.36	-0.000
249.57	-0.000
249.78	-0.000
250.00	-0.000
250.21	-0.000
250.42	-0.000
250.64	-0.000
250.85	-0.000
251.06	-0.000
251.28	-0.000
251.49	-0.000
251.70	-0.000
251.92	-0.000
252.13	-0.000
252.34	-0.000
252.55	-0.000
252.77	-0.000
252.98	-0.000
253.19	-0.000
253.41	-0.000
253.62	-0.000
253.83	-0.000
254.05	-0.000
254.26	-0.000
254.47	-0.000
254.68	-0.000
254.90	-0.000
255.11	-0.000
255.32	-0.000
255.54	-0.000
255.75	-0.000
255.96	-0.000
256.17	-0.000
256.39	-0.000
256.60	-0.000
256.81	-0.000
257.03	-0.000
257.24	-0.000
257.45	-0.000
257.66	-0.000
257.88	-0.000
258.09	-0.000
258.30	-0.000
258.51	-0.000
258.73	-0.000
258.94	-0.000
259.15	-0.000
259.37	-0.000
259.58	-0.000
259.79	-0.000
260.00	-0.000
260.22	-0.000
260.43	-0.000
260.64	-0.000
260.85	-0.000
261.07	-0.000
261.28	-0.000
261.49	-0.000
261.71	-0.000
261.92	-0.000
262.13	-0.000
262.34	-0.000
262.56	-0.000
262.77	-0.000
262.98	-0.000
263.19	-0.000
263.41	-0.000
263.62	-0.000
263.83	-0.000
264.04	-0.000
264.26	-0.000
264.47	-0.000
264.68	-0.000
264.89	-0.000
265.11	-0.000
265.32	-0.000
265.53	-0.000
265.74	-0.000
265.96	-0.000
266.17	-0.000
266.38	-0.000
266.59	-0.000
266.81	-0.000
267.02	-0.000
267.23	-0.000
267.44	-0.000
267.65	-0.000
267.87	-0.000
268.08	-0.000
268.29	-0.000
268.50	-0.000
268.72	-0.000
268.93	-0.000
269.14	-0.000
269.35	-0.000
269.57	-0.000
269.78	-0.000
269.99	-0.000
270.20	-0.000
270.41	-0.000
270.63	-0.000
270.84	-0.000
271.05	-0.000
271.26	-0.000
271.48	-0.000
271.69	-0.000
271.90	-0.000
272.11	-0.000
272.32	-0.000
272.54	-0.000
272.75	-0.000
272.96	-0.000
273.17	-0.000
273.39	-0.000
273.60	-0.000
273.81	-0.000
274.02	-0.000
274.23	-0.000
274.45	-0.000
274.66	-0.000
274.87	-0.000
275.08	-0.000
275.29	-0.000
275.51	-0.000
275.72	-0.000
275.93	-0.000
276.14	-0.000
276.35	-0.000
276.57	-0.000
276.78	-0.000
276.99	-0.000
277.20	-0.000
277.41	-0.000
277.63	-0.000
277.84	-0.000
278.05	-0.000
278.26	-0.000
278.47	-0.000
278.69	-0.000
278.90	-0.000
279.11	-0.000
279.32	-0.000
279.53	-0.000
279.74	-0.000
279.96	-0.000
280.17	-0.000
280.38	-0.000
280.59	-0.000
280.80	-0.000
281.02	-0.000
281.23	-0.000
281.44	-0.000
281.65	-0.000
281.86	-0.000
282.07	-0.000
282.29	-0.000
282.50	-0.000
282.71	-0.000
282.92	-0.000
283.13	-0.000
283.35	-0.000
283.56	-0.000
283.77	-0.000
283.98	-0.000
284.19	-0.000
284.40	-0.000
284.62	-0.000
284.83	-0.000
285.04	-0.000
285.25	-0.000
285.46	-0.000
285.67	-0.000
285.88	-0.000
286.10	-0.000
286.31	-0.000
286.52	-0.000
286.73	-0.000
286.94	-0.000
287.15	-0.000
287.37	-0.000
287.58	-0.000
287.79	-0.000
288.00	-0.000
288.21	-0.000
288.42	-0.000
288.63	-0.000
288.85	-0.000
289.06	-0.000
289.27	-0.000
289.48	-0.000
289.69	-0.000
289.90	-0.000
290.11	-0.000
290.33	-0.000
290.54	-0.000
290.75	-0.000
290.96	-0.000
291.17	-0.000
291.38	-0.000
291.59	-0.000
291.81	-0.000
292.02	-0.000
292.23	-0.000
292.44	-0.000
292.65	-0.000
292.86	-0.000
293.07	-0.000
293.28	-0.000
293.50	-0.000
293.71	-0.000
293.92	-0.000
294.13	-0.000
294.34	-0.000
294.55	-0.000
294.76	-0.000
294.97	-0.000
295.19	-0.000
295.40	-0.000
295.61	-0.000
295.82	-0.000
296.03	-0.000
296.24	-0.000
296.45	-0.000
296.66	2.287
296.87	2.371
297.09	3.154
297.30	-0.000
297.51	2.078
297.72	1.979
297.93	2.251
298.14	2.115
298.35	1.985
298.56	1.913
298.77	2.229
298.99	2.149
299.20	2.020
299.41	1.953
299.62	1.903
299.83	1.896
300.04	1.763
300.25	1.735
300.46	1.813
300.67	1.774
300.88	1.679
301.10	1.676
301.31	1.795
301.52	1.699
301.73	1.606
301.94	1.604
302.15	1.637
302.36	1.583
302.57	1.503
302.78	1.513
302.99	1.566
303.20	1.588
303.41	1.468
303.63	1.441
303.84	1.458
304.05	1.452
304.26	1.377
304.47	1.378
304.68	1.384
304.89	1.366
305.10	1.313
305.31	1.300
305.52	1.350
305.73	1.338
305.94	1.289
306.15	1.279
306.37	1.308
306.58	1.313
306.79	1.275
307.00	1.299
307.21	1.348
307.42	1.340
307.63	1.299
307.84	1.263
308.05	1.309
308.26	1.312
308.47	1.283
308.68	1.278
308.89	1.283
309.10	1.279
309.31	1.232
309.52	1.224
309.73	1.242
309.95	1.233
310.16	1.202
310.37	1.190
310.58	1.213
310.79	1.210
311.00	1.199
311.21	1.201
311.42	1.205
311.63	1.197
311.84	1.171
312.05	1.168
312.26	1.196
312.47	1.207
312.68	1.179
312.89	1.161
313.10	1.168
313.31	1.141
313.52	1.139
313.73	1.139
313.94	1.144
314.15	1.129
314.36	1.106
314.57	1.096
314.78	1.083
314.99	1.075
315.21	1.059
315.42	1.065
315.63	1.081
315.84	1.059
316.05	1.045
316.26	1.053
316.47	1.072
316.68	1.068
316.89	1.046
317.10	1.069
317.31	1.078
317.52	1.081
317.73	1.055
317.94	1.053
318.15	1.099
318.36	1.098
318.57	1.077
318.78	1.065
318.99	1.102
319.20	1.100
319.41	1.062
319.62	1.063
319.83	1.077
320.04	1.071
320.25	1.057
320.46	1.022
320.67	1.027
320.88	1.022
321.09	1.006
321.30	0.991
321.51	1.007
321.72	1.006
321.93	0.989
322.14	0.981
322.35	1.011
322.56	1.012
322.77	0.998
322.98	1.008
323.19	1.018
323.40	1.024
323.61	1.001
323.82	0.997
324.03	1.003
324.24	0.998
324.45	0.985
324.66	0.966
324.87	0.965
325.08	0.964
325.29	0.942
325.50	0.936
325.71	0.944
325.92	0.952
326.13	0.936
326.34	0.935
326.55	0.944
326.76	0.944
326.97	0.932
327.18	0.924
327.39	0.951
327.60	0.954
327.80	0.952
328.01	0.950
328.22	0.952
328.43	0.955
328.64	0.942
328.85	0.945
329.06	0.948
329.27	0.946
329.48	0.940
329.69	0.922
329.90	0.933
330.11	0.925
330.32	0.917
330.53	0.910
330.74	0.912
330.95	0.910
331.16	0.895
331.37	0.903
331.58	0.904
331.79	0.905
332.00	0.893
332.21	0.886
332.42	0.891
332.63	0.882
332.83	0.876
333.04	0.878
333.25	0.890
333.46	0.888
333.67	0.872
333.88	0.874
334.09	0.883
334.30	0.880
334.51	0.871
334.72	0.866
334.93	0.871
335.14	0.870
335.35	0.862
335.56	0.859
335.77	0.869
335.98	0.869
336.18	0.862
336.39	0.855
336.60	0.860
336.81	0.858
337.02	0.856
337.23	0.860
337.44	0.864
337.65	0.865
337.86	0.854
338.07	0.849
338.28	0.855
338.49	0.854
338.70	0.847
338.91	0.854
339.11	0.863
339.32	0.860
339.53	0.847
339.74	0.845
339.95	0.843
340.16	0.840
340.37	0.831
340.58	0.829
340.79	0.834
341.00	0.833
341.21	0.820
341.41	0.820
341.62	0.821
341.83	0.822
342.04	0.817
342.25	0.828
342.46	0.835
342.67	0.834
342.88	0.827
343.09	0.825
343.30	0.834
343.50	0.838
343.71	0.828
343.92	0.827
344.13	0.832
344.34	0.831
344.55	0.813
344.76	0.811
344.97	0.815
345.18	0.813
345.38	0.810
345.59	0.805
345.80	0.804
346.01	0.802
346.22	0.797
346.43	0.792
346.64	0.801
346.85	0.801
347.06	0.794
347.26	0.795
347.47	0.800
347.68	0.795
347.89	0.791
348.10	0.786
348.31	0.793
348.52	0.793
348.73	0.789
348.93	0.786
349.14	0.789
349.35	0.788
349.56	0.781
349.77	0.776
349.98	0.783
350.19	0.781
350.39	0.776
350.60	0.772
350.81	0.788
351.02	0.787
351.23	0.782
351.44	0.785
351.65	0.790
351.86	0.788
352.06	0.786
352.27	0.787
352.48	0.788
352.69	0.787
352.90	0.781
353.11	0.769
353.31	0.776
353.52	0.772
353.73	0.762
353.94	0.763
354.15	0.770
354.36	0.770
354.57	0.761
354.77	0.764
354.98	0.764
355.19	0.764
355.40	0.762
355.61	0.768
355.82	0.774
356.02	0.773
356.23	0.766
356.44	0.768
356.65	0.772
356.86	0.773
357.07	0.765
357.27	0.769
357.48	0.773
357.69	0.768
357.90	0.752
358.11	0.748
358.32	0.753
358.52	0.756
358.73	0.746
358.94	0.749
359.15	0.754
359.36	0.753
359.56	0.748
359.77	0.744
359.98	0.751
360.19	0.752
360.40	0.748
360.61	0.748
360.81	0.747
361.02	0.748
361.23	0.739
361.44	0.737
361.65	0.739
361.85	0.739
362.06	0.737
362.27	0.739
362.48	0.740
362.69	0.742
362.89	0.735
363.10	0.737
363.31	0.742
363.52	0.745
363.73	0.739
363.93	0.739
364.14	0.741
364.35	0.742
364.56	0.732
364.77	0.733
364.97	0.737
365.18	0.738
365.39	0.732
365.60	0.727
365.81	0.729
366.01	0.729
366.22	0.726
366.43	0.725
366.64	0.729
366.84	0.734
367.05	0.730
367.26	0.730
367.47	0.732
367.68	0.732
367.88	0.729
368.09	0.728
368.30	0.731
368.51	0.730
368.71	0.728
368.92	0.732
369.13	0.732
369.34	0.731
369.55	0.729
369.75	0.729
369.96	0.736
370.17	0.736
370.38	0.732
370.58	0.731
370.79	0.737
371.00	0.736
371.21	0.727
371.41	0.732
371.62	0.737
371.83	0.732
372.04	0.729
372.24	0.723
372.45	0.725
372.66	0.726
372.87	0.722
373.07	0.720
373.28	0.721
373.49	0.723
373.70	0.713
373.90	0.712
374.11	0.721
374.32	0.721
374.53	0.720
374.73	0.720
374.94	0.723
375.15	0.724
375.36	0.721
375.56	0.729
375.77	0.730
375.98	0.732
376.19	0.729
376.39	0.722
376.60	0.727
376.81	0.727
377.02	0.724
377.22	0.722
377.43	0.722
377.64	0.722
377.84	0.713
378.05	0.717
378.26	0.723
378.47	0.722
378.67	0.718
378.88	0.715
379.09	0.716
379.30	0.716
379.50	0.713
379.71	0.716
379.92	0.718
380.12	0.718
380.33	0.708
380.54	0.705
380.75	0.711
380.95	0.712
381.16	0.709
381.37	0.709
381.57	0.712
381.78	0.713
381.99	0.711
382.20	0.710
382.40	0.714
382.61	0.715
382.82	0.711
383.02	0.705
383.23	0.708
383.44	0.708
383.64	0.705
383.85	0.708
384.06	0.710
384.27	0.707
384.47	0.705
384.68	0.706
384.89	0.711
385.09	0.711
385.30	0.710
385.51	0.708
385.71	0.712
385.92	0.713
386.13	0.711
386.33	0.713
386.54	0.715
386.75	0.714
386.95	0.709
387.16	0.704
387.37	0.707
387.58	0.706
387.78	0.704
387.99	0.702
388.20	0.704
388.40	0.701
388.61	0.696
388.82	0.698
389.02	0.702
389.23	0.702
389.44	0.699
389.64	0.700
389.85	0.711
390.06	0.710
390.26	0.710
390.47	0.708
390.68	0.711
390.88	0.709
391.09	0.704
391.30	0.703
391.50	0.702
391.71	0.703
391.92	0.699
392.12	0.692
392.33	0.693
392.53	0.693
392.74	0.693
392.95	0.692
393.15	0.695
393.36	0.697
393.57	0.695
393.77	0.698
393.98	0.700
394.19	0.700
394.39	0.699
394.60	0.700
394.81	0.702
395.01	0.700
395.22	0.697
395.43	0.698
395.63	0.703
395.84	0.704
396.04	0.699
396.25	0.701
396.46	0.704
396.66	0.702
396.87	0.699
397.08	0.695
397.28	0.697
397.49	0.698
397.69	0.694
397.90	0.689
398.11	0.690
398.31	0.691
398.52	0.687
398.73	0.687
398.93	0.686
399.14	0.685
399.34	0.684
399.55	0.686
399.76	0.686
399.96	0.687
400.17	0.685
400.37	0.683
400.58	0.690
400.79	0.692
400.99	0.689
401.20	0.695
401.41	0.698
401.61	0.698
401.82	0.702
402.02	0.702
402.23	0.703
402.44	0.703
402.64	0.702
402.85	0.696
403.05	0.695
403.26	0.694
403.47	0.687
403.67	0.686
403.88	0.687
404.08	0.681
404.29	0.679
404.50	0.678
404.70	0.679
404.91	0.678
405.11	0.675
405.32	0.675
405.52	0.675
405.73	0.675
405.94	0.673
406.14	0.675
406.35	0.677
406.55	0.676
406.76	0.674
406.97	0.675
407.17	0.678
407.38	0.678
407.58	0.676
407.79	0.678
407.99	0.681
408.20	0.682
408.41	0.678
408.61	0.675
408.82	0.677
409.02	0.676
409.23	0.673
409.43	0.673
409.64	0.674
409.84	0.674
410.05	0.670
410.26	0.669
410.46	0.669
410.67	0.668
410.87	0.669
411.08	0.671
411.28	0.673
411.49	0.675
411.69	0.671
411.90	0.672
412.11	0.674
412.31	0.674
412.52	0.673
412.72	0.674
412.93	0.675
413.13	0.674
413.34	0.670
413.54	0.670
413.75	0.672
413.95	0.671
414.16	0.668
414.37	0.671
414.57	0.672
414.78	0.674
414.98	0.671
415.19	0.673
415.39	0.671
415.60	0.674
415.80	0.673
416.01	0.671
416.21	0.674
416.42	0.674
416.62	0.669
416.83	0.669
417.03	0.668
417.24	0.669
417.44	0.666
417.65	0.665
417.86	0.666
418.06	0.664
418.27	0.662
418.47	0.663
418.68	0.664
418.88	0.664
419.09	0.663
419.29	0.663
419.50	0.664
419.70	0.663
419.91	0.662
420.11	0.659
420.32	0.662
420.52	0.662
420.73	0.661
420.93	0.662
421.14	0.664
421.34	0.663
421.55	0.660
421.75	0.660
421.96	0.661
422.16	0.662
422.37	0.662
422.57	0.659
422.78	0.661
422.98	0.657
423.19	0.654
423.39	0.652
423.60	0.656
423.80	0.657
424.01	0.656
424.21	0.658
424.42	0.660
424.62	0.659
424.83	0.658
425.03	0.659
425.23	0.662
425.44	0.662
425.64	0.663
425.85	0.661
426.05	0.663
426.26	0.664
426.46	0.660
426.67	0.659
426.87	0.664
427.08	0.664
427.28	0.661
427.49	0.662
427.69	0.663
427.90	0.662
428.10	0.659
428.31	0.659
428.51	0.660
428.71	0.660
428.92	0.661
429.12	0.658
429.33	0.660
429.53	0.663
429.74	0.667
429.94	0.667
430.15	0.667
430.35	0.667
430.56	0.664
430.76	0.663
430.96	0.665
431.17	0.662
431.37	0.660
431.58	0.658
431.78	0.655
431.99	0.649
432.19	0.651
432.40	0.653
432.60	0.654
432.80	0.656
433.01	0.654
433.21	0.655
433.42	0.656
433.62	0.657
433.83	0.656
434.03	0.659
434.23	0.662
434.44	0.661
434.64	0.658
434.85	0.663
435.05	0.665
435.26	0.665
435.46	0.664
435.66	0.663
435.87	0.663
436.07	0.664
436.28	0.659
436.48	0.656
436.69	0.656
436.89	0.657
437.09	0.650
437.30	0.649
437.50	0.650
437.71	0.662
437.91	0.661
438.11	0.663
438.32	0.668
438.52	0.668
438.73	0.667
438.93	0.665
439.13	0.665
439.34	0.670
439.54	0.667
439.75	0.667
439.95	0.657
440.15	0.661
440.36	0.660
440.56	0.657
440.77	0.658
440.97	0.658
441.17	0.658
441.38	0.659
441.58	0.656
441.79	0.656
441.99	0.654
442.19	0.653
442.40	0.651
442.60	0.651
442.81	0.649
443.01	0.649
443.21	0.650
443.42	0.649
443.62	0.648
443.82	0.648
444.03	0.650
444.23	0.650
444.44	0.650
444.64	0.649
444.84	0.651
445.05	0.651
445.25	0.648
445.45	0.648
445.66	0.652
445.86	0.650
446.06	0.651
446.27	0.650
446.47	0.654
446.68	0.652
446.88	0.651
447.08	0.650
447.29	0.653
447.49	0.653
447.69	0.653
447.90	0.652
448.10	0.657
448.30	0.655
448.51	0.656
448.71	0.654
448.91	0.657
449.12	0.655
449.32	0.657
449.52	0.656
449.73	0.660
449.93	0.659
450.14	0.659
450.34	0.658
450.54	0.660
450.75	0.658
450.95	0.657
451.15	0.656
451.36	0.659
451.56	0.656
451.76	0.654
451.97	0.652
452.17	0.652
452.37	0.651
452.58	0.647
452.78	0.646
452.98	0.649
453.19	0.648
453.39	0.648
453.59	0.648
453.79	0.649
454.00	0.650
454.20	0.648
454.40	0.649
454.61	0.651
454.81	0.652
455.01	0.651
455.22	0.652
455.42	0.655
455.62	0.652
455.83	0.652
456.03	0.655
456.23	0.656
456.44	0.657
456.64	0.655
456.84	0.656
457.04	0.656
457.25	0.655
457.45	0.652
457.65	0.651
457.86	0.652
458.06	0.651
458.26	0.645
458.47	0.645
458.67	0.646
458.87	0.646
459.07	0.643
459.28	0.646
459.48	0.649
459.68	0.649
459.89	0.648
460.09	0.647
460.29	0.648
460.49	0.649
460.70	0.648
460.90	0.648
461.10	0.650
461.31	0.650
461.51	0.646
461.71	0.648
461.91	0.650
462.12	0.650
462.32	0.649
462.52	0.649
462.72	0.653
462.93	0.654
463.13	0.652
463.33	0.653
463.53	0.655
463.74	0.654
463.94	0.649
464.14	0.649
464.35	0.651
464.55	0.651
464.75	0.649
464.95	0.647
465.16	0.649
465.36	0.648
465.56	0.647
465.76	0.645
465.97	0.647
466.17	0.648
466.37	0.646
466.57	0.646
466.78	0.647
466.98	0.648
467.18	0.645
467.38	0.644
467.59	0.646
467.79	0.648
467.99	0.647
468.19	0.647
468.39	0.651
468.60	0.651
468.80	0.649
469.00	0.650
469.20	0.651
469.41	0.652
469.61	0.651
469.81	0.650
470.01	0.651
470.22	0.651
470.42	0.650
470.62	0.647
470.82	0.649
471.02	0.648
471.23	0.646
471.43	0.646
471.63	0.650
471.83	0.649
472.04	0.647
472.24	0.645
472.44	0.651
472.64	0.650
472.84	0.648
473.05	0.648
473.25	0.651
473.45	0.650
473.65	0.648
473.85	0.648
474.06	0.650
474.26	0.650
474.46	0.651
474.66	0.648
474.86	0.649
475.07	0.649
475.27	0.647
475.47	0.644
475.67	0.645
475.87	0.647
476.08	0.644
476.28	0.644
476.48	0.646
476.68	0.644
476.88	0.642
477.09	0.643
477.29	0.645
477.49	0.645
477.69	0.644
477.89	0.644
478.09	0.645
478.30	0.647
478.50	0.643
478.70	0.643
478.90	0.644
479.10	0.647
479.31	0.648
479.51	0.647
479.71	0.648
479.91	0.648
480.11	0.647
480.31	0.647
480.52	0.646
480.72	0.646
480.92	0.644
481.12	0.643
481.32	0.641
481.52	0.638
481.72	0.638
481.93	0.641
482.13	0.641
482.33	0.641
482.53	0.638
482.73	0.639
482.93	0.641
483.14	0.640
483.34	0.640
483.54	0.640
483.74	0.640
483.94	0.639
484.14	0.634
484.34	0.635
484.55	0.635
484.75	0.635
484.95	0.633
485.15	0.633
485.35	0.633
485.55	0.633
485.75	0.631
485.96	0.631
486.16	0.633
486.36	0.633
486.56	0.631
486.76	0.631
486.96	0.632
487.16	0.632
487.36	0.630
487.57	0.629
487.77	0.630
487.97	0.631
488.17	0.629
488.37	0.629
488.57	0.629
488.77	0.629
488.97	0.628
489.18	0.627
489.38	0.630
489.58	0.631
489.78	0.630
489.98	0.629
490.18	0.629
490.38	0.630
490.58	0.628
490.78	0.628
490.98	0.630
491.19	0.630
491.39	0.630
491.59	0.629
491.79	0.632
491.99	0.632
492.19	0.631
492.39	0.635
492.59	0.635
492.79	0.637
492.99	0.637
493.20	0.637
493.40	0.638
493.60	0.639
493.80	0.637
494.00	0.634
494.20	0.636
494.40	0.635
494.60	0.633
494.80	0.638
495.00	0.637
495.20	0.635
495.40	0.634
495.61	0.636
495.81	0.636
496.01	0.640
496.21	0.640
496.41	0.640
496.61	0.640
496.81	0.639
497.01	0.634
497.21	0.634
497.41	0.634
497.61	0.634
497.81	0.631
498.01	0.631
498.21	0.630
498.41	0.627
498.61	0.627
498.82	0.629
499.02	0.631
499.22	0.632
499.42	0.631
499.62	0.632
499.82	0.633
500.02	0.635
500.22	0.633
500.42	0.635
500.62	0.636
500.82	0.637
501.02	0.634
501.22	0.635
501.42	0.635
501.62	0.637
501.82	0.636
502.02	0.636
502.22	0.636
502.42	0.638
502.62	0.636
502.82	0.636
503.02	0.637
503.22	0.637
503.42	0.634
503.63	0.635
503.83	0.633
504.03	0.632
504.23	0.630
504.43	0.631
504.63	0.631
504.83	0.631
505.03	0.630
505.23	0.631
505.43	0.633
505.63	0.634
505.83	0.633
506.03	0.635
506.23	0.637
506.43	0.638
506.63	0.636
506.83	0.635
507.03	0.638
507.23	0.638
507.43	0.635
507.63	0.635
507.83	0.636
508.03	0.636
508.23	0.635
508.43	0.633
508.63	0.636
508.83	0.636
509.03	0.636
509.23	0.635
509.43	0.636
509.63	0.637
509.83	0.635
510.03	0.638
510.23	0.640
510.43	0.641
510.63	0.640
510.83	0.640
511.03	0.641
511.23	0.639
511.43	0.638
511.63	0.640
511.83	0.642
512.03	0.642
512.22	0.639
512.42	0.638
512.62	0.639
512.82	0.640
513.02	0.639
513.22	0.639
513.42	0.642
513.62	0.645
513.82	0.642
514.02	0.642
514.22	0.643
514.42	0.644
514.62	0.643
514.82	0.643
515.02	0.646
515.22	0.649
515.42	0.647
515.62	0.649
515.82	0.648
516.02	0.650
516.22	0.649
516.42	0.651
516.62	0.653
516.82	0.654
517.01	0.652
517.21	0.652
517.41	0.656
517.61	0.656
517.81	0.651
518.01	0.651
518.21	0.651
518.41	0.650
518.61	0.648
518.81	0.649
519.01	0.650
519.21	0.650
519.41	0.648
519.61	0.643
519.81	0.646
520.00	0.647
520.20	0.647
520.40	0.650
520.60	0.651
520.80	0.650
521.00	0.651
521.20	0.652
521.40	0.657
521.60	0.657
521.80	0.655
522.00	0.656
522.20	0.659
522.39	0.658
522.59	0.654
522.79	0.657
522.99	0.659
523.19	0.657
523.39	0.655
523.59	0.652
523.79	0.656
523.99	0.659
524.19	0.657
524.38	0.656
524.58	0.657
524.78	0.657
524.98	0.655
525.18	0.657
525.38	0.658
525.58	0.658
525.78	0.655
525.98	0.654
526.18	0.655
526.37	0.654
526.57	0.656
526.77	0.656
526.97	0.657
527.17	0.657
527.37	0.653
527.57	0.656
527.77	0.658
527.96	0.659
528.16	0.658
528.36	0.658
528.56	0.660
528.76	0.657
528.96	0.656
529.16	0.657
529.36	0.661
529.55	0.661
529.75	0.657
529.95	0.657
530.15	0.659
530.35	0.661
530.55	0.659
530.75	0.659
530.94	0.662
531.14	0.662
531.34	0.661
531.54	0.658
531.74	0.662
531.94	0.665
532.13	0.663
532.33	0.665
532.53	0.664
532.73	0.664
532.93	0.661
533.13	0.662
533.33	0.662
533.52	0.663
533.72	0.666
533.92	0.664
534.12	0.662
534.32	0.662
534.52	0.660
534.71	0.662
534.91	0.666
535.11	0.667
535.31	0.665
535.51	0.667
535.71	0.669
535.90	0.666
536.10	0.667
536.30	0.669
536.50	0.671
536.70	0.671
536.89	0.668
537.09	0.667
537.29	0.669
537.49	0.670
537.69	0.668
537.89	0.668
538.08	0.668
538.28	0.667
538.48	0.667
538.68	0.669
538.88	0.670
539.07	0.670
539.27	0.668
539.47	0.667
539.67	0.667
539.87	0.669
540.06	0.666
540.26	0.668
540.46	0.670
540.66	0.667
540.86	0.664
541.05	0.664
541.25	0.667
541.45	0.666
541.65	0.665
541.84	0.667
542.04	0.668
542.24	0.669
542.44	0.667
542.64	0.667
542.83	0.671
543.03	0.672
543.23	0.669
543.43	0.669
543.62	0.671
543.82	0.672
544.02	0.670
544.22	0.670
544.42	0.674
544.61	0.674
544.81	0.671
545.01	0.669
545.21	0.672
545.40	0.672
545.60	0.670
545.80	0.674
546.00	0.675
546.19	0.674
546.39	0.672
546.59	0.669
546.79	0.671
546.98	0.671
547.18	0.670
547.38	0.671
547.58	0.674
547.77	0.674
547.97	0.670
548.17	0.672
548.37	0.672
548.56	0.673
548.76	0.672
548.96	0.674
549.16	0.677
549.35	0.677
549.55	0.674
549.75	0.674
549.95	0.678
550.14	0.678
550.34	0.676
550.54	0.681
550.73	0.684
550.93	0.685
551.13	0.682
551.33	0.681
551.52	0.682
551.72	0.683
551.92	0.680
552.12	0.680
552.31	0.680
552.51	0.681
552.71	0.675
552.90	0.675
553.10	0.676
553.30	0.677
553.50	0.675
553.69	0.676
553.89	0.677
554.09	0.677
554.28	0.675
554.48	0.677
554.68	0.678
554.87	0.679
555.07	0.675
555.27	0.675
555.47	0.677
555.66	0.677
555.86	0.675
556.06	0.678
556.25	0.680
556.45	0.688
556.65	0.686
556.84	0.689
557.04	0.693
557.24	0.695
557.43	0.694
557.63	0.697
557.83	0.699
558.02	0.699
558.22	0.703
558.42	0.703
558.61	0.696
558.81	0.696
559.01	0.691
559.21	0.691
559.40	0.693
559.60	0.693
559.80	0.689
559.99	0.690
560.19	0.693
560.39	0.687
560.58	0.684
560.78	0.684
560.97	0.688
561.17	0.687
561.37	0.685
561.56	0.686
561.76	0.688
561.96	0.687
562.15	0.684
562.35	0.686
562.55	0.688
562.74	0.687
562.94	0.686
563.14	0.684
563.33	0.686
563.53	0.685
563.73	0.682
563.92	0.684
564.12	0.687
564.31	0.690
564.51	0.688
564.71	0.690
564.90	0.693
565.10	0.694
565.30	0.696
565.49	0.697
565.69	0.700
565.89	0.700
566.08	0.696
566.28	0.697
566.47	0.699
566.67	0.697
566.87	0.694
567.06	0.695
567.26	0.701
567.46	0.697
567.65	0.696
567.85	0.696
568.04	0.700
568.24	0.700
568.44	0.696
568.63	0.694
568.83	0.696
569.02	0.694
569.22	0.689
569.42	0.686
569.61	0.689
569.81	0.687
570.00	0.684
570.20	0.685
570.40	0.687
570.59	0.687
570.79	0.685
570.98	0.683
571.18	0.685
571.38	0.685
571.57	0.682
571.77	0.680
571.96	0.684
572.16	0.682
572.35	0.676
572.55	0.677
572.75	0.675
572.94	0.675
573.14	0.673
573.33	0.673
573.53	0.674
573.73	0.673
573.92	0.671
574.12	0.669
574.31	0.672
574.51	0.673
574.70	0.670
574.90	0.671
575.09	0.674
575.29	0.674
575.49	0.671
575.68	0.672
575.88	0.674
576.07	0.675
576.27	0.673
576.46	0.671
576.66	0.671
576.86	0.670
577.05	0.668
577.25	0.666
577.44	0.668
577.64	0.667
577.83	0.665
578.03	0.665
578.22	0.665
578.42	0.664
578.61	0.662
578.81	0.663
579.00	0.664
579.20	0.664
579.40	0.663
579.59	0.662
579.79	0.662
579.98	0.662
580.18	0.661
580.37	0.662
580.57	0.665
580.76	0.669
580.96	0.667
581.15	0.667
581.35	0.669
581.54	0.668
581.74	0.667
581.93	0.669
582.13	0.670
582.32	0.668
582.52	0.666
582.71	0.665
582.91	0.662
583.10	0.662
583.30	0.661
583.49	0.660
583.69	0.664
583.88	0.666
584.08	0.665
584.27	0.667
584.47	0.670
584.66	0.670
584.86	0.668
585.05	0.670
585.25	0.672
585.44	0.672
585.64	0.670
585.83	0.667
586.03	0.668
586.22	0.667
586.42	0.663
586.61	0.665
586.81	0.668
587.00	0.669
587.20	0.667
587.39	0.668
587.59	0.670
587.78	0.672
587.98	0.672
588.17	0.673
588.37	0.675
588.56	0.678
588.76	0.673
588.95	0.673
589.15	0.676
589.34	0.679
589.54	0.677
589.73	0.677
589.92	0.681
590.12	0.680
590.31	0.677
590.51	0.681
590.70	0.683
590.90	0.683
591.09	0.681
591.29	0.680
591.48	0.679
591.68	0.680
591.87	0.678
592.06	0.678
592.26	0.681
592.45	0.680
592.65	0.674
592.84	0.674
593.04	0.676
593.23	0.678
593.43	0.676
593.62	0.676
593.81	0.677
594.01	0.677
594.20	0.674
594.40	0.674
594.59	0.677
594.79	0.678
594.98	0.676
595.17	0.675
595.37	0.676
595.56	0.677
595.76	0.676
595.95	0.677
596.14	0.680
596.34	0.681
596.53	0.679
596.73	0.680
596.92	0.681
597.12	0.683
597.31	0.683
597.50	0.682
597.70	0.685
597.89	0.685
598.09	0.681
598.28	0.682
598.47	0.684
598.67	0.683
598.86	0.680
599.06	0.682
599.25	0.683
599.44	0.681
599.64	0.678
599.83	0.676
600.03	0.680
600.22	0.681
600.41	0.680
600.61	0.679
600.80	0.682
601.00	0.683
601.19	0.678
601.38	0.677
601.58	0.680
601.77	0.681
601.96	0.682
602.16	0.681
602.35	0.691
602.55	0.688
602.74	0.688
602.93	0.689
603.13	0.694
603.32	0.696
603.51	0.695
603.71	0.697
603.90	0.700
604.09	0.700
604.29	0.697
604.48	0.691
604.68	0.693
604.87	0.692
605.06	0.688
605.26	0.685
605.45	0.685
605.64	0.685
605.84	0.680
606.03	0.679
606.22	0.678
606.42	0.677
606.61	0.674
606.80	0.674
607.00	0.676
607.19	0.677
607.38	0.675
607.58	0.677
607.77	0.680
607.96	0.680
608.16	0.678
608.35	0.683
608.54	0.687
608.74	0.690
608.93	0.695
609.12	0.698
609.32	0.701
609.51	0.704
609.70	0.703
609.90	0.704
610.09	0.709
610.28	0.715
610.48	0.708
610.67	0.709
610.86	0.710
611.06	0.703
611.25	0.700
611.44	0.701
611.64	0.701
611.83	0.704
612.02	0.700
612.21	0.698
612.41	0.697
612.60	0.696
612.79	0.692
612.99	0.693
613.18	0.695
613.37	0.693
613.57	0.691
613.76	0.692
613.95	0.691
614.14	0.691
614.34	0.687
614.53	0.689
614.72	0.693
614.92	0.693
615.11	0.689
615.30	0.687
615.49	0.689
615.69	0.691
615.88	0.688
616.07	0.689
616.26	0.693
616.46	0.694
616.65	0.691
616.84	0.691
617.04	0.693
617.23	0.697
617.42	0.696
617.61	0.700
617.81	0.702
618.00	0.703
618.19	0.701
618.38	0.704
618.58	0.707
618.77	0.707
618.96	0.706
619.15	0.708
619.35	0.710
619.54	0.711
619.73	0.705
619.92	0.706
620.12	0.711
620.31	0.712
620.50	0.707
620.69	0.707
620.89	0.711
621.08	0.711
621.27	0.710
621.46	0.708
621.66	0.713
621.85	0.714
622.04	0.710
622.23	0.711
622.43	0.712
622.62	0.711
622.81	0.709
623.00	0.708
623.19	0.712
623.39	0.711
623.58	0.707
623.77	0.706
623.96	0.709
624.16	0.709
624.35	0.704
624.54	0.707
624.73	0.713
624.92	0.710
625.12	0.708
625.31	0.709
625.50	0.713
625.69	0.714
625.88	0.710
626.08	0.710
626.27	0.712
626.46	0.712
626.65	0.708
626.84	0.709
627.04	0.716
627.23	0.715
627.42	0.709
627.61	0.712
627.80	0.715
628.00	0.716
628.19	0.713
628.38	0.717
628.57	0.721
628.76	0.720
628.96	0.715
629.15	0.716
629.34	0.720
629.53	0.719
629.72	0.712
629.91	0.712
630.11	0.719
630.30	0.719
630.49	0.721
630.68	0.722
630.87	0.726
631.06	0.728
631.26	0.722
631.45	0.724
631.64	0.734
631.83	0.737
632.02	0.734
632.21	0.731
632.41	0.739
632.60	0.733
632.79	0.730
632.98	0.730
633.17	0.733
633.36	0.735
633.55	0.730
633.75	0.726
633.94	0.729
634.13	0.729
634.32	0.725
634.51	0.719
634.70	0.723
634.89	0.723
635.09	0.719
635.28	0.720
635.47	0.722
635.66	0.725
635.85	0.720
636.04	0.721
636.23	0.727
636.43	0.729
636.62	0.727
636.81	0.726
637.00	0.729
637.19	0.732
637.38	0.728
637.57	0.728
637.76	0.731
637.95	0.732
638.15	0.728
638.34	0.724
638.53	0.728
638.72	0.729
638.91	0.725
639.10	0.723
639.29	0.724
639.48	0.725
639.67	0.724
639.87	0.722
640.06	0.729
640.25	0.728
640.44	0.727
640.63	0.727
640.82	0.729
641.01	0.730
641.20	0.729
641.39	0.731
641.58	0.735
641.78	0.733
641.97	0.729
642.16	0.743
642.35	0.745
642.54	0.745
642.73	0.738
642.92	0.736
643.11	0.741
643.30	0.741
643.49	0.734
643.68	0.737
643.87	0.739
644.06	0.738
644.25	0.716
644.45	0.720
644.64	0.722
644.83	0.724
645.02	0.721
645.21	0.719
645.40	0.721
645.59	0.722
645.78	0.715
645.97	0.717
646.16	0.719
646.35	0.718
646.54	0.714
646.73	0.715
646.92	0.717
647.11	0.716
647.30	0.712
647.49	0.714
647.68	0.714
647.88	0.713
648.07	0.705
648.26	0.710
648.45	0.712
648.64	0.708
648.83	0.705
649.02	0.708
649.21	0.719
649.40	0.718
649.59	0.713
649.78	0.713
649.97	0.729
650.16	0.729
650.35	0.721
650.54	0.723
650.73	0.733
650.92	0.729
651.11	0.721
651.30	0.720
651.49	0.724
651.68	0.725
651.87	0.721
652.06	0.710
652.25	0.713
652.44	0.715
652.63	0.710
652.82	0.708
653.01	0.708
653.20	0.705
653.39	0.692
653.58	0.689
653.77	0.688
653.96	0.683
654.15	0.675
654.34	0.674
654.53	0.670
654.72	0.665
654.91	0.656
655.10	0.652
655.29	0.651
655.48	0.649
655.67	0.644
655.86	0.641
656.05	0.640
656.24	0.640
656.43	0.635
656.62	0.634
656.81	0.635
657.00	0.635
657.19	0.633
657.38	0.634
657.57	0.634
657.76	0.637
657.95	0.635
658.14	0.639
658.33	0.644
658.51	0.649
658.70	0.650
658.89	0.650
659.08	0.659
659.27	0.665
659.46	0.664
659.65	0.669
659.84	0.673
660.03	0.677
660.22	0.677
660.41	0.681
660.60	0.681
660.79	0.682
660.98	0.688
661.17	0.687
661.36	0.687
661.55	0.687
661.74	0.685
661.92	0.687
662.11	0.689
662.30	0.687
662.49	0.680
662.68	0.679
662.87	0.683
663.06	0.676
663.25	0.676
663.44	0.677
663.63	0.679
663.82	0.677
664.01	0.672
664.20	0.671
664.38	0.673
664.57	0.674
664.76	0.672
664.95	0.673
665.14	0.679
665.33	0.674
665.52	0.681
665.71	0.685
665.90	0.685
666.09	0.686
666.28	0.683
666.46	0.682
666.65	0.684
666.84	0.681
667.03	0.673
667.22	0.671
667.41	0.675
667.60	0.663
667.79	0.656
667.98	0.658
668.16	0.659
668.35	0.660
668.54	0.655
668.73	0.656
668.92	0.659
669.11	0.658
669.30	0.651
669.49	0.648
669.67	0.651
669.86	0.653
670.05	0.649
670.24	0.647
670.43	0.644
670.62	0.643
670.81	0.638
671.00	0.639
671.18	0.639
671.37	0.638
671.56	0.635
671.75	0.635
671.94	0.633
672.13	0.631
672.32	0.626
672.50	0.625
672.69	0.626
672.88	0.627
673.07	0.621
673.26	0.624
673.45	0.626
673.63	0.626
673.82	0.621
674.01	0.623
674.20	0.623
674.39	0.622
674.58	0.621
674.76	0.622
674.95	0.620
675.14	0.619
675.33	0.614
675.52	0.612
675.71	0.612
675.89	0.611
676.08	0.606
676.27	0.606
676.46	0.608
676.65	0.606
676.84	0.605
677.02	0.607
677.21	0.610
677.40	0.610
677.59	0.606
677.78	0.607
677.96	0.610
678.15	0.610
678.34	0.608
678.53	0.609
678.72	0.610
678.90	0.606
679.09	0.602
679.28	0.599
679.47	0.599
679.66	0.599
679.84	0.595
680.03	0.594
680.22	0.593
680.41	0.595
680.60	0.591
680.78	0.590
680.97	0.593
681.16	0.593
681.35	0.591
681.53	0.590
681.72	0.591
681.91	0.593
682.10	0.591
682.29	0.593
682.47	0.591
682.66	0.591
682.85	0.589
683.04	0.587
683.22	0.587
683.41	0.589
683.60	0.588
683.79	0.589
683.97	0.589
684.16	0.587
684.35	0.582
684.54	0.584
684.72	0.584
684.91	0.585
685.10	0.583
685.29	0.585
685.47	0.582
685.66	0.581
685.85	0.577
686.04	0.576
686.22	0.579
686.41	0.581
686.60	0.578
686.79	0.580
686.97	0.581
687.16	0.582
687.35	0.579
687.54	0.583
687.72	0.588
687.91	0.588
688.10	0.590
688.29	0.590
688.47	0.588
688.66	0.588
688.85	0.584
689.03	0.582
689.22	0.587
689.41	0.588
689.60	0.582
689.78	0.579
689.97	0.580
690.16	0.576
690.34	0.572
690.53	0.572
690.72	0.573
690.91	0.571
691.09	0.568
691.28	0.562
691.47	0.560
691.65	0.559
691.84	0.556
692.03	0.556
692.21	0.554
692.40	0.554
692.59	0.551
692.77	0.550
692.96	0.552
693.15	0.552
693.34	0.550
693.52	0.550
693.71	0.551
693.90	0.551
694.08	0.552
694.27	0.553
694.46	0.563
694.64	0.564
694.83	0.563
695.02	0.562
695.20	0.562
695.39	0.561
695.58	0.561
695.76	0.562
695.95	0.562
696.14	0.561
696.32	0.558
696.51	0.548
696.70	0.548
696.88	0.549
697.07	0.548
697.26	0.549
697.44	0.551
697.63	0.550
697.81	0.547
698.00	0.546
698.19	0.546
698.37	0.546
698.56	0.546
698.75	0.545
698.93	0.545
699.12	0.544
699.31	0.543
699.49	0.543
699.68	0.544
699.87	0.547
700.05	0.547
700.24	0.545
700.42	0.548
700.61	0.547
700.80	0.545
700.98	0.545
701.17	0.547
701.36	0.545
701.54	0.544
701.73	0.545
701.91	0.543
702.10	0.542
702.29	0.540
702.47	0.539
702.66	0.541
702.84	0.542
703.03	0.540
703.22	0.541
703.40	0.542
703.59	0.543
703.77	0.542
703.96	0.542
704.15	0.544
704.33	0.543
704.52	0.542
704.70	0.542
704.89	0.542
705.08	0.541
705.26	0.537
705.45	0.537
705.63	0.537
705.82	0.534
706.00	0.532
706.19	0.531
706.38	0.531
706.56	0.531
706.75	0.528
706.93	0.526
707.12	0.528
707.30	0.529
707.49	0.526
707.68	0.524
707.86	0.524
708.05	0.524
708.23	0.522
708.42	0.523
708.60	0.526
708.79	0.526
708.98	0.524
709.16	0.523
709.35	0.526
709.53	0.529
709.72	0.528
709.90	0.529
710.09	0.531
710.27	0.533
710.46	0.536
710.64	0.534
710.83	0.537
711.02	0.538
711.20	0.537
711.39	0.534
711.57	0.532
711.76	0.532
711.94	0.530
712.13	0.531
712.31	0.531
712.50	0.527
712.68	0.523
712.87	0.524
713.05	0.525
713.24	0.525
713.42	0.524
713.61	0.526
713.79	0.527
713.98	0.528
714.16	0.528
714.35	0.527
714.54	0.529
714.72	0.529
714.91	0.525
715.09	0.532
715.28	0.536
715.46	0.535
715.65	0.532
715.83	0.532
716.02	0.534
716.20	0.531
716.39	0.529
716.57	0.531
716.76	0.534
716.94	0.535
717.12	0.526
717.31	0.527
717.49	0.531
717.68	0.532
717.86	0.531
718.05	0.534
718.23	0.537
718.42	0.540
718.60	0.540
718.79	0.548
718.97	0.552
719.16	0.552
719.34	0.549
719.53	0.549
719.71	0.550
719.90	0.552
720.08	0.548
720.27	0.549
720.45	0.549
720.63	0.548
720.82	0.540
721.00	0.541
721.19	0.546
721.37	0.545
721.56	0.545
721.74	0.548
721.93	0.556
722.11	0.563
722.30	0.560
722.48	0.564
722.66	0.566
722.85	0.566
723.03	0.566
723.22	0.564
723.40	0.568
723.59	0.567
723.77	0.571
723.95	0.565
724.14	0.568
724.32	0.571
724.51	0.570
724.69	0.570
724.88	0.572
725.06	0.569
725.24	0.570
725.43	0.571
725.61	0.574
725.80	0.568
725.98	0.564
726.16	0.561
726.35	0.568
726.53	0.567
726.72	0.565
726.90	0.577
727.09	0.578
727.27	0.583
727.45	0.580
727.64	0.590
727.82	0.599
728.01	0.605
728.19	0.602
728.37	0.608
728.56	0.612
728.74	0.619
728.92	0.606
729.11	0.609
729.29	0.609
729.48	0.611
729.66	0.598
729.84	0.599
730.03	0.603
730.21	0.604
730.40	0.592
730.58	0.594
730.76	0.595
730.95	0.596
731.13	0.595
731.31	0.609
731.50	0.621
731.68	0.625
731.86	0.620
732.05	0.635
732.23	0.640
732.42	0.645
732.60	0.646
732.78	0.650
732.97	0.671
733.15	0.678
733.33	0.663
733.52	0.670
733.70	0.683
733.88	0.693
734.07	0.676
734.25	0.705
734.43	0.714
734.62	0.716
734.80	0.710
734.98	0.700
735.17	0.709
735.35	0.718
735.53	0.703
735.72	0.706
735.90	0.730
736.08	0.751
736.27	0.725
736.45	0.735
736.63	0.751
736.82	0.762
737.00	0.761
737.18	0.774
737.37	0.810
737.55	0.837
737.73	0.829
737.92	0.830
738.10	0.828
738.28	0.850
738.46	0.835
738.65	0.850
738.83	0.875
739.01	0.936
739.20	0.925
739.38	0.902
739.56	0.897
739.75	0.900
739.93	0.861
740.11	0.889
740.29	0.892
740.48	0.898
740.66	0.869
740.84	0.867
741.03	0.829
741.21	0.840
741.39	0.818
741.57	0.830
741.76	0.852
741.94	0.861
742.12	0.821
742.31	0.827
742.49	0.855
742.67	0.884
742.85	0.893
743.04	0.898
743.22	0.915
743.40	0.977
743.58	0.953
743.77	0.974
743.95	1.024
744.13	1.085
744.31	1.054
744.50	1.051
744.68	1.057
744.86	1.028
745.04	1.040
745.23	1.119
745.41	1.108
745.59	1.118
745.77	1.065
745.96	1.043
746.14	1.059
746.32	1.057
746.50	1.038
746.69	1.019
746.87	1.039
747.05	1.021
747.23	0.926
747.42	0.907
747.60	0.948
747.78	0.950
747.96	0.987
748.14	0.935
748.33	0.972
748.51	0.965
748.69	0.950
748.87	0.986
749.06	0.981
749.24	0.984
749.42	0.965
749.60	0.935
749.78	0.954
749.97	0.901
750.15	0.887
750.33	0.890
750.51	0.926
750.69	0.932
750.88	0.932
751.06	0.948
751.24	0.983
751.42	0.970
751.60	0.955
751.79	1.039
751.97	1.103
752.15	1.105
752.33	1.063
752.51	1.141
752.69	1.171
752.88	1.126
753.06	1.184
753.24	1.150
753.42	1.207
753.60	1.469
753.78	1.228
753.97	1.243
754.15	1.274
754.33	1.310
754.51	1.132
754.69	1.113
754.87	1.160
755.06	1.061
755.24	1.056
755.42	1.064
755.60	0.952
755.78	0.963
755.96	0.902
756.15	0.903
756.33	0.910
756.51	0.935
756.69	0.913
756.87	0.877
757.05	0.904
757.23	0.886
757.42	0.846
757.60	0.847
757.78	0.835
757.96	0.833
758.14	0.814
758.32	0.800
758.50	0.816
758.69	0.816
758.87	0.800
759.05	0.805
759.23	0.820
759.41	0.824
759.59	0.812
759.77	0.843
759.95	0.877
760.13	0.933
760.32	0.925
760.50	0.920
760.68	0.952
760.86	0.956
761.04	0.917
761.22	0.923
761.40	0.978
761.58	0.980
761.76	0.940
761.95	0.916
762.13	0.867
762.31	0.866
762.49	0.827
762.67	0.843
762.85	0.859
763.03	0.855
763.21	0.829
763.39	0.807
763.57	0.811
763.75	0.803
763.94	0.786
764.12	0.788
764.30	0.819
764.48	0.819
764.66	0.780
764.84	0.777
765.02	0.821
765.20	0.829
765.38	0.807
765.56	0.813
765.74	0.859
765.92	0.858
766.10	0.863
766.28	0.855
766.46	0.895
766.65	0.898
766.83	0.883
767.01	0.864
767.19	0.875
767.37	0.874
767.55	0.856
767.73	0.834
767.91	0.845
768.09	0.833
768.27	0.817
768.45	0.806
768.63	0.811
768.81	0.811
768.99	0.779
769.17	0.808
769.35	0.827
769.53	0.825
769.71	0.803
769.89	0.812
770.07	0.822
770.25	0.803
770.43	0.777
770.61	0.805
770.79	0.818
770.97	0.830
771.15	0.790
771.33	0.797
771.51	0.801
771.69	0.811
771.87	0.815
772.05	0.821
772.24	0.833
772.42	0.845
772.60	0.817
772.78	0.885
772.96	0.922
773.14	0.918
773.32	0.885
773.49	0.898
773.67	0.903
773.85	0.879
774.03	0.865
774.21	0.900
774.39	0.916
774.57	0.942
774.75	0.852
774.93	0.847
775.11	0.874
775.29	0.882
775.47	0.877
775.65	0.884
775.83	0.906
776.01	0.931
776.19	0.874
776.37	0.873
776.55	0.875
776.73	0.870
776.91	0.860
777.09	0.842
777.27	0.849
777.45	0.838
777.63	0.809
777.81	0.809
777.99	0.797
778.17	0.798
778.35	0.771
778.53	0.760
778.71	0.770
778.89	0.756
779.07	0.743
779.24	0.745
779.42	0.748
779.60	0.772
779.78	0.764
779.96	0.769
780.14	0.779
780.32	0.804
780.50	0.782
780.68	0.780
780.86	0.773
781.04	0.790
781.22	0.793
781.40	0.806
781.58	0.798
781.75	0.788
781.93	0.766
782.11	0.765
782.29	0.752
782.47	0.753
782.65	0.738
782.83	0.771
783.01	0.768
783.19	0.759
783.37	0.740
783.55	0.745
783.72	0.768
783.90	0.781
784.08	0.770
784.26	0.784
784.44	0.809
784.62	0.809
784.80	0.768
784.98	0.775
785.16	0.784
785.33	0.800
785.51	0.780
785.69	0.764
785.87	0.765
786.05	0.779
786.23	0.769
786.41	0.766
786.59	0.774
786.77	0.774
786.94	0.756
787.12	0.759
787.30	0.762
787.48	0.758
787.66	0.743
787.84	0.742
788.02	0.733
788.19	0.732
788.37	0.716
788.55	0.720
788.73	0.722
788.91	0.716
789.09	0.695
789.27	0.683
789.44	0.698
789.62	0.704
789.80	0.712
789.98	0.737
790.16	0.724
790.34	0.721
790.51	0.704
790.69	0.725
790.87	0.736
791.05	0.735
791.23	0.727
791.41	0.728
791.58	0.739
791.76	0.716
791.94	0.683
792.12	0.694
792.30	0.698
792.48	0.697
792.65	0.689
792.83	0.695
793.01	0.705
793.19	0.703
793.37	0.683
793.54	0.681
793.72	0.696
793.90	0.693
794.08	0.678
794.26	0.678
794.43	0.689
794.61	0.670
794.79	0.654
794.97	0.654
795.15	0.661
795.32	0.666
795.50	0.651
795.68	0.643
795.86	0.650
796.04	0.653
796.21	0.646
796.39	0.643
796.57	0.662
796.75	0.672
796.92	0.671
797.10	0.675
797.28	0.677
797.46	0.683
797.64	0.684
797.81	0.693
797.99	0.699
798.17	0.705
798.35	0.698
798.52	0.699
798.70	0.696
798.88	0.707
799.06	0.706
799.23	0.710
799.41	0.718
799.59	0.712
799.77	0.696
799.94	0.705
800.12	0.717
800.30	0.737
800.48	0.733
800.65	0.734
800.83	0.725
801.01	0.715
801.19	0.714
801.36	0.711
801.54	0.718
801.72	0.729
801.90	0.711
802.07	0.704
802.25	0.689
802.43	0.672
802.60	0.665
802.78	0.671
802.96	0.679
803.14	0.672
803.31	0.668
803.49	0.666
803.67	0.665
803.84	0.669
804.02	0.659
804.20	0.662
804.38	0.671
804.55	0.669
804.73	0.653
804.91	0.652
805.08	0.666
805.26	0.660
805.44	0.720
805.61	0.725
805.79	0.726
805.97	0.727
806.15	0.718
806.32	0.712
806.50	0.721
806.68	0.720
806.85	0.710
807.03	0.701
807.21	0.722
807.38	0.658
807.56	0.644
807.74	0.655
807.91	0.663
808.09	0.664
808.27	0.683
808.44	0.711
808.62	0.724
808.80	0.725
808.97	0.718
809.15	0.712
809.33	0.732
809.50	0.741
809.68	0.723
809.86	0.732
810.03	0.772
810.21	0.748
810.39	0.727
810.56	0.732
810.74	0.760
810.91	0.844
811.09	0.828
811.27	0.851
811.44	0.858
811.62	0.860
811.80	0.839
811.97	0.798
812.15	0.799
812.33	0.794
812.50	0.777
812.68	0.766
812.85	0.705
813.03	0.706
813.21	0.670
813.38	0.663
813.56	0.669
813.74	0.681
813.91	0.691
814.09	0.723
814.26	0.718
814.44	0.724
814.62	0.711
814.79	0.715
814.97	0.721
815.14	0.729
815.32	0.731
815.50	0.749
815.67	0.752
815.85	0.742
816.02	0.729
816.20	0.735
816.38	0.752
816.55	0.756
816.73	0.754
816.90	0.768
817.08	0.805
817.26	0.812
817.43	0.786
817.61	0.814
817.78	0.842
817.96	0.819
818.13	0.805
818.31	0.807
818.49	0.825
818.66	0.812
818.84	0.791
819.01	0.767
819.19	0.777
819.36	0.782
819.54	0.744
819.71	0.789
819.89	0.806
820.07	0.824
820.24	0.809
820.42	0.810
820.59	0.836
820.77	0.865
820.94	0.849
821.12	0.872
821.29	0.894
821.47	0.895
821.64	0.818
821.82	0.835
822.00	0.833
822.17	0.834
822.35	0.824
822.52	0.828
822.70	0.819
822.87	0.829
823.05	0.802
823.22	0.813
823.40	0.851
823.57	0.879
823.75	0.853
823.92	0.883
824.10	0.911
824.27	0.956
824.45	0.939
824.62	1.017
824.80	1.047
824.97	1.061
825.15	1.041
825.32	1.062
825.50	1.069
825.67	1.082
825.85	1.058
826.02	1.081
826.20	1.131
826.37	1.339
826.55	1.204
826.72	1.566
826.90	1.853
827.07	2.371
827.25	1.900
827.42	-0.000
827.60	-0.000
827.77	-0.000
827.95	-0.000
828.12	-0.000
828.30	-0.000
828.47	-0.000
828.65	2.056
828.82	3.418
829.00	-0.000
829.17	-0.000
829.34	-0.000
829.52	-0.000
829.69	-0.000
829.87	-0.000
830.04	-0.000
830.22	-0.000
830.39	-0.000
830.57	-0.000
830.74	-0.000
830.92	-0.000
831.09	-0.000
831.26	-0.000
831.44	-0.000
831.61	-0.000
831.79	-0.000
831.96	-0.000
832.14	-0.000
832.31	-0.000
832.49	-0.000
832.66	-0.000
832.83	-0.000
833.01	-0.000
833.18	-0.000
833.36	-0.000
833.53	-0.000
833.70	-0.000
833.88	-0.000
834.05	-0.000
834.23	-0.000
834.40	-0.000
834.58	-0.000
834.75	-0.000
834.92	-0.000
835.10	-0.000
835.27	-0.000
835.45	-0.000
835.62	-0.000
835.79	-0.000
835.97	-0.000
836.14	-0.000
836.32	-0.000
836.49	-0.000
836.66	-0.000
836.84	-0.000
837.01	-0.000
837.18	-0.000
837.36	-0.000
837.53	-0.000
837.71	-0.000
837.88	-0.000
838.05	-0.000
838.23	-0.000
838.40	-0.000
838.58	-0.000
838.75	-0.000
838.92	-0.000
839.10	-0.000
839.27	-0.000
839.44	-0.000
839.62	-0.000
839.79	-0.000
839.96	-0.000
840.14	-0.000
840.31	-0.000
840.48	-0.000
840.66	-0.000
840.83	-0.000
841.01	-0.000
841.18	-0.000
841.35	-0.000
841.53	-0.000
841.70	-0.000
841.87	-0.000
842.05	-0.000
842.22	-0.000
842.39	-0.000
842.57	-0.000
842.74	-0.000
842.91	-0.000
843.09	-0.000
843.26	-0.000
843.43	-0.000
843.60	-0.000
843.78	-0.000
843.95	-0.000
844.12	-0.000
844.30	-0.000
844.47	-0.000
844.64	-0.000
844.82	-0.000
844.99	-0.000
845.16	-0.000
845.34	-0.000
845.51	-0.000
845.68	-0.000
845.85	-0.000
846.03	-0.000
846.20	-0.000
846.37	-0.000
846.55	-0.000
846.72	-0.000
846.89	-0.000
847.06	-0.000
847.24	-0.000
847.41	-0.000
847.58	-0.000
847.76	-0.000
847.93	-0.000
848.10	-0.000
848.27	-0.000
848.45	-0.000
848.62	-0.000
848.79	-0.000
848.97	-0.000
849.14	-0.000
849.31	-0.000
849.48	-0.000
849.66	-0.000
849.83	-0.000
850.00	-0.000
850.17	-0.000
850.35	-0.000
850.52	-0.000
850.69	-0.000
850.86	-0.000
851.04	-0.000
851.21	-0.000
851.38	-0.000
851.55	-0.000
851.72	-0.000
851.90	-0.000
852.07	-0.000
852.24	-0.000
852.41	-0.000
852.59	-0.000
852.76	-0.000
852.93	-0.000
853.10	-0.000
853.28	-0.000
853.45	-0.000
853.62	-0.000
853.79	-0.000
853.96	-0.000
854.14	-0.000
854.31	-0.000
854.48	-0.000
854.65	-0.000
854.82	-0.000
855.00	-0.000
855.17	-0.000
855.34	-0.000
855.51	-0.000
855.68	-0.000
855.86	-0.000
856.03	-0.000
856.20	-0.000
856.37	-0.000
856.54	-0.000
856.72	-0.000
856.89	-0.000
857.06	-0.000
857.23	-0.000
857.40	-0.000
857.57	-0.000
857.75	-0.000
857.92	-0.000
858.09	-0.000
858.26	-0.000
858.43	-0.000
858.60	-0.000
858.78	-0.000
858.95	-0.000
859.12	-0.000
859.29	-0.000
859.46	-0.000
859.63	-0.000
859.81	-0.000
859.98	-0.000
860.15	-0.000
860.32	-0.000
860.49	-0.000
860.66	-0.000
860.83	-0.000
861.01	-0.000
861.18	-0.000
861.35	-0.000
861.52	-0.000
861.69	-0.000
861.86	-0.000
862.03	-0.000
862.21	-0.000
862.38	-0.000
862.55	-0.000
862.72	-0.000
862.89	-0.000
863.06	-0.000
863.23	-0.000
863.40	-0.000
863.58	-0.000
863.75	-0.000
863.92	-0.000
864.09	-0.000
864.26	-0.000
864.43	-0.000
864.60	-0.000
864.77	-0.000
864.94	-0.000
865.11	-0.000
865.29	-0.000
865.46	-0.000
865.63	-0.000
865.80	-0.000
865.97	-0.000
866.14	-0.000
866.31	-0.000
866.48	-0.000
866.65	-0.000
866.82	-0.000
866.99	-0.000
867.16	-0.000
867.34	-0.000
867.51	-0.000
867.68	-0.000
867.85	-0.000
868.02	-0.000
868.19	-0.000
868.36	-0.000
868.53	-0.000
868.70	-0.000
868.87	-0.000
869.04	-0.000
869.21	-0.000
869.38	-0.000
869.55	-0.000
869.72	-0.000
869.89	-0.000
870.06	-0.000
870.24	-0.000
870.41	-0.000
870.58	-0.000
870.75	-0.000
870.92	-0.000
871.09	-0.000
871.26	-0.000
871.43	-0.000
871.60	-0.000
871.77	-0.000
871.94	-0.000
872.11	-0.000
872.28	-0.000
872.45	-0.000
872.62	-0.000
872.79	-0.000
872.96	-0.000
873.13	-0.000
873.30	-0.000
873.47	-0.000
873.64	-0.000
873.81	-0.000
873.98	-0.000
874.15	-0.000
874.32	-0.000
874.49	-0.000
874.66	-0.000
874.83	-0.000
875.00	-0.000
875.17	-0.000
875.34	-0.000
875.51	-0.000
875.68	-0.000
875.85	-0.000
876.02	-0.000
876.19	-0.000
876.36	-0.000
876.53	-0.000
876.70	-0.000
876.87	-0.000
877.04	-0.000
877.21	-0.000
877.38	-0.000
877.55	-0.000
877.72	-0.000
877.89	-0.000
878.06	-0.000
878.23	-0.000
878.39	-0.000
878.56	-0.000
878.73	-0.000
878.90	-0.000
879.07	-0.000
879.24	-0.000
879.41	-0.000
879.58	-0.000
879.75	-0.000
879.92	-0.000
880.09	-0.000
880.26	-0.000
880.43	-0.000
880.60	-0.000
880.77	-0.000
880.94	-0.000
881.11	-0.000
881.27	-0.000
881.44	-0.000
881.61	-0.000
881.78	-0.000
881.95	-0.000
882.12	-0.000
882.29	-0.000
882.46	-0.000
882.63	-0.000
882.80	-0.000
882.97	-0.000
883.14	-0.000
883.30	-0.000
883.47	-0.000
883.64	-0.000
883.81	-0.000
883.98	-0.000
884.15	-0.000
884.32	-0.000
884.49	-0.000
884.66	-0.000
884.82	-0.000
884.99	-0.000
885.16	-0.000
885.33	-0.000
885.50	-0.000
885.67	-0.000
885.84	-0.000
886.01	-0.000
886.17	-0.000
886.34	-0.000
886.51	-0.000
886.68	-0.000
886.85	-0.000
887.02	-0.000
887.19	-0.000
887.36	-0.000
887.52	-0.000
887.69	-0.000
887.86	-0.000
888.03	-0.000
888.20	-0.000
888.37	-0.000
888.54	-0.000
888.70	-0.000
888.87	-0.000
889.04	-0.000
889.21	-0.000
889.38	-0.000
889.55	-0.000
889.71	-0.000
889.88	-0.000
890.05	-0.000
890.22	-0.000
890.39	-0.000
>>>>>End Processed Spectral Data<<<<<
