SpectraSuite Data File
++++++++++++++++++++++++++++++++++++
Date: Fri Jun 19 13:39:36 CEST 2015
User: introlabs
Dark Spectrum Present: Yes
Reference Spectrum Present: Yes
Number of Sampled Component Spectra: 1
Spectrometers: USB4H08886
Integration Time (usec): 745692 (USB4H08886)
Spectra Averaged: 5 (USB4H08886)
Boxcar Smoothing: 5 (USB4H08886)
Correct for Electrical Dark: Yes (USB4H08886)
Strobe/Lamp Enabled: No (USB4H08886)
Correct for Detector Non-linearity: Yes (USB4H08886)
Correct for Stray Light: Yes (USB4H08886)
Number of Pixels in Processed Spectrum: 3648
>>>>>Begin Processed Spectral Data<<<<<
178.14	-0.000
178.36	-0.000
178.57	-0.000
178.79	-0.000
179.01	-0.000
179.22	-0.000
179.44	-0.000
179.65	-0.000
179.87	-0.000
180.08	-0.000
180.30	-0.000
180.52	-0.000
180.73	-0.000
180.95	-0.000
181.16	-0.000
181.38	-0.000
181.59	-0.000
181.81	-0.000
182.03	-0.000
182.24	-0.000
182.46	-0.000
182.67	-0.000
182.89	-0.000
183.10	-0.000
183.32	-0.000
183.54	-0.000
183.75	-0.000
183.97	-0.000
184.18	-0.000
184.40	-0.000
184.61	-0.000
184.83	-0.000
185.04	-0.000
185.26	-0.000
185.48	-0.000
185.69	-0.000
185.91	-0.000
186.12	-0.000
186.34	-0.000
186.55	-0.000
186.77	-0.000
186.98	-0.000
187.20	-0.000
187.42	-0.000
187.63	-0.000
187.85	-0.000
188.06	-0.000
188.28	-0.000
188.49	-0.000
188.71	-0.000
188.92	-0.000
189.14	-0.000
189.36	-0.000
189.57	-0.000
189.79	-0.000
190.00	-0.000
190.22	-0.000
190.43	-0.000
190.65	-0.000
190.86	-0.000
191.08	-0.000
191.29	-0.000
191.51	-0.000
191.72	-0.000
191.94	-0.000
192.16	-0.000
192.37	-0.000
192.59	-0.000
192.80	-0.000
193.02	-0.000
193.23	-0.000
193.45	-0.000
193.66	-0.000
193.88	-0.000
194.09	-0.000
194.31	-0.000
194.52	-0.000
194.74	-0.000
194.95	-0.000
195.17	-0.000
195.38	-0.000
195.60	-0.000
195.81	-0.000
196.03	-0.000
196.25	-0.000
196.46	-0.000
196.68	-0.000
196.89	-0.000
197.11	-0.000
197.32	-0.000
197.54	-0.000
197.75	-0.000
197.97	-0.000
198.18	-0.000
198.40	-0.000
198.61	-0.000
198.83	-0.000
199.04	-0.000
199.26	-0.000
199.47	-0.000
199.69	-0.000
199.90	-0.000
200.12	-0.000
200.33	-0.000
200.55	-0.000
200.76	-0.000
200.98	-0.000
201.19	-0.000
201.41	-0.000
201.62	-0.000
201.84	-0.000
202.05	-0.000
202.27	-0.000
202.48	-0.000
202.70	-0.000
202.91	-0.000
203.13	-0.000
203.34	-0.000
203.56	-0.000
203.77	-0.000
203.99	-0.000
204.20	-0.000
204.42	-0.000
204.63	-0.000
204.85	-0.000
205.06	-0.000
205.28	-0.000
205.49	-0.000
205.71	-0.000
205.92	-0.000
206.14	-0.000
206.35	-0.000
206.56	-0.000
206.78	-0.000
206.99	-0.000
207.21	-0.000
207.42	-0.000
207.64	-0.000
207.85	-0.000
208.07	-0.000
208.28	-0.000
208.50	-0.000
208.71	-0.000
208.93	-0.000
209.14	-0.000
209.36	-0.000
209.57	-0.000
209.79	-0.000
210.00	-0.000
210.22	-0.000
210.43	-0.000
210.64	-0.000
210.86	-0.000
211.07	-0.000
211.29	-0.000
211.50	-0.000
211.72	-0.000
211.93	-0.000
212.15	-0.000
212.36	-0.000
212.58	-0.000
212.79	-0.000
213.01	-0.000
213.22	-0.000
213.43	-0.000
213.65	-0.000
213.86	-0.000
214.08	-0.000
214.29	-0.000
214.51	-0.000
214.72	-0.000
214.94	-0.000
215.15	-0.000
215.36	-0.000
215.58	-0.000
215.79	-0.000
216.01	-0.000
216.22	-0.000
216.44	-0.000
216.65	-0.000
216.87	-0.000
217.08	-0.000
217.29	-0.000
217.51	-0.000
217.72	-0.000
217.94	-0.000
218.15	-0.000
218.37	-0.000
218.58	-0.000
218.80	-0.000
219.01	-0.000
219.22	-0.000
219.44	-0.000
219.65	-0.000
219.87	-0.000
220.08	-0.000
220.30	-0.000
220.51	-0.000
220.72	-0.000
220.94	-0.000
221.15	-0.000
221.37	-0.000
221.58	-0.000
221.79	-0.000
222.01	-0.000
222.22	-0.000
222.44	-0.000
222.65	-0.000
222.87	-0.000
223.08	-0.000
223.29	-0.000
223.51	-0.000
223.72	-0.000
223.94	-0.000
224.15	-0.000
224.36	-0.000
224.58	-0.000
224.79	-0.000
225.01	-0.000
225.22	-0.000
225.44	-0.000
225.65	-0.000
225.86	-0.000
226.08	-0.000
226.29	-0.000
226.51	-0.000
226.72	-0.000
226.93	-0.000
227.15	-0.000
227.36	-0.000
227.58	-0.000
227.79	-0.000
228.00	-0.000
228.22	-0.000
228.43	-0.000
228.65	-0.000
228.86	-0.000
229.07	-0.000
229.29	-0.000
229.50	-0.000
229.72	-0.000
229.93	-0.000
230.14	-0.000
230.36	-0.000
230.57	-0.000
230.78	-0.000
231.00	-0.000
231.21	-0.000
231.43	-0.000
231.64	-0.000
231.85	-0.000
232.07	-0.000
232.28	-0.000
232.50	-0.000
232.71	-0.000
232.92	-0.000
233.14	-0.000
233.35	-0.000
233.56	-0.000
233.78	-0.000
233.99	-0.000
234.21	-0.000
234.42	-0.000
234.63	-0.000
234.85	-0.000
235.06	-0.000
235.27	-0.000
235.49	-0.000
235.70	-0.000
235.91	-0.000
236.13	-0.000
236.34	-0.000
236.56	-0.000
236.77	-0.000
236.98	-0.000
237.20	-0.000
237.41	-0.000
237.62	-0.000
237.84	-0.000
238.05	-0.000
238.26	-0.000
238.48	-0.000
238.69	-0.000
238.91	-0.000
239.12	-0.000
239.33	-0.000
239.55	-0.000
239.76	-0.000
239.97	-0.000
240.19	-0.000
240.40	-0.000
240.61	-0.000
240.83	-0.000
241.04	-0.000
241.25	-0.000
241.47	-0.000
241.68	-0.000
241.89	-0.000
242.11	-0.000
242.32	-0.000
242.53	-0.000
242.75	-0.000
242.96	-0.000
243.17	-0.000
243.39	-0.000
243.60	-0.000
243.81	-0.000
244.03	-0.000
244.24	-0.000
244.45	-0.000
244.67	-0.000
244.88	-0.000
245.09	-0.000
245.31	-0.000
245.52	-0.000
245.73	-0.000
245.95	-0.000
246.16	-0.000
246.37	-0.000
246.59	-0.000
246.80	-0.000
247.01	-0.000
247.23	-0.000
247.44	-0.000
247.65	-0.000
247.87	-0.000
248.08	-0.000
248.29	-0.000
248.51	-0.000
248.72	-0.000
248.93	-0.000
249.15	-0.000
249.36	-0.000
249.57	-0.000
249.78	-0.000
250.00	-0.000
250.21	-0.000
250.42	-0.000
250.64	-0.000
250.85	-0.000
251.06	-0.000
251.28	-0.000
251.49	-0.000
251.70	-0.000
251.92	-0.000
252.13	-0.000
252.34	-0.000
252.55	-0.000
252.77	-0.000
252.98	-0.000
253.19	-0.000
253.41	-0.000
253.62	-0.000
253.83	-0.000
254.05	-0.000
254.26	-0.000
254.47	-0.000
254.68	-0.000
254.90	-0.000
255.11	-0.000
255.32	-0.000
255.54	-0.000
255.75	-0.000
255.96	-0.000
256.17	-0.000
256.39	-0.000
256.60	-0.000
256.81	-0.000
257.03	-0.000
257.24	-0.000
257.45	-0.000
257.66	-0.000
257.88	-0.000
258.09	-0.000
258.30	-0.000
258.51	-0.000
258.73	-0.000
258.94	-0.000
259.15	-0.000
259.37	-0.000
259.58	-0.000
259.79	-0.000
260.00	-0.000
260.22	-0.000
260.43	-0.000
260.64	-0.000
260.85	-0.000
261.07	-0.000
261.28	-0.000
261.49	-0.000
261.71	-0.000
261.92	-0.000
262.13	-0.000
262.34	-0.000
262.56	-0.000
262.77	-0.000
262.98	-0.000
263.19	-0.000
263.41	-0.000
263.62	-0.000
263.83	-0.000
264.04	-0.000
264.26	-0.000
264.47	-0.000
264.68	-0.000
264.89	-0.000
265.11	-0.000
265.32	-0.000
265.53	-0.000
265.74	-0.000
265.96	-0.000
266.17	-0.000
266.38	-0.000
266.59	-0.000
266.81	-0.000
267.02	-0.000
267.23	-0.000
267.44	-0.000
267.65	-0.000
267.87	-0.000
268.08	-0.000
268.29	-0.000
268.50	-0.000
268.72	-0.000
268.93	-0.000
269.14	-0.000
269.35	-0.000
269.57	-0.000
269.78	-0.000
269.99	-0.000
270.20	-0.000
270.41	-0.000
270.63	-0.000
270.84	-0.000
271.05	-0.000
271.26	-0.000
271.48	-0.000
271.69	-0.000
271.90	-0.000
272.11	-0.000
272.32	-0.000
272.54	-0.000
272.75	-0.000
272.96	-0.000
273.17	-0.000
273.39	-0.000
273.60	-0.000
273.81	-0.000
274.02	-0.000
274.23	-0.000
274.45	-0.000
274.66	-0.000
274.87	-0.000
275.08	-0.000
275.29	-0.000
275.51	-0.000
275.72	-0.000
275.93	-0.000
276.14	-0.000
276.35	-0.000
276.57	-0.000
276.78	-0.000
276.99	-0.000
277.20	-0.000
277.41	-0.000
277.63	-0.000
277.84	-0.000
278.05	-0.000
278.26	-0.000
278.47	-0.000
278.69	-0.000
278.90	-0.000
279.11	-0.000
279.32	-0.000
279.53	-0.000
279.74	-0.000
279.96	-0.000
280.17	-0.000
280.38	-0.000
280.59	-0.000
280.80	-0.000
281.02	-0.000
281.23	-0.000
281.44	-0.000
281.65	-0.000
281.86	-0.000
282.07	-0.000
282.29	-0.000
282.50	-0.000
282.71	-0.000
282.92	-0.000
283.13	-0.000
283.35	-0.000
283.56	-0.000
283.77	-0.000
283.98	-0.000
284.19	-0.000
284.40	-0.000
284.62	-0.000
284.83	-0.000
285.04	-0.000
285.25	-0.000
285.46	-0.000
285.67	-0.000
285.88	-0.000
286.10	-0.000
286.31	-0.000
286.52	-0.000
286.73	-0.000
286.94	-0.000
287.15	-0.000
287.37	-0.000
287.58	-0.000
287.79	-0.000
288.00	-0.000
288.21	-0.000
288.42	-0.000
288.63	-0.000
288.85	-0.000
289.06	-0.000
289.27	-0.000
289.48	-0.000
289.69	-0.000
289.90	-0.000
290.11	-0.000
290.33	-0.000
290.54	-0.000
290.75	-0.000
290.96	-0.000
291.17	-0.000
291.38	-0.000
291.59	-0.000
291.81	-0.000
292.02	-0.000
292.23	-0.000
292.44	-0.000
292.65	-0.000
292.86	-0.000
293.07	-0.000
293.28	-0.000
293.50	-0.000
293.71	-0.000
293.92	-0.000
294.13	-0.000
294.34	-0.000
294.55	-0.000
294.76	-0.000
294.97	-0.000
295.19	-0.000
295.40	-0.000
295.61	-0.000
295.82	-0.000
296.03	-0.000
296.24	-0.000
296.45	-0.000
296.66	-0.000
296.87	-0.000
297.09	-0.000
297.30	-0.000
297.51	2.727
297.72	2.432
297.93	-0.000
298.14	2.815
298.35	2.501
298.56	2.294
298.77	-0.000
298.99	3.609
299.20	2.661
299.41	2.465
299.62	2.288
299.83	2.245
300.04	2.011
300.25	1.986
300.46	2.114
300.67	2.001
300.88	1.864
301.10	1.851
301.31	2.003
301.52	1.865
301.73	1.747
301.94	1.751
302.15	1.774
302.36	1.695
302.57	1.591
302.78	1.604
302.99	1.676
303.20	1.698
303.41	1.551
303.63	1.525
303.84	1.540
304.05	1.528
304.26	1.444
304.47	1.451
304.68	1.456
304.89	1.446
305.10	1.389
305.31	1.373
305.52	1.437
305.73	1.431
305.94	1.372
306.15	1.360
306.37	1.394
306.58	1.402
306.79	1.361
307.00	1.392
307.21	1.439
307.42	1.433
307.63	1.381
307.84	1.336
308.05	1.384
308.26	1.385
308.47	1.354
308.68	1.347
308.89	1.343
309.10	1.341
309.31	1.286
309.52	1.277
309.73	1.293
309.95	1.283
310.16	1.249
310.37	1.236
310.58	1.256
310.79	1.255
311.00	1.248
311.21	1.247
311.42	1.247
311.63	1.243
311.84	1.218
312.05	1.213
312.26	1.243
312.47	1.256
312.68	1.227
312.89	1.209
313.10	1.215
313.31	1.188
313.52	1.194
313.73	1.195
313.94	1.197
314.15	1.179
314.36	1.157
314.57	1.148
314.78	1.131
314.99	1.125
315.21	1.111
315.42	1.116
315.63	1.130
315.84	1.104
316.05	1.088
316.26	1.097
316.47	1.117
316.68	1.111
316.89	1.089
317.10	1.114
317.31	1.121
317.52	1.122
317.73	1.101
317.94	1.098
318.15	1.146
318.36	1.145
318.57	1.125
318.78	1.113
318.99	1.153
319.20	1.150
319.41	1.110
319.62	1.110
319.83	1.122
320.04	1.116
320.25	1.100
320.46	1.063
320.67	1.068
320.88	1.063
321.09	1.046
321.30	1.030
321.51	1.045
321.72	1.042
321.93	1.025
322.14	1.018
322.35	1.046
322.56	1.047
322.77	1.033
322.98	1.045
323.19	1.054
323.40	1.062
323.61	1.038
323.82	1.032
324.03	1.039
324.24	1.035
324.45	1.021
324.66	1.000
324.87	0.997
325.08	0.996
325.29	0.974
325.50	0.966
325.71	0.971
325.92	0.980
326.13	0.966
326.34	0.967
326.55	0.975
326.76	0.974
326.97	0.963
327.18	0.956
327.39	0.983
327.60	0.985
327.80	0.986
328.01	0.984
328.22	0.984
328.43	0.987
328.64	0.975
328.85	0.980
329.06	0.982
329.27	0.981
329.48	0.976
329.69	0.956
329.90	0.966
330.11	0.959
330.32	0.952
330.53	0.945
330.74	0.945
330.95	0.944
331.16	0.928
331.37	0.936
331.58	0.936
331.79	0.937
332.00	0.926
332.21	0.920
332.42	0.924
332.63	0.913
332.83	0.908
333.04	0.910
333.25	0.923
333.46	0.921
333.67	0.907
333.88	0.910
334.09	0.921
334.30	0.917
334.51	0.907
334.72	0.903
334.93	0.908
335.14	0.908
335.35	0.900
335.56	0.896
335.77	0.904
335.98	0.903
336.18	0.895
336.39	0.887
336.60	0.893
336.81	0.892
337.02	0.890
337.23	0.894
337.44	0.896
337.65	0.898
337.86	0.885
338.07	0.881
338.28	0.887
338.49	0.885
338.70	0.878
338.91	0.884
339.11	0.892
339.32	0.887
339.53	0.875
339.74	0.873
339.95	0.870
340.16	0.870
340.37	0.861
340.58	0.859
340.79	0.862
341.00	0.861
341.21	0.850
341.41	0.850
341.62	0.853
341.83	0.853
342.04	0.848
342.25	0.859
342.46	0.863
342.67	0.863
342.88	0.855
343.09	0.855
343.30	0.864
343.50	0.868
343.71	0.858
343.92	0.857
344.13	0.862
344.34	0.861
344.55	0.842
344.76	0.841
344.97	0.846
345.18	0.844
345.38	0.841
345.59	0.834
345.80	0.834
346.01	0.832
346.22	0.826
346.43	0.820
346.64	0.830
346.85	0.830
347.06	0.822
347.26	0.822
347.47	0.826
347.68	0.822
347.89	0.818
348.10	0.813
348.31	0.820
348.52	0.819
348.73	0.817
348.93	0.814
349.14	0.816
349.35	0.815
349.56	0.809
349.77	0.804
349.98	0.810
350.19	0.807
350.39	0.802
350.60	0.797
350.81	0.813
351.02	0.811
351.23	0.805
351.44	0.807
351.65	0.812
351.86	0.809
352.06	0.808
352.27	0.808
352.48	0.809
352.69	0.808
352.90	0.803
353.11	0.789
353.31	0.796
353.52	0.794
353.73	0.785
353.94	0.785
354.15	0.791
354.36	0.792
354.57	0.783
354.77	0.785
354.98	0.786
355.19	0.786
355.40	0.784
355.61	0.789
355.82	0.794
356.02	0.794
356.23	0.786
356.44	0.789
356.65	0.791
356.86	0.791
357.07	0.785
357.27	0.788
357.48	0.790
357.69	0.786
357.90	0.771
358.11	0.767
358.32	0.772
358.52	0.775
358.73	0.765
358.94	0.767
359.15	0.771
359.36	0.772
359.56	0.767
359.77	0.763
359.98	0.771
360.19	0.770
360.40	0.767
360.61	0.767
360.81	0.765
361.02	0.765
361.23	0.757
361.44	0.756
361.65	0.757
361.85	0.757
362.06	0.755
362.27	0.757
362.48	0.758
362.69	0.761
362.89	0.755
363.10	0.757
363.31	0.761
363.52	0.765
363.73	0.759
363.93	0.760
364.14	0.762
364.35	0.764
364.56	0.753
364.77	0.754
364.97	0.757
365.18	0.757
365.39	0.751
365.60	0.748
365.81	0.749
366.01	0.749
366.22	0.745
366.43	0.744
366.64	0.747
366.84	0.753
367.05	0.749
367.26	0.748
367.47	0.750
367.68	0.750
367.88	0.747
368.09	0.745
368.30	0.748
368.51	0.747
368.71	0.746
368.92	0.751
369.13	0.749
369.34	0.748
369.55	0.748
369.75	0.749
369.96	0.756
370.17	0.756
370.38	0.753
370.58	0.753
370.79	0.759
371.00	0.757
371.21	0.748
371.41	0.754
371.62	0.758
371.83	0.752
372.04	0.749
372.24	0.742
372.45	0.743
372.66	0.742
372.87	0.739
373.07	0.735
373.28	0.735
373.49	0.738
373.70	0.728
373.90	0.727
374.11	0.737
374.32	0.736
374.53	0.736
374.73	0.735
374.94	0.739
375.15	0.739
375.36	0.736
375.56	0.745
375.77	0.746
375.98	0.747
376.19	0.743
376.39	0.737
376.60	0.740
376.81	0.741
377.02	0.739
377.22	0.737
377.43	0.737
377.64	0.737
377.84	0.728
378.05	0.732
378.26	0.739
378.47	0.738
378.67	0.735
378.88	0.732
379.09	0.732
379.30	0.732
379.50	0.729
379.71	0.730
379.92	0.733
380.12	0.732
380.33	0.723
380.54	0.719
380.75	0.726
380.95	0.726
381.16	0.724
381.37	0.725
381.57	0.727
381.78	0.728
381.99	0.728
382.20	0.726
382.40	0.730
382.61	0.731
382.82	0.727
383.02	0.721
383.23	0.725
383.44	0.725
383.64	0.722
383.85	0.724
384.06	0.728
384.27	0.725
384.47	0.724
384.68	0.724
384.89	0.729
385.09	0.729
385.30	0.727
385.51	0.726
385.71	0.730
385.92	0.730
386.13	0.729
386.33	0.730
386.54	0.731
386.75	0.730
386.95	0.726
387.16	0.721
387.37	0.724
387.58	0.724
387.78	0.721
387.99	0.718
388.20	0.720
388.40	0.717
388.61	0.713
388.82	0.716
389.02	0.719
389.23	0.719
389.44	0.717
389.64	0.718
389.85	0.729
390.06	0.729
390.26	0.729
390.47	0.728
390.68	0.731
390.88	0.729
391.09	0.725
391.30	0.724
391.50	0.724
391.71	0.724
391.92	0.721
392.12	0.713
392.33	0.713
392.53	0.714
392.74	0.714
392.95	0.713
393.15	0.716
393.36	0.717
393.57	0.714
393.77	0.718
393.98	0.720
394.19	0.719
394.39	0.718
394.60	0.720
394.81	0.721
395.01	0.719
395.22	0.717
395.43	0.718
395.63	0.722
395.84	0.724
396.04	0.719
396.25	0.720
396.46	0.722
396.66	0.721
396.87	0.718
397.08	0.715
397.28	0.718
397.49	0.718
397.69	0.714
397.90	0.709
398.11	0.710
398.31	0.711
398.52	0.707
398.73	0.708
398.93	0.707
399.14	0.706
399.34	0.705
399.55	0.706
399.76	0.706
399.96	0.708
400.17	0.706
400.37	0.705
400.58	0.711
400.79	0.712
400.99	0.709
401.20	0.715
401.41	0.717
401.61	0.718
401.82	0.723
402.02	0.722
402.23	0.723
402.44	0.723
402.64	0.723
402.85	0.717
403.05	0.716
403.26	0.716
403.47	0.710
403.67	0.708
403.88	0.709
404.08	0.703
404.29	0.701
404.50	0.701
404.70	0.702
404.91	0.701
405.11	0.698
405.32	0.698
405.52	0.698
405.73	0.698
405.94	0.696
406.14	0.698
406.35	0.700
406.55	0.700
406.76	0.697
406.97	0.698
407.17	0.701
407.38	0.700
407.58	0.698
407.79	0.701
407.99	0.704
408.20	0.705
408.41	0.699
408.61	0.697
408.82	0.698
409.02	0.698
409.23	0.695
409.43	0.694
409.64	0.696
409.84	0.696
410.05	0.692
410.26	0.691
410.46	0.691
410.67	0.691
410.87	0.692
411.08	0.694
411.28	0.695
411.49	0.697
411.69	0.695
411.90	0.696
412.11	0.697
412.31	0.698
412.52	0.696
412.72	0.697
412.93	0.698
413.13	0.697
413.34	0.693
413.54	0.695
413.75	0.696
413.95	0.696
414.16	0.693
414.37	0.695
414.57	0.696
414.78	0.699
414.98	0.696
415.19	0.698
415.39	0.696
415.60	0.698
415.80	0.697
416.01	0.695
416.21	0.697
416.42	0.698
416.62	0.693
416.83	0.692
417.03	0.692
417.24	0.693
417.44	0.690
417.65	0.689
417.86	0.690
418.06	0.688
418.27	0.685
418.47	0.687
418.68	0.687
418.88	0.688
419.09	0.686
419.29	0.687
419.50	0.688
419.70	0.687
419.91	0.686
420.11	0.683
420.32	0.686
420.52	0.686
420.73	0.685
420.93	0.686
421.14	0.688
421.34	0.687
421.55	0.683
421.75	0.682
421.96	0.684
422.16	0.684
422.37	0.683
422.57	0.680
422.78	0.681
422.98	0.678
423.19	0.675
423.39	0.675
423.60	0.679
423.80	0.680
424.01	0.678
424.21	0.681
424.42	0.683
424.62	0.683
424.83	0.682
425.03	0.682
425.23	0.684
425.44	0.685
425.64	0.685
425.85	0.684
426.05	0.685
426.26	0.685
426.46	0.682
426.67	0.681
426.87	0.686
427.08	0.686
427.28	0.684
427.49	0.684
427.69	0.685
427.90	0.683
428.10	0.680
428.31	0.681
428.51	0.682
428.71	0.682
428.92	0.683
429.12	0.680
429.33	0.681
429.53	0.685
429.74	0.689
429.94	0.690
430.15	0.689
430.35	0.689
430.56	0.685
430.76	0.685
430.96	0.685
431.17	0.682
431.37	0.679
431.58	0.677
431.78	0.674
431.99	0.667
432.19	0.669
432.40	0.670
432.60	0.671
432.80	0.674
433.01	0.672
433.21	0.672
433.42	0.675
433.62	0.676
433.83	0.675
434.03	0.678
434.23	0.681
434.44	0.680
434.64	0.677
434.85	0.683
435.05	0.683
435.26	0.684
435.46	0.682
435.66	0.682
435.87	0.681
436.07	0.681
436.28	0.677
436.48	0.674
436.69	0.674
436.89	0.674
437.09	0.668
437.30	0.666
437.50	0.667
437.71	0.679
437.91	0.678
438.11	0.680
438.32	0.684
438.52	0.685
438.73	0.685
438.93	0.683
439.13	0.683
439.34	0.686
439.54	0.685
439.75	0.685
439.95	0.675
440.15	0.679
440.36	0.677
440.56	0.674
440.77	0.675
440.97	0.674
441.17	0.673
441.38	0.674
441.58	0.671
441.79	0.672
441.99	0.670
442.19	0.668
442.40	0.665
442.60	0.665
442.81	0.663
443.01	0.663
443.21	0.664
443.42	0.664
443.62	0.663
443.82	0.663
444.03	0.665
444.23	0.665
444.44	0.665
444.64	0.664
444.84	0.665
445.05	0.665
445.25	0.663
445.45	0.664
445.66	0.667
445.86	0.666
446.06	0.667
446.27	0.667
446.47	0.670
446.68	0.668
446.88	0.667
447.08	0.666
447.29	0.668
447.49	0.668
447.69	0.667
447.90	0.665
448.10	0.669
448.30	0.666
448.51	0.667
448.71	0.665
448.91	0.667
449.12	0.666
449.32	0.668
449.52	0.667
449.73	0.671
449.93	0.670
450.14	0.671
450.34	0.670
450.54	0.673
450.75	0.670
450.95	0.669
451.15	0.669
451.36	0.671
451.56	0.668
451.76	0.667
451.97	0.664
452.17	0.664
452.37	0.662
452.58	0.659
452.78	0.658
452.98	0.661
453.19	0.660
453.39	0.661
453.59	0.660
453.79	0.661
454.00	0.662
454.20	0.660
454.40	0.661
454.61	0.664
454.81	0.664
455.01	0.663
455.22	0.664
455.42	0.665
455.62	0.663
455.83	0.662
456.03	0.665
456.23	0.666
456.44	0.667
456.64	0.666
456.84	0.666
457.04	0.667
457.25	0.666
457.45	0.662
457.65	0.662
457.86	0.664
458.06	0.663
458.26	0.658
458.47	0.657
458.67	0.659
458.87	0.659
459.07	0.657
459.28	0.659
459.48	0.660
459.68	0.661
459.89	0.659
460.09	0.658
460.29	0.659
460.49	0.660
460.70	0.659
460.90	0.659
461.10	0.659
461.31	0.659
461.51	0.656
461.71	0.658
461.91	0.659
462.12	0.660
462.32	0.659
462.52	0.660
462.72	0.662
462.93	0.662
463.13	0.661
463.33	0.662
463.53	0.664
463.74	0.663
463.94	0.659
464.14	0.659
464.35	0.661
464.55	0.661
464.75	0.659
464.95	0.656
465.16	0.659
465.36	0.658
465.56	0.656
465.76	0.656
465.97	0.656
466.17	0.657
466.37	0.654
466.57	0.655
466.78	0.656
466.98	0.656
467.18	0.655
467.38	0.654
467.59	0.656
467.79	0.657
467.99	0.656
468.19	0.658
468.39	0.661
468.60	0.661
468.80	0.659
469.00	0.661
469.20	0.661
469.41	0.661
469.61	0.660
469.81	0.660
470.01	0.660
470.22	0.660
470.42	0.658
470.62	0.655
470.82	0.657
471.02	0.657
471.23	0.654
471.43	0.655
471.63	0.658
471.83	0.657
472.04	0.655
472.24	0.654
472.44	0.659
472.64	0.660
472.84	0.658
473.05	0.657
473.25	0.660
473.45	0.659
473.65	0.656
473.85	0.657
474.06	0.659
474.26	0.658
474.46	0.659
474.66	0.655
474.86	0.657
475.07	0.657
475.27	0.656
475.47	0.653
475.67	0.653
475.87	0.656
476.08	0.652
476.28	0.654
476.48	0.655
476.68	0.654
476.88	0.652
477.09	0.653
477.29	0.654
477.49	0.654
477.69	0.653
477.89	0.653
478.09	0.652
478.30	0.655
478.50	0.651
478.70	0.651
478.90	0.651
479.10	0.654
479.31	0.655
479.51	0.653
479.71	0.654
479.91	0.654
480.11	0.652
480.31	0.653
480.52	0.652
480.72	0.652
480.92	0.651
481.12	0.650
481.32	0.647
481.52	0.645
481.72	0.645
481.93	0.648
482.13	0.649
482.33	0.649
482.53	0.647
482.73	0.648
482.93	0.649
483.14	0.649
483.34	0.648
483.54	0.649
483.74	0.648
483.94	0.647
484.14	0.643
484.34	0.643
484.55	0.644
484.75	0.643
484.95	0.642
485.15	0.641
485.35	0.641
485.55	0.641
485.75	0.639
485.96	0.639
486.16	0.640
486.36	0.640
486.56	0.638
486.76	0.638
486.96	0.639
487.16	0.638
487.36	0.636
487.57	0.635
487.77	0.637
487.97	0.638
488.17	0.636
488.37	0.635
488.57	0.636
488.77	0.636
488.97	0.634
489.18	0.633
489.38	0.636
489.58	0.637
489.78	0.637
489.98	0.636
490.18	0.635
490.38	0.636
490.58	0.635
490.78	0.636
490.98	0.637
491.19	0.638
491.39	0.637
491.59	0.636
491.79	0.639
491.99	0.639
492.19	0.638
492.39	0.641
492.59	0.641
492.79	0.643
492.99	0.643
493.20	0.643
493.40	0.644
493.60	0.645
493.80	0.643
494.00	0.641
494.20	0.642
494.40	0.641
494.60	0.639
494.80	0.644
495.00	0.643
495.20	0.641
495.40	0.640
495.61	0.641
495.81	0.642
496.01	0.645
496.21	0.646
496.41	0.645
496.61	0.645
496.81	0.644
497.01	0.639
497.21	0.638
497.41	0.639
497.61	0.639
497.81	0.637
498.01	0.637
498.21	0.635
498.41	0.633
498.61	0.633
498.82	0.635
499.02	0.637
499.22	0.638
499.42	0.637
499.62	0.638
499.82	0.639
500.02	0.640
500.22	0.639
500.42	0.641
500.62	0.641
500.82	0.641
501.02	0.639
501.22	0.640
501.42	0.640
501.62	0.642
501.82	0.641
502.02	0.641
502.22	0.640
502.42	0.642
502.62	0.639
502.82	0.640
503.02	0.641
503.22	0.640
503.42	0.638
503.63	0.638
503.83	0.636
504.03	0.634
504.23	0.633
504.43	0.634
504.63	0.635
504.83	0.635
505.03	0.633
505.23	0.635
505.43	0.637
505.63	0.637
505.83	0.637
506.03	0.639
506.23	0.641
506.43	0.641
506.63	0.640
506.83	0.638
507.03	0.641
507.23	0.641
507.43	0.638
507.63	0.639
507.83	0.640
508.03	0.640
508.23	0.639
508.43	0.638
508.63	0.640
508.83	0.640
509.03	0.642
509.23	0.641
509.43	0.643
509.63	0.642
509.83	0.641
510.03	0.643
510.23	0.646
510.43	0.646
510.63	0.646
510.83	0.646
511.03	0.648
511.23	0.645
511.43	0.644
511.63	0.646
511.83	0.649
512.03	0.648
512.22	0.645
512.42	0.644
512.62	0.645
512.82	0.645
513.02	0.643
513.22	0.643
513.42	0.645
513.62	0.648
513.82	0.646
514.02	0.645
514.22	0.647
514.42	0.648
514.62	0.647
514.82	0.647
515.02	0.650
515.22	0.653
515.42	0.652
515.62	0.655
515.82	0.654
516.02	0.655
516.22	0.654
516.42	0.656
516.62	0.657
516.82	0.657
517.01	0.655
517.21	0.654
517.41	0.658
517.61	0.658
517.81	0.655
518.01	0.654
518.21	0.654
518.41	0.653
518.61	0.652
518.81	0.652
519.01	0.653
519.21	0.654
519.41	0.653
519.61	0.648
519.81	0.650
520.00	0.650
520.20	0.651
520.40	0.655
520.60	0.655
520.80	0.654
521.00	0.655
521.20	0.656
521.40	0.661
521.60	0.661
521.80	0.660
522.00	0.660
522.20	0.662
522.39	0.661
522.59	0.657
522.79	0.659
522.99	0.662
523.19	0.660
523.39	0.657
523.59	0.656
523.79	0.658
523.99	0.661
524.19	0.660
524.38	0.658
524.58	0.660
524.78	0.661
524.98	0.659
525.18	0.662
525.38	0.663
525.58	0.663
525.78	0.660
525.98	0.659
526.18	0.659
526.37	0.658
526.57	0.660
526.77	0.660
526.97	0.661
527.17	0.661
527.37	0.657
527.57	0.659
527.77	0.662
527.96	0.662
528.16	0.661
528.36	0.662
528.56	0.664
528.76	0.662
528.96	0.661
529.16	0.662
529.36	0.665
529.55	0.665
529.75	0.662
529.95	0.662
530.15	0.663
530.35	0.667
530.55	0.664
530.75	0.664
530.94	0.666
531.14	0.667
531.34	0.665
531.54	0.663
531.74	0.666
531.94	0.669
532.13	0.667
532.33	0.668
532.53	0.667
532.73	0.666
532.93	0.664
533.13	0.664
533.33	0.664
533.52	0.664
533.72	0.667
533.92	0.666
534.12	0.664
534.32	0.664
534.52	0.663
534.71	0.664
534.91	0.668
535.11	0.670
535.31	0.668
535.51	0.671
535.71	0.672
535.90	0.669
536.10	0.671
536.30	0.672
536.50	0.673
536.70	0.673
536.89	0.671
537.09	0.671
537.29	0.672
537.49	0.673
537.69	0.671
537.89	0.671
538.08	0.671
538.28	0.669
538.48	0.669
538.68	0.671
538.88	0.673
539.07	0.672
539.27	0.670
539.47	0.669
539.67	0.669
539.87	0.670
540.06	0.669
540.26	0.670
540.46	0.672
540.66	0.669
540.86	0.667
541.05	0.666
541.25	0.668
541.45	0.668
541.65	0.667
541.84	0.669
542.04	0.669
542.24	0.670
542.44	0.668
542.64	0.670
542.83	0.673
543.03	0.674
543.23	0.671
543.43	0.671
543.62	0.673
543.82	0.673
544.02	0.672
544.22	0.672
544.42	0.676
544.61	0.676
544.81	0.672
545.01	0.671
545.21	0.673
545.40	0.674
545.60	0.672
545.80	0.675
546.00	0.676
546.19	0.675
546.39	0.674
546.59	0.671
546.79	0.673
546.98	0.673
547.18	0.673
547.38	0.674
547.58	0.677
547.77	0.677
547.97	0.673
548.17	0.675
548.37	0.675
548.56	0.676
548.76	0.675
548.96	0.677
549.16	0.680
549.35	0.679
549.55	0.677
549.75	0.678
549.95	0.681
550.14	0.681
550.34	0.679
550.54	0.684
550.73	0.687
550.93	0.688
551.13	0.684
551.33	0.683
551.52	0.684
551.72	0.684
551.92	0.682
552.12	0.681
552.31	0.683
552.51	0.684
552.71	0.679
552.90	0.679
553.10	0.680
553.30	0.681
553.50	0.680
553.69	0.681
553.89	0.681
554.09	0.681
554.28	0.678
554.48	0.679
554.68	0.681
554.87	0.681
555.07	0.678
555.27	0.678
555.47	0.680
555.66	0.680
555.86	0.678
556.06	0.681
556.25	0.682
556.45	0.691
556.65	0.689
556.84	0.692
557.04	0.696
557.24	0.696
557.43	0.696
557.63	0.699
557.83	0.701
558.02	0.702
558.22	0.706
558.42	0.706
558.61	0.699
558.81	0.699
559.01	0.694
559.21	0.694
559.40	0.696
559.60	0.696
559.80	0.692
559.99	0.693
560.19	0.695
560.39	0.688
560.58	0.686
560.78	0.686
560.97	0.691
561.17	0.689
561.37	0.687
561.56	0.688
561.76	0.690
561.96	0.690
562.15	0.687
562.35	0.690
562.55	0.692
562.74	0.692
562.94	0.691
563.14	0.688
563.33	0.689
563.53	0.689
563.73	0.686
563.92	0.688
564.12	0.691
564.31	0.692
564.51	0.690
564.71	0.692
564.90	0.695
565.10	0.695
565.30	0.698
565.49	0.698
565.69	0.701
565.89	0.701
566.08	0.698
566.28	0.699
566.47	0.701
566.67	0.699
566.87	0.695
567.06	0.697
567.26	0.703
567.46	0.699
567.65	0.698
567.85	0.699
568.04	0.702
568.24	0.702
568.44	0.699
568.63	0.698
568.83	0.699
569.02	0.698
569.22	0.693
569.42	0.689
569.61	0.692
569.81	0.690
570.00	0.688
570.20	0.689
570.40	0.690
570.59	0.690
570.79	0.687
570.98	0.685
571.18	0.687
571.38	0.687
571.57	0.684
571.77	0.682
571.96	0.686
572.16	0.683
572.35	0.677
572.55	0.678
572.75	0.677
572.94	0.677
573.14	0.674
573.33	0.674
573.53	0.675
573.73	0.674
573.92	0.672
574.12	0.670
574.31	0.672
574.51	0.674
574.70	0.670
574.90	0.672
575.09	0.675
575.29	0.676
575.49	0.673
575.68	0.673
575.88	0.675
576.07	0.677
576.27	0.674
576.46	0.673
576.66	0.672
576.86	0.671
577.05	0.669
577.25	0.667
577.44	0.668
577.64	0.668
577.83	0.666
578.03	0.667
578.22	0.667
578.42	0.666
578.61	0.664
578.81	0.665
579.00	0.666
579.20	0.666
579.40	0.665
579.59	0.663
579.79	0.664
579.98	0.663
580.18	0.663
580.37	0.663
580.57	0.665
580.76	0.670
580.96	0.668
581.15	0.669
581.35	0.671
581.54	0.670
581.74	0.670
581.93	0.671
582.13	0.672
582.32	0.670
582.52	0.668
582.71	0.667
582.91	0.663
583.10	0.662
583.30	0.661
583.49	0.660
583.69	0.664
583.88	0.665
584.08	0.665
584.27	0.667
584.47	0.670
584.66	0.671
584.86	0.670
585.05	0.673
585.25	0.675
585.44	0.675
585.64	0.673
585.83	0.670
586.03	0.671
586.22	0.669
586.42	0.665
586.61	0.667
586.81	0.669
587.00	0.669
587.20	0.667
587.39	0.668
587.59	0.670
587.78	0.672
587.98	0.672
588.17	0.672
588.37	0.675
588.56	0.677
588.76	0.672
588.95	0.673
589.15	0.676
589.34	0.679
589.54	0.677
589.73	0.678
589.92	0.681
590.12	0.681
590.31	0.678
590.51	0.684
590.70	0.685
590.90	0.686
591.09	0.684
591.29	0.682
591.48	0.682
591.68	0.683
591.87	0.681
592.06	0.680
592.26	0.683
592.45	0.683
592.65	0.676
592.84	0.675
593.04	0.678
593.23	0.681
593.43	0.678
593.62	0.678
593.81	0.678
594.01	0.678
594.20	0.675
594.40	0.674
594.59	0.676
594.79	0.676
594.98	0.675
595.17	0.674
595.37	0.675
595.56	0.677
595.76	0.676
595.95	0.677
596.14	0.681
596.34	0.682
596.53	0.680
596.73	0.683
596.92	0.684
597.12	0.687
597.31	0.686
597.50	0.685
597.70	0.688
597.89	0.687
598.09	0.683
598.28	0.684
598.47	0.687
598.67	0.685
598.86	0.681
599.06	0.683
599.25	0.684
599.44	0.682
599.64	0.680
599.83	0.677
600.03	0.680
600.22	0.681
600.41	0.681
600.61	0.679
600.80	0.681
601.00	0.682
601.19	0.678
601.38	0.676
601.58	0.679
601.77	0.680
601.96	0.682
602.16	0.682
602.35	0.692
602.55	0.689
602.74	0.690
602.93	0.692
603.13	0.697
603.32	0.698
603.51	0.697
603.71	0.701
603.90	0.703
604.09	0.702
604.29	0.699
604.48	0.693
604.68	0.694
604.87	0.693
605.06	0.690
605.26	0.686
605.45	0.687
605.64	0.687
605.84	0.681
606.03	0.680
606.22	0.679
606.42	0.679
606.61	0.675
606.80	0.676
607.00	0.678
607.19	0.678
607.38	0.677
607.58	0.678
607.77	0.681
607.96	0.682
608.16	0.680
608.35	0.684
608.54	0.688
608.74	0.691
608.93	0.695
609.12	0.698
609.32	0.701
609.51	0.705
609.70	0.703
609.90	0.705
610.09	0.709
610.28	0.715
610.48	0.708
610.67	0.709
610.86	0.710
611.06	0.705
611.25	0.702
611.44	0.702
611.64	0.702
611.83	0.705
612.02	0.701
612.21	0.700
612.41	0.699
612.60	0.698
612.79	0.694
612.99	0.694
613.18	0.696
613.37	0.693
613.57	0.690
613.76	0.692
613.95	0.689
614.14	0.689
614.34	0.686
614.53	0.688
614.72	0.691
614.92	0.691
615.11	0.688
615.30	0.685
615.49	0.687
615.69	0.689
615.88	0.685
616.07	0.687
616.26	0.689
616.46	0.690
616.65	0.686
616.84	0.685
617.04	0.687
617.23	0.691
617.42	0.691
617.61	0.695
617.81	0.697
618.00	0.699
618.19	0.697
618.38	0.702
618.58	0.706
618.77	0.707
618.96	0.707
619.15	0.709
619.35	0.711
619.54	0.712
619.73	0.706
619.92	0.709
620.12	0.713
620.31	0.713
620.50	0.707
620.69	0.708
620.89	0.711
621.08	0.711
621.27	0.711
621.46	0.709
621.66	0.714
621.85	0.714
622.04	0.710
622.23	0.711
622.43	0.711
622.62	0.711
622.81	0.710
623.00	0.709
623.19	0.714
623.39	0.711
623.58	0.707
623.77	0.705
623.96	0.708
624.16	0.708
624.35	0.703
624.54	0.706
624.73	0.710
624.92	0.708
625.12	0.706
625.31	0.706
625.50	0.710
625.69	0.711
625.88	0.707
626.08	0.709
626.27	0.711
626.46	0.711
626.65	0.708
626.84	0.707
627.04	0.712
627.23	0.712
627.42	0.708
627.61	0.710
627.80	0.714
628.00	0.714
628.19	0.711
628.38	0.715
628.57	0.718
628.76	0.717
628.96	0.715
629.15	0.715
629.34	0.719
629.53	0.719
629.72	0.713
629.91	0.713
630.11	0.717
630.30	0.718
630.49	0.719
630.68	0.720
630.87	0.723
631.06	0.725
631.26	0.720
631.45	0.721
631.64	0.730
631.83	0.732
632.02	0.729
632.21	0.729
632.41	0.737
632.60	0.732
632.79	0.730
632.98	0.731
633.17	0.732
633.36	0.734
633.55	0.729
633.75	0.726
633.94	0.727
634.13	0.727
634.32	0.724
634.51	0.718
634.70	0.721
634.89	0.720
635.09	0.716
635.28	0.717
635.47	0.719
635.66	0.722
635.85	0.717
636.04	0.719
636.23	0.724
636.43	0.725
636.62	0.724
636.81	0.724
637.00	0.726
637.19	0.730
637.38	0.726
637.57	0.725
637.76	0.726
637.95	0.728
638.15	0.723
638.34	0.721
638.53	0.724
638.72	0.725
638.91	0.722
639.10	0.720
639.29	0.721
639.48	0.723
639.67	0.724
639.87	0.723
640.06	0.728
640.25	0.728
640.44	0.729
640.63	0.729
640.82	0.732
641.01	0.732
641.20	0.731
641.39	0.733
641.58	0.734
641.78	0.733
641.97	0.728
642.16	0.743
642.35	0.744
642.54	0.742
642.73	0.736
642.92	0.734
643.11	0.738
643.30	0.738
643.49	0.732
643.68	0.736
643.87	0.738
644.06	0.738
644.25	0.717
644.45	0.720
644.64	0.722
644.83	0.722
645.02	0.718
645.21	0.717
645.40	0.718
645.59	0.718
645.78	0.711
645.97	0.713
646.16	0.714
646.35	0.713
646.54	0.711
646.73	0.712
646.92	0.713
647.11	0.712
647.30	0.709
647.49	0.711
647.68	0.710
647.88	0.709
648.07	0.702
648.26	0.705
648.45	0.708
648.64	0.704
648.83	0.702
649.02	0.705
649.21	0.717
649.40	0.715
649.59	0.709
649.78	0.710
649.97	0.725
650.16	0.724
650.35	0.718
650.54	0.720
650.73	0.728
650.92	0.724
651.11	0.717
651.30	0.713
651.49	0.719
651.68	0.719
651.87	0.716
652.06	0.705
652.25	0.709
652.44	0.712
652.63	0.708
652.82	0.709
653.01	0.710
653.20	0.708
653.39	0.696
653.58	0.693
653.77	0.693
653.96	0.688
654.15	0.680
654.34	0.677
654.53	0.672
654.72	0.667
654.91	0.657
655.10	0.653
655.29	0.651
655.48	0.649
655.67	0.644
655.86	0.641
656.05	0.640
656.24	0.639
656.43	0.634
656.62	0.634
656.81	0.634
657.00	0.632
657.19	0.629
657.38	0.629
657.57	0.629
657.76	0.631
657.95	0.629
658.14	0.632
658.33	0.635
658.51	0.640
658.70	0.640
658.89	0.642
659.08	0.651
659.27	0.660
659.46	0.658
659.65	0.666
659.84	0.670
660.03	0.672
660.22	0.674
660.41	0.678
660.60	0.678
660.79	0.679
660.98	0.685
661.17	0.684
661.36	0.684
661.55	0.685
661.74	0.682
661.92	0.684
662.11	0.688
662.30	0.686
662.49	0.678
662.68	0.678
662.87	0.682
663.06	0.676
663.25	0.676
663.44	0.676
663.63	0.677
663.82	0.675
664.01	0.670
664.20	0.668
664.38	0.669
664.57	0.670
664.76	0.670
664.95	0.670
665.14	0.676
665.33	0.671
665.52	0.678
665.71	0.682
665.90	0.682
666.09	0.683
666.28	0.681
666.46	0.681
666.65	0.681
666.84	0.679
667.03	0.673
667.22	0.671
667.41	0.673
667.60	0.663
667.79	0.656
667.98	0.658
668.16	0.659
668.35	0.659
668.54	0.654
668.73	0.656
668.92	0.656
669.11	0.656
669.30	0.649
669.49	0.646
669.67	0.648
669.86	0.650
670.05	0.648
670.24	0.645
670.43	0.643
670.62	0.643
670.81	0.637
671.00	0.638
671.18	0.638
671.37	0.638
671.56	0.635
671.75	0.634
671.94	0.631
672.13	0.629
672.32	0.624
672.50	0.623
672.69	0.624
672.88	0.624
673.07	0.620
673.26	0.623
673.45	0.624
673.63	0.624
673.82	0.620
674.01	0.621
674.20	0.620
674.39	0.619
674.58	0.618
674.76	0.619
674.95	0.617
675.14	0.616
675.33	0.612
675.52	0.610
675.71	0.611
675.89	0.610
676.08	0.606
676.27	0.607
676.46	0.608
676.65	0.607
676.84	0.606
677.02	0.607
677.21	0.610
677.40	0.609
677.59	0.606
677.78	0.608
677.96	0.610
678.15	0.610
678.34	0.607
678.53	0.608
678.72	0.608
678.90	0.604
679.09	0.600
679.28	0.597
679.47	0.597
679.66	0.596
679.84	0.592
680.03	0.590
680.22	0.589
680.41	0.591
680.60	0.588
680.78	0.587
680.97	0.590
681.16	0.590
681.35	0.588
681.53	0.587
681.72	0.588
681.91	0.590
682.10	0.589
682.29	0.591
682.47	0.588
682.66	0.588
682.85	0.586
683.04	0.585
683.22	0.585
683.41	0.586
683.60	0.585
683.79	0.585
683.97	0.585
684.16	0.583
684.35	0.579
684.54	0.581
684.72	0.582
684.91	0.582
685.10	0.580
685.29	0.581
685.47	0.579
685.66	0.578
685.85	0.575
686.04	0.574
686.22	0.577
686.41	0.580
686.60	0.576
686.79	0.579
686.97	0.580
687.16	0.582
687.35	0.579
687.54	0.583
687.72	0.586
687.91	0.586
688.10	0.588
688.29	0.587
688.47	0.585
688.66	0.584
688.85	0.580
689.03	0.577
689.22	0.582
689.41	0.582
689.60	0.577
689.78	0.574
689.97	0.575
690.16	0.572
690.34	0.568
690.53	0.569
690.72	0.569
690.91	0.567
691.09	0.565
691.28	0.559
691.47	0.558
691.65	0.558
691.84	0.555
692.03	0.554
692.21	0.552
692.40	0.552
692.59	0.550
692.77	0.549
692.96	0.551
693.15	0.552
693.34	0.549
693.52	0.549
693.71	0.549
693.90	0.550
694.08	0.551
694.27	0.552
694.46	0.562
694.64	0.562
694.83	0.561
695.02	0.559
695.20	0.559
695.39	0.559
695.58	0.559
695.76	0.560
695.95	0.560
696.14	0.559
696.32	0.557
696.51	0.547
696.70	0.548
696.88	0.549
697.07	0.548
697.26	0.549
697.44	0.550
697.63	0.549
697.81	0.546
698.00	0.546
698.19	0.545
698.37	0.545
698.56	0.544
698.75	0.544
698.93	0.544
699.12	0.544
699.31	0.543
699.49	0.542
699.68	0.543
699.87	0.546
700.05	0.546
700.24	0.545
700.42	0.546
700.61	0.545
700.80	0.543
700.98	0.543
701.17	0.545
701.36	0.544
701.54	0.543
701.73	0.544
701.91	0.542
702.10	0.541
702.29	0.540
702.47	0.539
702.66	0.541
702.84	0.542
703.03	0.540
703.22	0.541
703.40	0.542
703.59	0.543
703.77	0.542
703.96	0.542
704.15	0.543
704.33	0.543
704.52	0.541
704.70	0.540
704.89	0.540
705.08	0.539
705.26	0.534
705.45	0.534
705.63	0.534
705.82	0.530
706.00	0.529
706.19	0.528
706.38	0.528
706.56	0.528
706.75	0.526
706.93	0.524
707.12	0.526
707.30	0.527
707.49	0.524
707.68	0.523
707.86	0.523
708.05	0.522
708.23	0.520
708.42	0.521
708.60	0.524
708.79	0.524
708.98	0.523
709.16	0.522
709.35	0.525
709.53	0.529
709.72	0.528
709.90	0.530
710.09	0.532
710.27	0.534
710.46	0.537
710.64	0.536
710.83	0.538
711.02	0.539
711.20	0.537
711.39	0.536
711.57	0.533
711.76	0.534
711.94	0.531
712.13	0.532
712.31	0.532
712.50	0.527
712.68	0.524
712.87	0.525
713.05	0.526
713.24	0.527
713.42	0.525
713.61	0.526
713.79	0.527
713.98	0.527
714.16	0.528
714.35	0.527
714.54	0.528
714.72	0.528
714.91	0.525
715.09	0.531
715.28	0.535
715.46	0.535
715.65	0.533
715.83	0.533
716.02	0.535
716.20	0.532
716.39	0.531
716.57	0.532
716.76	0.535
716.94	0.535
717.12	0.527
717.31	0.528
717.49	0.531
717.68	0.534
717.86	0.533
718.05	0.535
718.23	0.537
718.42	0.540
718.60	0.541
718.79	0.550
718.97	0.552
719.16	0.553
719.34	0.550
719.53	0.550
719.71	0.550
719.90	0.552
720.08	0.549
720.27	0.549
720.45	0.549
720.63	0.549
720.82	0.542
721.00	0.545
721.19	0.549
721.37	0.548
721.56	0.548
721.74	0.550
721.93	0.559
722.11	0.566
722.30	0.566
722.48	0.570
722.66	0.570
722.85	0.569
723.03	0.570
723.22	0.569
723.40	0.573
723.59	0.573
723.77	0.576
723.95	0.569
724.14	0.571
724.32	0.572
724.51	0.571
724.69	0.574
724.88	0.574
725.06	0.572
725.24	0.572
725.43	0.574
725.61	0.576
725.80	0.569
725.98	0.567
726.16	0.564
726.35	0.570
726.53	0.569
726.72	0.568
726.90	0.579
727.09	0.580
727.27	0.586
727.45	0.582
727.64	0.593
727.82	0.603
728.01	0.607
728.19	0.604
728.37	0.608
728.56	0.615
728.74	0.621
728.92	0.608
729.11	0.610
729.29	0.608
729.48	0.611
729.66	0.599
729.84	0.599
730.03	0.602
730.21	0.605
730.40	0.596
730.58	0.595
730.76	0.596
730.95	0.599
731.13	0.599
731.31	0.613
731.50	0.623
731.68	0.626
731.86	0.620
732.05	0.636
732.23	0.640
732.42	0.643
732.60	0.647
732.78	0.651
732.97	0.672
733.15	0.679
733.33	0.667
733.52	0.674
733.70	0.688
733.88	0.699
734.07	0.683
734.25	0.709
734.43	0.720
734.62	0.723
734.80	0.719
734.98	0.707
735.17	0.715
735.35	0.721
735.53	0.710
735.72	0.712
735.90	0.737
736.08	0.756
736.27	0.733
736.45	0.742
736.63	0.757
736.82	0.769
737.00	0.770
737.18	0.780
737.37	0.815
737.55	0.837
737.73	0.832
737.92	0.835
738.10	0.833
738.28	0.859
738.46	0.845
738.65	0.859
738.83	0.884
739.01	0.946
739.20	0.938
739.38	0.919
739.56	0.917
739.75	0.925
739.93	0.884
740.11	0.915
740.29	0.910
740.48	0.920
740.66	0.893
740.84	0.888
741.03	0.852
741.21	0.864
741.39	0.842
741.57	0.858
741.76	0.876
741.94	0.881
742.12	0.840
742.31	0.851
742.49	0.875
742.67	0.903
742.85	0.920
743.04	0.923
743.22	0.934
743.40	1.003
743.58	0.978
743.77	1.003
743.95	1.052
744.13	1.118
744.31	1.088
744.50	1.082
744.68	1.084
744.86	1.050
745.04	1.058
745.23	1.138
745.41	1.115
745.59	1.116
745.77	1.063
745.96	1.046
746.14	1.060
746.32	1.061
746.50	1.044
746.69	1.027
746.87	1.038
747.05	1.022
747.23	0.939
747.42	0.924
747.60	0.959
747.78	0.967
747.96	1.001
748.14	0.947
748.33	0.980
748.51	0.973
748.69	0.961
748.87	1.000
749.06	0.995
749.24	0.992
749.42	0.971
749.60	0.952
749.78	0.962
749.97	0.909
750.15	0.902
750.33	0.903
750.51	0.934
750.69	0.939
750.88	0.937
751.06	0.957
751.24	0.989
751.42	0.981
751.60	0.966
751.79	1.049
751.97	1.108
752.15	1.107
752.33	1.065
752.51	1.149
752.69	1.175
752.88	1.129
753.06	1.180
753.24	1.151
753.42	1.201
753.60	1.467
753.78	1.249
753.97	1.273
754.15	1.302
754.33	1.347
754.51	1.164
754.69	1.141
754.87	1.187
755.06	1.087
755.24	1.083
755.42	1.088
755.60	0.967
755.78	0.971
755.96	0.907
756.15	0.903
756.33	0.905
756.51	0.922
756.69	0.907
756.87	0.869
757.05	0.895
757.23	0.878
757.42	0.840
757.60	0.839
757.78	0.831
757.96	0.831
758.14	0.812
758.32	0.799
758.50	0.818
758.69	0.815
758.87	0.805
759.05	0.808
759.23	0.818
759.41	0.819
759.59	0.811
759.77	0.834
759.95	0.867
760.13	0.926
760.32	0.923
760.50	0.918
760.68	0.945
760.86	0.948
761.04	0.914
761.22	0.920
761.40	0.976
761.58	0.973
761.76	0.937
761.95	0.914
762.13	0.867
762.31	0.866
762.49	0.828
762.67	0.848
762.85	0.863
763.03	0.858
763.21	0.838
763.39	0.816
763.57	0.816
763.75	0.811
763.94	0.794
764.12	0.791
764.30	0.820
764.48	0.826
764.66	0.786
764.84	0.780
765.02	0.821
765.20	0.831
765.38	0.810
765.56	0.818
765.74	0.863
765.92	0.866
766.10	0.875
766.28	0.864
766.46	0.896
766.65	0.896
766.83	0.883
767.01	0.864
767.19	0.872
767.37	0.873
767.55	0.857
767.73	0.835
767.91	0.840
768.09	0.828
768.27	0.816
768.45	0.806
768.63	0.813
768.81	0.815
768.99	0.788
769.17	0.813
769.35	0.831
769.53	0.831
769.71	0.813
769.89	0.820
770.07	0.825
770.25	0.807
770.43	0.783
770.61	0.809
770.79	0.818
770.97	0.829
771.15	0.793
771.33	0.794
771.51	0.797
771.69	0.807
771.87	0.814
772.05	0.822
772.24	0.832
772.42	0.841
772.60	0.815
772.78	0.881
772.96	0.913
773.14	0.909
773.32	0.883
773.49	0.890
773.67	0.888
773.85	0.865
774.03	0.851
774.21	0.886
774.39	0.896
774.57	0.925
774.75	0.844
774.93	0.840
775.11	0.866
775.29	0.873
775.47	0.873
775.65	0.887
775.83	0.906
776.01	0.931
776.19	0.875
776.37	0.881
776.55	0.880
776.73	0.874
776.91	0.865
777.09	0.844
777.27	0.845
777.45	0.835
777.63	0.810
777.81	0.807
777.99	0.796
778.17	0.793
778.35	0.768
778.53	0.758
778.71	0.765
778.89	0.750
779.07	0.740
779.24	0.744
779.42	0.745
779.60	0.763
779.78	0.758
779.96	0.759
780.14	0.771
780.32	0.795
780.50	0.772
780.68	0.772
780.86	0.766
781.04	0.784
781.22	0.786
781.40	0.795
781.58	0.785
781.75	0.779
781.93	0.763
782.11	0.761
782.29	0.747
782.47	0.747
782.65	0.733
782.83	0.764
783.01	0.756
783.19	0.748
783.37	0.735
783.55	0.739
783.72	0.758
783.90	0.768
784.08	0.759
784.26	0.771
784.44	0.792
784.62	0.793
784.80	0.755
784.98	0.761
785.16	0.770
785.33	0.786
785.51	0.770
785.69	0.754
785.87	0.753
786.05	0.762
786.23	0.756
786.41	0.752
786.59	0.761
786.77	0.763
786.94	0.748
787.12	0.750
787.30	0.751
787.48	0.745
787.66	0.731
787.84	0.733
788.02	0.725
788.19	0.721
788.37	0.707
788.55	0.708
788.73	0.709
788.91	0.706
789.09	0.687
789.27	0.677
789.44	0.691
789.62	0.699
789.80	0.708
789.98	0.735
790.16	0.723
790.34	0.719
790.51	0.707
790.69	0.726
790.87	0.733
791.05	0.733
791.23	0.723
791.41	0.725
791.58	0.733
791.76	0.711
791.94	0.678
792.12	0.688
792.30	0.690
792.48	0.686
792.65	0.678
792.83	0.686
793.01	0.693
793.19	0.692
793.37	0.675
793.54	0.673
793.72	0.683
793.90	0.680
794.08	0.669
794.26	0.671
794.43	0.683
794.61	0.666
794.79	0.652
794.97	0.650
795.15	0.657
795.32	0.660
795.50	0.648
795.68	0.645
795.86	0.650
796.04	0.650
796.21	0.644
796.39	0.643
796.57	0.656
796.75	0.667
796.92	0.669
797.10	0.674
797.28	0.676
797.46	0.680
797.64	0.681
797.81	0.690
797.99	0.695
798.17	0.699
798.35	0.692
798.52	0.696
798.70	0.690
798.88	0.700
799.06	0.698
799.23	0.702
799.41	0.710
799.59	0.703
799.77	0.690
799.94	0.698
800.12	0.709
800.30	0.726
800.48	0.726
800.65	0.728
800.83	0.717
801.01	0.707
801.19	0.707
801.36	0.704
801.54	0.708
801.72	0.719
801.90	0.707
802.07	0.701
802.25	0.686
802.43	0.666
802.60	0.661
802.78	0.667
802.96	0.676
803.14	0.668
803.31	0.664
803.49	0.663
803.67	0.660
803.84	0.662
804.02	0.653
804.20	0.656
804.38	0.663
804.55	0.662
804.73	0.646
804.91	0.646
805.08	0.656
805.26	0.654
805.44	0.724
805.61	0.729
805.79	0.731
805.97	0.732
806.15	0.723
806.32	0.720
806.50	0.727
806.68	0.728
806.85	0.717
807.03	0.709
807.21	0.726
807.38	0.652
807.56	0.639
807.74	0.649
807.91	0.655
808.09	0.656
808.27	0.675
808.44	0.702
808.62	0.713
808.80	0.716
808.97	0.712
809.15	0.705
809.33	0.724
809.50	0.731
809.68	0.717
809.86	0.727
810.03	0.764
810.21	0.739
810.39	0.719
810.56	0.723
810.74	0.750
810.91	0.828
811.09	0.814
811.27	0.840
811.44	0.850
811.62	0.851
811.80	0.830
811.97	0.797
812.15	0.798
812.33	0.793
812.50	0.775
812.68	0.764
812.85	0.703
813.03	0.707
813.21	0.671
813.38	0.663
813.56	0.665
813.74	0.675
813.91	0.681
814.09	0.712
814.26	0.706
814.44	0.712
814.62	0.699
814.79	0.703
814.97	0.710
815.14	0.714
815.32	0.719
815.50	0.738
815.67	0.741
815.85	0.731
816.02	0.718
816.20	0.724
816.38	0.742
816.55	0.749
816.73	0.746
816.90	0.756
817.08	0.791
817.26	0.795
817.43	0.775
817.61	0.802
817.78	0.830
817.96	0.809
818.13	0.802
818.31	0.799
818.49	0.814
818.66	0.804
818.84	0.791
819.01	0.767
819.19	0.775
819.36	0.777
819.54	0.746
819.71	0.790
819.89	0.807
820.07	0.818
820.24	0.812
820.42	0.813
820.59	0.838
820.77	0.863
820.94	0.853
821.12	0.872
821.29	0.891
821.47	0.891
821.64	0.819
821.82	0.835
822.00	0.835
822.17	0.832
822.35	0.822
822.52	0.822
822.70	0.811
822.87	0.825
823.05	0.804
823.22	0.819
823.40	0.851
823.57	0.876
823.75	0.854
823.92	0.883
824.10	0.909
824.27	0.958
824.45	0.949
824.62	1.024
824.80	1.038
824.97	1.063
825.15	1.046
825.32	1.067
825.50	1.071
825.67	1.087
825.85	1.051
826.02	1.077
826.20	1.106
826.37	1.292
826.55	1.177
826.72	1.538
826.90	1.732
827.07	1.956
827.25	1.749
827.42	-0.000
827.60	-0.000
827.77	-0.000
827.95	-0.000
828.12	-0.000
828.30	-0.000
828.47	-0.000
828.65	1.892
828.82	2.364
829.00	-0.000
829.17	-0.000
829.34	-0.000
829.52	-0.000
829.69	-0.000
829.87	-0.000
830.04	-0.000
830.22	-0.000
830.39	-0.000
830.57	-0.000
830.74	-0.000
830.92	-0.000
831.09	-0.000
831.26	-0.000
831.44	-0.000
831.61	-0.000
831.79	-0.000
831.96	-0.000
832.14	-0.000
832.31	-0.000
832.49	-0.000
832.66	-0.000
832.83	-0.000
833.01	-0.000
833.18	-0.000
833.36	-0.000
833.53	-0.000
833.70	-0.000
833.88	-0.000
834.05	-0.000
834.23	-0.000
834.40	-0.000
834.58	-0.000
834.75	-0.000
834.92	-0.000
835.10	-0.000
835.27	-0.000
835.45	-0.000
835.62	-0.000
835.79	-0.000
835.97	-0.000
836.14	-0.000
836.32	-0.000
836.49	-0.000
836.66	-0.000
836.84	-0.000
837.01	-0.000
837.18	-0.000
837.36	-0.000
837.53	-0.000
837.71	-0.000
837.88	-0.000
838.05	-0.000
838.23	-0.000
838.40	-0.000
838.58	-0.000
838.75	-0.000
838.92	-0.000
839.10	-0.000
839.27	-0.000
839.44	-0.000
839.62	-0.000
839.79	-0.000
839.96	-0.000
840.14	-0.000
840.31	-0.000
840.48	-0.000
840.66	-0.000
840.83	-0.000
841.01	-0.000
841.18	-0.000
841.35	-0.000
841.53	-0.000
841.70	-0.000
841.87	-0.000
842.05	-0.000
842.22	-0.000
842.39	-0.000
842.57	-0.000
842.74	-0.000
842.91	-0.000
843.09	-0.000
843.26	-0.000
843.43	-0.000
843.60	-0.000
843.78	-0.000
843.95	-0.000
844.12	-0.000
844.30	-0.000
844.47	-0.000
844.64	-0.000
844.82	-0.000
844.99	-0.000
845.16	-0.000
845.34	-0.000
845.51	-0.000
845.68	-0.000
845.85	-0.000
846.03	-0.000
846.20	-0.000
846.37	-0.000
846.55	-0.000
846.72	-0.000
846.89	-0.000
847.06	-0.000
847.24	-0.000
847.41	-0.000
847.58	-0.000
847.76	-0.000
847.93	-0.000
848.10	-0.000
848.27	-0.000
848.45	-0.000
848.62	-0.000
848.79	-0.000
848.97	-0.000
849.14	-0.000
849.31	-0.000
849.48	-0.000
849.66	-0.000
849.83	-0.000
850.00	-0.000
850.17	-0.000
850.35	-0.000
850.52	-0.000
850.69	-0.000
850.86	-0.000
851.04	-0.000
851.21	-0.000
851.38	-0.000
851.55	-0.000
851.72	-0.000
851.90	-0.000
852.07	-0.000
852.24	-0.000
852.41	-0.000
852.59	-0.000
852.76	-0.000
852.93	-0.000
853.10	-0.000
853.28	-0.000
853.45	-0.000
853.62	-0.000
853.79	-0.000
853.96	-0.000
854.14	-0.000
854.31	-0.000
854.48	-0.000
854.65	-0.000
854.82	-0.000
855.00	-0.000
855.17	-0.000
855.34	-0.000
855.51	-0.000
855.68	-0.000
855.86	-0.000
856.03	-0.000
856.20	-0.000
856.37	-0.000
856.54	-0.000
856.72	-0.000
856.89	-0.000
857.06	-0.000
857.23	-0.000
857.40	-0.000
857.57	-0.000
857.75	-0.000
857.92	-0.000
858.09	-0.000
858.26	-0.000
858.43	-0.000
858.60	-0.000
858.78	-0.000
858.95	-0.000
859.12	-0.000
859.29	-0.000
859.46	-0.000
859.63	-0.000
859.81	-0.000
859.98	-0.000
860.15	-0.000
860.32	-0.000
860.49	-0.000
860.66	-0.000
860.83	-0.000
861.01	-0.000
861.18	-0.000
861.35	-0.000
861.52	-0.000
861.69	-0.000
861.86	-0.000
862.03	-0.000
862.21	-0.000
862.38	-0.000
862.55	-0.000
862.72	-0.000
862.89	-0.000
863.06	-0.000
863.23	-0.000
863.40	-0.000
863.58	-0.000
863.75	-0.000
863.92	-0.000
864.09	-0.000
864.26	-0.000
864.43	-0.000
864.60	-0.000
864.77	-0.000
864.94	-0.000
865.11	-0.000
865.29	-0.000
865.46	-0.000
865.63	-0.000
865.80	-0.000
865.97	-0.000
866.14	-0.000
866.31	-0.000
866.48	-0.000
866.65	-0.000
866.82	-0.000
866.99	-0.000
867.16	-0.000
867.34	-0.000
867.51	-0.000
867.68	-0.000
867.85	-0.000
868.02	-0.000
868.19	-0.000
868.36	-0.000
868.53	-0.000
868.70	-0.000
868.87	-0.000
869.04	-0.000
869.21	-0.000
869.38	-0.000
869.55	-0.000
869.72	-0.000
869.89	-0.000
870.06	-0.000
870.24	-0.000
870.41	-0.000
870.58	-0.000
870.75	-0.000
870.92	-0.000
871.09	-0.000
871.26	-0.000
871.43	-0.000
871.60	-0.000
871.77	-0.000
871.94	-0.000
872.11	-0.000
872.28	-0.000
872.45	-0.000
872.62	-0.000
872.79	-0.000
872.96	-0.000
873.13	-0.000
873.30	-0.000
873.47	-0.000
873.64	-0.000
873.81	-0.000
873.98	-0.000
874.15	-0.000
874.32	-0.000
874.49	-0.000
874.66	-0.000
874.83	-0.000
875.00	-0.000
875.17	-0.000
875.34	-0.000
875.51	-0.000
875.68	-0.000
875.85	-0.000
876.02	-0.000
876.19	-0.000
876.36	-0.000
876.53	-0.000
876.70	-0.000
876.87	-0.000
877.04	-0.000
877.21	-0.000
877.38	-0.000
877.55	-0.000
877.72	-0.000
877.89	-0.000
878.06	-0.000
878.23	-0.000
878.39	-0.000
878.56	-0.000
878.73	-0.000
878.90	-0.000
879.07	-0.000
879.24	-0.000
879.41	-0.000
879.58	-0.000
879.75	-0.000
879.92	-0.000
880.09	-0.000
880.26	-0.000
880.43	-0.000
880.60	-0.000
880.77	-0.000
880.94	-0.000
881.11	-0.000
881.27	-0.000
881.44	-0.000
881.61	-0.000
881.78	-0.000
881.95	-0.000
882.12	-0.000
882.29	-0.000
882.46	-0.000
882.63	-0.000
882.80	-0.000
882.97	-0.000
883.14	-0.000
883.30	-0.000
883.47	-0.000
883.64	-0.000
883.81	-0.000
883.98	-0.000
884.15	-0.000
884.32	-0.000
884.49	-0.000
884.66	-0.000
884.82	-0.000
884.99	-0.000
885.16	-0.000
885.33	-0.000
885.50	-0.000
885.67	-0.000
885.84	-0.000
886.01	-0.000
886.17	-0.000
886.34	-0.000
886.51	-0.000
886.68	-0.000
886.85	-0.000
887.02	-0.000
887.19	-0.000
887.36	-0.000
887.52	-0.000
887.69	-0.000
887.86	-0.000
888.03	-0.000
888.20	-0.000
888.37	-0.000
888.54	-0.000
888.70	-0.000
888.87	-0.000
889.04	-0.000
889.21	-0.000
889.38	-0.000
889.55	-0.000
889.71	-0.000
889.88	-0.000
890.05	-0.000
890.22	-0.000
890.39	-0.000
>>>>>End Processed Spectral Data<<<<<
