SpectraSuite Data File
++++++++++++++++++++++++++++++++++++
Date: Fri Jun 19 11:35:00 CEST 2015
User: introlabs
Dark Spectrum Present: Yes
Reference Spectrum Present: Yes
Number of Sampled Component Spectra: 1
Spectrometers: USB4H08886
Integration Time (usec): 5245692 (USB4H08886)
Spectra Averaged: 5 (USB4H08886)
Boxcar Smoothing: 5 (USB4H08886)
Correct for Electrical Dark: Yes (USB4H08886)
Strobe/Lamp Enabled: No (USB4H08886)
Correct for Detector Non-linearity: Yes (USB4H08886)
Correct for Stray Light: Yes (USB4H08886)
Number of Pixels in Processed Spectrum: 3648
>>>>>Begin Processed Spectral Data<<<<<
178.14	-0.000
178.36	-0.000
178.57	-0.000
178.79	-0.000
179.01	-0.000
179.22	-0.000
179.44	-0.000
179.65	-0.000
179.87	-0.000
180.08	-0.000
180.30	-0.000
180.52	-0.000
180.73	-0.000
180.95	-0.000
181.16	-0.000
181.38	-0.000
181.59	-0.000
181.81	-0.000
182.03	-0.000
182.24	-0.000
182.46	-0.000
182.67	-0.000
182.89	-0.000
183.10	-0.000
183.32	-0.000
183.54	-0.000
183.75	-0.000
183.97	-0.000
184.18	-0.000
184.40	-0.000
184.61	-0.000
184.83	-0.000
185.04	-0.000
185.26	-0.000
185.48	-0.000
185.69	-0.000
185.91	-0.000
186.12	-0.000
186.34	-0.000
186.55	-0.000
186.77	-0.000
186.98	-0.000
187.20	-0.000
187.42	-0.000
187.63	-0.000
187.85	-0.000
188.06	-0.000
188.28	-0.000
188.49	-0.000
188.71	-0.000
188.92	-0.000
189.14	-0.000
189.36	-0.000
189.57	-0.000
189.79	-0.000
190.00	-0.000
190.22	-0.000
190.43	-0.000
190.65	-0.000
190.86	-0.000
191.08	-0.000
191.29	-0.000
191.51	-0.000
191.72	-0.000
191.94	-0.000
192.16	-0.000
192.37	-0.000
192.59	-0.000
192.80	-0.000
193.02	-0.000
193.23	-0.000
193.45	-0.000
193.66	-0.000
193.88	-0.000
194.09	-0.000
194.31	-0.000
194.52	-0.000
194.74	-0.000
194.95	-0.000
195.17	-0.000
195.38	-0.000
195.60	-0.000
195.81	-0.000
196.03	-0.000
196.25	-0.000
196.46	-0.000
196.68	-0.000
196.89	-0.000
197.11	-0.000
197.32	-0.000
197.54	-0.000
197.75	-0.000
197.97	-0.000
198.18	-0.000
198.40	-0.000
198.61	-0.000
198.83	-0.000
199.04	-0.000
199.26	-0.000
199.47	-0.000
199.69	-0.000
199.90	-0.000
200.12	-0.000
200.33	-0.000
200.55	-0.000
200.76	-0.000
200.98	-0.000
201.19	-0.000
201.41	-0.000
201.62	-0.000
201.84	-0.000
202.05	-0.000
202.27	-0.000
202.48	-0.000
202.70	-0.000
202.91	-0.000
203.13	-0.000
203.34	-0.000
203.56	-0.000
203.77	-0.000
203.99	-0.000
204.20	-0.000
204.42	-0.000
204.63	-0.000
204.85	-0.000
205.06	-0.000
205.28	-0.000
205.49	-0.000
205.71	-0.000
205.92	-0.000
206.14	-0.000
206.35	-0.000
206.56	-0.000
206.78	-0.000
206.99	-0.000
207.21	-0.000
207.42	-0.000
207.64	-0.000
207.85	-0.000
208.07	-0.000
208.28	-0.000
208.50	-0.000
208.71	-0.000
208.93	-0.000
209.14	-0.000
209.36	-0.000
209.57	-0.000
209.79	-0.000
210.00	-0.000
210.22	-0.000
210.43	-0.000
210.64	-0.000
210.86	-0.000
211.07	-0.000
211.29	-0.000
211.50	-0.000
211.72	-0.000
211.93	-0.000
212.15	-0.000
212.36	-0.000
212.58	-0.000
212.79	-0.000
213.01	-0.000
213.22	-0.000
213.43	-0.000
213.65	-0.000
213.86	-0.000
214.08	-0.000
214.29	-0.000
214.51	-0.000
214.72	-0.000
214.94	-0.000
215.15	-0.000
215.36	-0.000
215.58	-0.000
215.79	-0.000
216.01	-0.000
216.22	-0.000
216.44	-0.000
216.65	-0.000
216.87	-0.000
217.08	-0.000
217.29	-0.000
217.51	-0.000
217.72	-0.000
217.94	-0.000
218.15	-0.000
218.37	-0.000
218.58	-0.000
218.80	-0.000
219.01	-0.000
219.22	-0.000
219.44	-0.000
219.65	-0.000
219.87	-0.000
220.08	-0.000
220.30	-0.000
220.51	-0.000
220.72	-0.000
220.94	-0.000
221.15	-0.000
221.37	-0.000
221.58	-0.000
221.79	-0.000
222.01	-0.000
222.22	-0.000
222.44	-0.000
222.65	-0.000
222.87	-0.000
223.08	-0.000
223.29	-0.000
223.51	-0.000
223.72	-0.000
223.94	-0.000
224.15	-0.000
224.36	-0.000
224.58	-0.000
224.79	-0.000
225.01	-0.000
225.22	-0.000
225.44	-0.000
225.65	-0.000
225.86	-0.000
226.08	-0.000
226.29	-0.000
226.51	-0.000
226.72	-0.000
226.93	-0.000
227.15	-0.000
227.36	-0.000
227.58	-0.000
227.79	-0.000
228.00	-0.000
228.22	-0.000
228.43	-0.000
228.65	-0.000
228.86	-0.000
229.07	-0.000
229.29	-0.000
229.50	-0.000
229.72	-0.000
229.93	-0.000
230.14	-0.000
230.36	-0.000
230.57	-0.000
230.78	-0.000
231.00	-0.000
231.21	-0.000
231.43	-0.000
231.64	-0.000
231.85	-0.000
232.07	-0.000
232.28	-0.000
232.50	-0.000
232.71	-0.000
232.92	-0.000
233.14	-0.000
233.35	-0.000
233.56	-0.000
233.78	-0.000
233.99	-0.000
234.21	-0.000
234.42	-0.000
234.63	-0.000
234.85	-0.000
235.06	-0.000
235.27	-0.000
235.49	-0.000
235.70	-0.000
235.91	-0.000
236.13	-0.000
236.34	-0.000
236.56	-0.000
236.77	-0.000
236.98	-0.000
237.20	-0.000
237.41	-0.000
237.62	-0.000
237.84	-0.000
238.05	-0.000
238.26	-0.000
238.48	-0.000
238.69	-0.000
238.91	-0.000
239.12	-0.000
239.33	-0.000
239.55	-0.000
239.76	-0.000
239.97	-0.000
240.19	-0.000
240.40	-0.000
240.61	-0.000
240.83	-0.000
241.04	-0.000
241.25	-0.000
241.47	-0.000
241.68	-0.000
241.89	-0.000
242.11	-0.000
242.32	-0.000
242.53	-0.000
242.75	-0.000
242.96	-0.000
243.17	-0.000
243.39	-0.000
243.60	-0.000
243.81	-0.000
244.03	-0.000
244.24	-0.000
244.45	-0.000
244.67	-0.000
244.88	-0.000
245.09	-0.000
245.31	-0.000
245.52	-0.000
245.73	-0.000
245.95	-0.000
246.16	-0.000
246.37	-0.000
246.59	-0.000
246.80	-0.000
247.01	-0.000
247.23	-0.000
247.44	-0.000
247.65	-0.000
247.87	-0.000
248.08	-0.000
248.29	-0.000
248.51	-0.000
248.72	-0.000
248.93	-0.000
249.15	1.414
249.36	1.121
249.57	0.936
249.78	0.906
250.00	0.993
250.21	0.824
250.42	0.955
250.64	1.108
250.85	0.969
251.06	0.917
251.28	0.851
251.49	0.829
251.70	0.837
251.92	0.762
252.13	0.732
252.34	0.591
252.55	0.595
252.77	0.571
252.98	0.507
253.19	0.505
253.41	0.483
253.62	0.515
253.83	0.521
254.05	0.495
254.26	0.481
254.47	0.454
254.68	0.458
254.90	0.418
255.11	0.373
255.32	0.369
255.54	0.368
255.75	0.375
255.96	0.351
256.17	0.328
256.39	0.324
256.60	0.336
256.81	0.331
257.03	0.335
257.24	0.345
257.45	0.360
257.66	0.352
257.88	0.341
258.09	0.324
258.30	0.322
258.51	0.317
258.73	0.313
258.94	0.294
259.15	0.289
259.37	0.285
259.58	0.273
259.79	0.270
260.00	0.282
260.22	0.293
260.43	0.299
260.64	0.288
260.85	0.294
261.07	0.272
261.28	0.289
261.49	0.289
261.71	0.290
261.92	0.311
262.13	0.292
262.34	0.282
262.56	0.275
262.77	0.268
262.98	0.266
263.19	0.267
263.41	0.292
263.62	0.287
263.83	0.288
264.04	0.284
264.26	0.262
264.47	0.270
264.68	0.273
264.89	0.276
265.11	0.275
265.32	0.283
265.53	0.276
265.74	0.271
265.96	0.267
266.17	0.268
266.38	0.260
266.59	0.274
266.81	0.274
267.02	0.259
267.23	0.248
267.44	0.255
267.65	0.242
267.87	0.244
268.08	0.236
268.29	0.221
268.50	0.216
268.72	0.217
268.93	0.205
269.14	0.201
269.35	0.205
269.57	0.201
269.78	0.195
269.99	0.195
270.20	0.190
270.41	0.189
270.63	0.194
270.84	0.192
271.05	0.187
271.26	0.187
271.48	0.189
271.69	0.194
271.90	0.193
272.11	0.192
272.32	0.198
272.54	0.195
272.75	0.192
272.96	0.192
273.17	0.186
273.39	0.188
273.60	0.187
273.81	0.189
274.02	0.184
274.23	0.186
274.45	0.188
274.66	0.181
274.87	0.181
275.08	0.175
275.29	0.177
275.51	0.178
275.72	0.174
275.93	0.172
276.14	0.162
276.35	0.164
276.57	0.162
276.78	0.162
276.99	0.162
277.20	0.163
277.41	0.163
277.63	0.155
277.84	0.153
278.05	0.154
278.26	0.153
278.47	0.157
278.69	0.146
278.90	0.144
279.11	0.138
279.32	0.136
279.53	0.132
279.74	0.136
279.96	0.137
280.17	0.135
280.38	0.137
280.59	0.137
280.80	0.137
281.02	0.138
281.23	0.139
281.44	0.139
281.65	0.137
281.86	0.139
282.07	0.135
282.29	0.135
282.50	0.134
282.71	0.129
282.92	0.126
283.13	0.122
283.35	0.122
283.56	0.117
283.77	0.118
283.98	0.116
284.19	0.114
284.40	0.113
284.62	0.111
284.83	0.108
285.04	0.107
285.25	0.106
285.46	0.103
285.67	0.102
285.88	0.103
286.10	0.101
286.31	0.102
286.52	0.101
286.73	0.101
286.94	0.099
287.15	0.099
287.37	0.100
287.58	0.100
287.79	0.100
288.00	0.100
288.21	0.098
288.42	0.095
288.63	0.093
288.85	0.091
289.06	0.088
289.27	0.088
289.48	0.087
289.69	0.085
289.90	0.083
290.11	0.082
290.33	0.080
290.54	0.080
290.75	0.081
290.96	0.081
291.17	0.081
291.38	0.083
291.59	0.082
291.81	0.082
292.02	0.081
292.23	0.083
292.44	0.083
292.65	0.083
292.86	0.082
293.07	0.082
293.28	0.083
293.50	0.082
293.71	0.081
293.92	0.081
294.13	0.080
294.34	0.081
294.55	0.080
294.76	0.080
294.97	0.080
295.19	0.079
295.40	0.078
295.61	0.078
295.82	0.078
296.03	0.079
296.24	0.079
296.45	0.080
296.66	0.080
296.87	0.080
297.09	0.080
297.30	0.081
297.51	0.081
297.72	0.082
297.93	0.081
298.14	0.081
298.35	0.081
298.56	0.082
298.77	0.082
298.99	0.082
299.20	0.081
299.41	0.081
299.62	0.081
299.83	0.082
300.04	0.081
300.25	0.081
300.46	0.080
300.67	0.081
300.88	0.080
301.10	0.080
301.31	0.080
301.52	0.080
301.73	0.080
301.94	0.080
302.15	0.079
302.36	0.080
302.57	0.079
302.78	0.080
302.99	0.079
303.20	0.079
303.41	0.079
303.63	0.080
303.84	0.080
304.05	0.080
304.26	0.079
304.47	0.079
304.68	0.080
304.89	0.080
305.10	0.080
305.31	0.079
305.52	0.079
305.73	0.080
305.94	0.079
306.15	0.079
306.37	0.078
306.58	0.078
306.79	0.078
307.00	0.078
307.21	0.077
307.42	0.078
307.63	0.078
307.84	0.079
308.05	0.078
308.26	0.079
308.47	0.079
308.68	0.079
308.89	0.079
309.10	0.079
309.31	0.079
309.52	0.079
309.73	0.079
309.95	0.079
310.16	0.079
310.37	0.079
310.58	0.079
310.79	0.078
311.00	0.078
311.21	0.078
311.42	0.078
311.63	0.078
311.84	0.078
312.05	0.078
312.26	0.077
312.47	0.077
312.68	0.077
312.89	0.077
313.10	0.078
313.31	0.078
313.52	0.078
313.73	0.078
313.94	0.078
314.15	0.078
314.36	0.077
314.57	0.077
314.78	0.077
314.99	0.078
315.21	0.077
315.42	0.077
315.63	0.077
315.84	0.077
316.05	0.077
316.26	0.077
316.47	0.076
316.68	0.077
316.89	0.077
317.10	0.077
317.31	0.077
317.52	0.077
317.73	0.077
317.94	0.077
318.15	0.079
318.36	0.079
318.57	0.079
318.78	0.080
318.99	0.078
319.20	0.079
319.41	0.079
319.62	0.079
319.83	0.078
320.04	0.079
320.25	0.078
320.46	0.076
320.67	0.076
320.88	0.076
321.09	0.075
321.30	0.076
321.51	0.076
321.72	0.076
321.93	0.076
322.14	0.075
322.35	0.075
322.56	0.075
322.77	0.075
322.98	0.075
323.19	0.074
323.40	0.074
323.61	0.074
323.82	0.074
324.03	0.073
324.24	0.074
324.45	0.074
324.66	0.074
324.87	0.074
325.08	0.075
325.29	0.075
325.50	0.075
325.71	0.076
325.92	0.077
326.13	0.077
326.34	0.077
326.55	0.077
326.76	0.077
326.97	0.076
327.18	0.076
327.39	0.076
327.60	0.075
327.80	0.075
328.01	0.075
328.22	0.074
328.43	0.074
328.64	0.074
328.85	0.074
329.06	0.073
329.27	0.074
329.48	0.073
329.69	0.073
329.90	0.073
330.11	0.074
330.32	0.074
330.53	0.074
330.74	0.074
330.95	0.074
331.16	0.075
331.37	0.075
331.58	0.074
331.79	0.075
332.00	0.074
332.21	0.075
332.42	0.074
332.63	0.074
332.83	0.073
333.04	0.074
333.25	0.073
333.46	0.073
333.67	0.072
333.88	0.073
334.09	0.072
334.30	0.073
334.51	0.073
334.72	0.073
334.93	0.072
335.14	0.073
335.35	0.072
335.56	0.073
335.77	0.072
335.98	0.072
336.18	0.072
336.39	0.072
336.60	0.071
336.81	0.071
337.02	0.071
337.23	0.071
337.44	0.072
337.65	0.071
337.86	0.071
338.07	0.071
338.28	0.071
338.49	0.071
338.70	0.071
338.91	0.071
339.11	0.070
339.32	0.071
339.53	0.071
339.74	0.071
339.95	0.071
340.16	0.071
340.37	0.071
340.58	0.072
340.79	0.072
341.00	0.072
341.21	0.072
341.41	0.072
341.62	0.072
341.83	0.071
342.04	0.071
342.25	0.071
342.46	0.070
342.67	0.070
342.88	0.070
343.09	0.070
343.30	0.069
343.50	0.070
343.71	0.069
343.92	0.070
344.13	0.069
344.34	0.069
344.55	0.069
344.76	0.069
344.97	0.069
345.18	0.069
345.38	0.069
345.59	0.069
345.80	0.069
346.01	0.069
346.22	0.070
346.43	0.070
346.64	0.070
346.85	0.070
347.06	0.069
347.26	0.070
347.47	0.069
347.68	0.070
347.89	0.069
348.10	0.069
348.31	0.069
348.52	0.069
348.73	0.068
348.93	0.068
349.14	0.068
349.35	0.069
349.56	0.068
349.77	0.069
349.98	0.069
350.19	0.069
350.39	0.069
350.60	0.069
350.81	0.069
351.02	0.069
351.23	0.069
351.44	0.069
351.65	0.069
351.86	0.070
352.06	0.069
352.27	0.069
352.48	0.069
352.69	0.069
352.90	0.069
353.11	0.069
353.31	0.069
353.52	0.069
353.73	0.069
353.94	0.069
354.15	0.069
354.36	0.069
354.57	0.068
354.77	0.069
354.98	0.068
355.19	0.068
355.40	0.068
355.61	0.068
355.82	0.068
356.02	0.068
356.23	0.067
356.44	0.067
356.65	0.067
356.86	0.067
357.07	0.066
357.27	0.066
357.48	0.066
357.69	0.066
357.90	0.066
358.11	0.066
358.32	0.066
358.52	0.067
358.73	0.066
358.94	0.067
359.15	0.067
359.36	0.067
359.56	0.067
359.77	0.067
359.98	0.067
360.19	0.067
360.40	0.067
360.61	0.067
360.81	0.067
361.02	0.067
361.23	0.067
361.44	0.067
361.65	0.067
361.85	0.067
362.06	0.067
362.27	0.067
362.48	0.067
362.69	0.067
362.89	0.066
363.10	0.067
363.31	0.066
363.52	0.066
363.73	0.066
363.93	0.067
364.14	0.067
364.35	0.067
364.56	0.067
364.77	0.067
364.97	0.067
365.18	0.067
365.39	0.067
365.60	0.067
365.81	0.067
366.01	0.067
366.22	0.066
366.43	0.066
366.64	0.065
366.84	0.065
367.05	0.065
367.26	0.065
367.47	0.064
367.68	0.065
367.88	0.065
368.09	0.065
368.30	0.065
368.51	0.065
368.71	0.065
368.92	0.065
369.13	0.065
369.34	0.065
369.55	0.066
369.75	0.066
369.96	0.066
370.17	0.066
370.38	0.066
370.58	0.066
370.79	0.066
371.00	0.066
371.21	0.066
371.41	0.066
371.62	0.066
371.83	0.066
372.04	0.066
372.24	0.066
372.45	0.065
372.66	0.065
372.87	0.065
373.07	0.065
373.28	0.065
373.49	0.065
373.70	0.065
373.90	0.065
374.11	0.064
374.32	0.064
374.53	0.064
374.73	0.064
374.94	0.064
375.15	0.064
375.36	0.064
375.56	0.063
375.77	0.063
375.98	0.063
376.19	0.063
376.39	0.063
376.60	0.063
376.81	0.064
377.02	0.064
377.22	0.064
377.43	0.064
377.64	0.064
377.84	0.064
378.05	0.065
378.26	0.065
378.47	0.065
378.67	0.065
378.88	0.065
379.09	0.064
379.30	0.064
379.50	0.064
379.71	0.064
379.92	0.064
380.12	0.064
380.33	0.064
380.54	0.063
380.75	0.063
380.95	0.063
381.16	0.063
381.37	0.063
381.57	0.063
381.78	0.063
381.99	0.063
382.20	0.064
382.40	0.063
382.61	0.063
382.82	0.063
383.02	0.063
383.23	0.063
383.44	0.063
383.64	0.062
383.85	0.062
384.06	0.062
384.27	0.062
384.47	0.062
384.68	0.062
384.89	0.062
385.09	0.062
385.30	0.062
385.51	0.062
385.71	0.062
385.92	0.062
386.13	0.062
386.33	0.062
386.54	0.062
386.75	0.062
386.95	0.062
387.16	0.062
387.37	0.062
387.58	0.062
387.78	0.061
387.99	0.062
388.20	0.061
388.40	0.062
388.61	0.062
388.82	0.062
389.02	0.062
389.23	0.061
389.44	0.062
389.64	0.062
389.85	0.062
390.06	0.062
390.26	0.062
390.47	0.062
390.68	0.061
390.88	0.062
391.09	0.061
391.30	0.061
391.50	0.061
391.71	0.061
391.92	0.061
392.12	0.061
392.33	0.061
392.53	0.061
392.74	0.061
392.95	0.061
393.15	0.060
393.36	0.061
393.57	0.061
393.77	0.061
393.98	0.061
394.19	0.061
394.39	0.061
394.60	0.061
394.81	0.061
395.01	0.061
395.22	0.061
395.43	0.062
395.63	0.061
395.84	0.061
396.04	0.061
396.25	0.061
396.46	0.060
396.66	0.061
396.87	0.061
397.08	0.060
397.28	0.060
397.49	0.060
397.69	0.060
397.90	0.060
398.11	0.060
398.31	0.060
398.52	0.060
398.73	0.060
398.93	0.060
399.14	0.060
399.34	0.060
399.55	0.060
399.76	0.060
399.96	0.060
400.17	0.059
400.37	0.059
400.58	0.059
400.79	0.059
400.99	0.059
401.20	0.059
401.41	0.059
401.61	0.059
401.82	0.059
402.02	0.059
402.23	0.060
402.44	0.059
402.64	0.059
402.85	0.059
403.05	0.059
403.26	0.059
403.47	0.059
403.67	0.059
403.88	0.059
404.08	0.059
404.29	0.059
404.50	0.059
404.70	0.058
404.91	0.058
405.11	0.058
405.32	0.058
405.52	0.058
405.73	0.058
405.94	0.058
406.14	0.058
406.35	0.058
406.55	0.058
406.76	0.058
406.97	0.058
407.17	0.058
407.38	0.058
407.58	0.058
407.79	0.057
407.99	0.057
408.20	0.057
408.41	0.058
408.61	0.057
408.82	0.057
409.02	0.057
409.23	0.057
409.43	0.057
409.64	0.057
409.84	0.057
410.05	0.057
410.26	0.058
410.46	0.057
410.67	0.057
410.87	0.057
411.08	0.057
411.28	0.057
411.49	0.057
411.69	0.057
411.90	0.058
412.11	0.058
412.31	0.057
412.52	0.057
412.72	0.058
412.93	0.057
413.13	0.058
413.34	0.058
413.54	0.058
413.75	0.058
413.95	0.058
414.16	0.057
414.37	0.057
414.57	0.057
414.78	0.057
414.98	0.057
415.19	0.057
415.39	0.057
415.60	0.057
415.80	0.057
416.01	0.057
416.21	0.056
416.42	0.057
416.62	0.057
416.83	0.057
417.03	0.056
417.24	0.057
417.44	0.056
417.65	0.057
417.86	0.057
418.06	0.058
418.27	0.058
418.47	0.058
418.68	0.058
418.88	0.058
419.09	0.058
419.29	0.058
419.50	0.058
419.70	0.058
419.91	0.058
420.11	0.057
420.32	0.057
420.52	0.057
420.73	0.057
420.93	0.057
421.14	0.057
421.34	0.056
421.55	0.056
421.75	0.056
421.96	0.056
422.16	0.056
422.37	0.056
422.57	0.056
422.78	0.056
422.98	0.056
423.19	0.056
423.39	0.056
423.60	0.056
423.80	0.056
424.01	0.056
424.21	0.056
424.42	0.056
424.62	0.056
424.83	0.056
425.03	0.057
425.23	0.056
425.44	0.056
425.64	0.056
425.85	0.056
426.05	0.056
426.26	0.056
426.46	0.056
426.67	0.056
426.87	0.056
427.08	0.056
427.28	0.056
427.49	0.056
427.69	0.056
427.90	0.056
428.10	0.056
428.31	0.056
428.51	0.056
428.71	0.056
428.92	0.056
429.12	0.056
429.33	0.056
429.53	0.056
429.74	0.057
429.94	0.056
430.15	0.057
430.35	0.056
430.56	0.056
430.76	0.056
430.96	0.056
431.17	0.056
431.37	0.056
431.58	0.056
431.78	0.056
431.99	0.056
432.19	0.056
432.40	0.055
432.60	0.056
432.80	0.055
433.01	0.055
433.21	0.055
433.42	0.055
433.62	0.055
433.83	0.055
434.03	0.055
434.23	0.055
434.44	0.056
434.64	0.056
434.85	0.056
435.05	0.056
435.26	0.056
435.46	0.056
435.66	0.056
435.87	0.056
436.07	0.056
436.28	0.056
436.48	0.056
436.69	0.056
436.89	0.056
437.09	0.056
437.30	0.056
437.50	0.056
437.71	0.056
437.91	0.056
438.11	0.056
438.32	0.056
438.52	0.056
438.73	0.056
438.93	0.056
439.13	0.055
439.34	0.055
439.54	0.055
439.75	0.055
439.95	0.055
440.15	0.055
440.36	0.055
440.56	0.055
440.77	0.055
440.97	0.055
441.17	0.055
441.38	0.055
441.58	0.055
441.79	0.055
441.99	0.055
442.19	0.056
442.40	0.055
442.60	0.055
442.81	0.055
443.01	0.056
443.21	0.056
443.42	0.056
443.62	0.055
443.82	0.056
444.03	0.056
444.23	0.056
444.44	0.055
444.64	0.056
444.84	0.056
445.05	0.056
445.25	0.056
445.45	0.056
445.66	0.056
445.86	0.056
446.06	0.055
446.27	0.055
446.47	0.055
446.68	0.056
446.88	0.056
447.08	0.056
447.29	0.056
447.49	0.056
447.69	0.056
447.90	0.056
448.10	0.056
448.30	0.056
448.51	0.056
448.71	0.056
448.91	0.056
449.12	0.056
449.32	0.056
449.52	0.056
449.73	0.055
449.93	0.055
450.14	0.055
450.34	0.055
450.54	0.055
450.75	0.055
450.95	0.054
451.15	0.054
451.36	0.054
451.56	0.054
451.76	0.054
451.97	0.055
452.17	0.054
452.37	0.054
452.58	0.054
452.78	0.055
452.98	0.055
453.19	0.055
453.39	0.055
453.59	0.055
453.79	0.055
454.00	0.055
454.20	0.055
454.40	0.054
454.61	0.054
454.81	0.055
455.01	0.055
455.22	0.055
455.42	0.055
455.62	0.055
455.83	0.055
456.03	0.055
456.23	0.055
456.44	0.055
456.64	0.055
456.84	0.055
457.04	0.055
457.25	0.055
457.45	0.055
457.65	0.055
457.86	0.055
458.06	0.055
458.26	0.055
458.47	0.055
458.67	0.055
458.87	0.055
459.07	0.055
459.28	0.055
459.48	0.054
459.68	0.055
459.89	0.055
460.09	0.054
460.29	0.054
460.49	0.054
460.70	0.054
460.90	0.054
461.10	0.054
461.31	0.054
461.51	0.054
461.71	0.055
461.91	0.055
462.12	0.055
462.32	0.055
462.52	0.055
462.72	0.055
462.93	0.055
463.13	0.055
463.33	0.055
463.53	0.055
463.74	0.055
463.94	0.054
464.14	0.055
464.35	0.055
464.55	0.055
464.75	0.055
464.95	0.055
465.16	0.055
465.36	0.055
465.56	0.055
465.76	0.055
465.97	0.055
466.17	0.055
466.37	0.055
466.57	0.055
466.78	0.055
466.98	0.054
467.18	0.054
467.38	0.054
467.59	0.054
467.79	0.054
467.99	0.054
468.19	0.054
468.39	0.054
468.60	0.054
468.80	0.054
469.00	0.054
469.20	0.055
469.41	0.055
469.61	0.055
469.81	0.055
470.01	0.055
470.22	0.055
470.42	0.055
470.62	0.055
470.82	0.055
471.02	0.055
471.23	0.055
471.43	0.055
471.63	0.054
471.83	0.054
472.04	0.054
472.24	0.054
472.44	0.054
472.64	0.055
472.84	0.054
473.05	0.054
473.25	0.054
473.45	0.054
473.65	0.054
473.85	0.054
474.06	0.055
474.26	0.055
474.46	0.055
474.66	0.055
474.86	0.055
475.07	0.055
475.27	0.056
475.47	0.056
475.67	0.056
475.87	0.056
476.08	0.056
476.28	0.056
476.48	0.056
476.68	0.056
476.88	0.055
477.09	0.055
477.29	0.055
477.49	0.055
477.69	0.055
477.89	0.055
478.09	0.055
478.30	0.055
478.50	0.055
478.70	0.055
478.90	0.055
479.10	0.056
479.31	0.056
479.51	0.056
479.71	0.056
479.91	0.056
480.11	0.055
480.31	0.055
480.52	0.055
480.72	0.055
480.92	0.055
481.12	0.055
481.32	0.055
481.52	0.055
481.72	0.055
481.93	0.055
482.13	0.055
482.33	0.055
482.53	0.055
482.73	0.055
482.93	0.055
483.14	0.056
483.34	0.056
483.54	0.056
483.74	0.056
483.94	0.056
484.14	0.056
484.34	0.056
484.55	0.056
484.75	0.056
484.95	0.056
485.15	0.056
485.35	0.056
485.55	0.056
485.75	0.056
485.96	0.056
486.16	0.056
486.36	0.056
486.56	0.056
486.76	0.056
486.96	0.056
487.16	0.056
487.36	0.056
487.57	0.056
487.77	0.056
487.97	0.056
488.17	0.056
488.37	0.056
488.57	0.055
488.77	0.056
488.97	0.055
489.18	0.055
489.38	0.055
489.58	0.055
489.78	0.055
489.98	0.055
490.18	0.055
490.38	0.055
490.58	0.055
490.78	0.056
490.98	0.055
491.19	0.056
491.39	0.056
491.59	0.056
491.79	0.056
491.99	0.056
492.19	0.056
492.39	0.056
492.59	0.056
492.79	0.056
492.99	0.056
493.20	0.056
493.40	0.056
493.60	0.056
493.80	0.055
494.00	0.055
494.20	0.055
494.40	0.055
494.60	0.055
494.80	0.055
495.00	0.055
495.20	0.055
495.40	0.055
495.61	0.055
495.81	0.055
496.01	0.056
496.21	0.055
496.41	0.055
496.61	0.056
496.81	0.056
497.01	0.055
497.21	0.055
497.41	0.055
497.61	0.055
497.81	0.055
498.01	0.055
498.21	0.055
498.41	0.055
498.61	0.055
498.82	0.055
499.02	0.055
499.22	0.055
499.42	0.056
499.62	0.056
499.82	0.056
500.02	0.056
500.22	0.056
500.42	0.056
500.62	0.056
500.82	0.056
501.02	0.056
501.22	0.056
501.42	0.056
501.62	0.056
501.82	0.056
502.02	0.056
502.22	0.056
502.42	0.056
502.62	0.056
502.82	0.056
503.02	0.055
503.22	0.056
503.42	0.055
503.63	0.055
503.83	0.055
504.03	0.055
504.23	0.055
504.43	0.055
504.63	0.055
504.83	0.055
505.03	0.055
505.23	0.055
505.43	0.055
505.63	0.055
505.83	0.055
506.03	0.055
506.23	0.055
506.43	0.055
506.63	0.055
506.83	0.056
507.03	0.055
507.23	0.055
507.43	0.056
507.63	0.055
507.83	0.056
508.03	0.056
508.23	0.056
508.43	0.056
508.63	0.056
508.83	0.056
509.03	0.056
509.23	0.056
509.43	0.056
509.63	0.056
509.83	0.056
510.03	0.056
510.23	0.056
510.43	0.056
510.63	0.056
510.83	0.056
511.03	0.056
511.23	0.056
511.43	0.056
511.63	0.056
511.83	0.056
512.03	0.056
512.22	0.056
512.42	0.056
512.62	0.056
512.82	0.056
513.02	0.056
513.22	0.056
513.42	0.056
513.62	0.056
513.82	0.056
514.02	0.056
514.22	0.056
514.42	0.056
514.62	0.055
514.82	0.055
515.02	0.055
515.22	0.055
515.42	0.055
515.62	0.055
515.82	0.056
516.02	0.056
516.22	0.056
516.42	0.056
516.62	0.055
516.82	0.055
517.01	0.055
517.21	0.056
517.41	0.056
517.61	0.056
517.81	0.056
518.01	0.056
518.21	0.055
518.41	0.055
518.61	0.055
518.81	0.056
519.01	0.056
519.21	0.056
519.41	0.055
519.61	0.056
519.81	0.055
520.00	0.056
520.20	0.056
520.40	0.056
520.60	0.056
520.80	0.056
521.00	0.055
521.20	0.056
521.40	0.056
521.60	0.056
521.80	0.056
522.00	0.056
522.20	0.055
522.39	0.055
522.59	0.055
522.79	0.056
522.99	0.056
523.19	0.056
523.39	0.056
523.59	0.056
523.79	0.056
523.99	0.056
524.19	0.056
524.38	0.056
524.58	0.056
524.78	0.056
524.98	0.056
525.18	0.056
525.38	0.055
525.58	0.055
525.78	0.055
525.98	0.055
526.18	0.055
526.37	0.056
526.57	0.056
526.77	0.056
526.97	0.056
527.17	0.056
527.37	0.056
527.57	0.055
527.77	0.055
527.96	0.056
528.16	0.056
528.36	0.056
528.56	0.056
528.76	0.056
528.96	0.056
529.16	0.056
529.36	0.056
529.55	0.057
529.75	0.057
529.95	0.058
530.15	0.057
530.35	0.057
530.55	0.057
530.75	0.057
530.94	0.057
531.14	0.057
531.34	0.057
531.54	0.057
531.74	0.057
531.94	0.057
532.13	0.056
532.33	0.056
532.53	0.056
532.73	0.056
532.93	0.056
533.13	0.056
533.33	0.056
533.52	0.056
533.72	0.056
533.92	0.057
534.12	0.056
534.32	0.057
534.52	0.057
534.71	0.057
534.91	0.057
535.11	0.057
535.31	0.057
535.51	0.057
535.71	0.057
535.90	0.057
536.10	0.057
536.30	0.057
536.50	0.057
536.70	0.057
536.89	0.057
537.09	0.057
537.29	0.057
537.49	0.057
537.69	0.057
537.89	0.058
538.08	0.058
538.28	0.058
538.48	0.058
538.68	0.058
538.88	0.058
539.07	0.058
539.27	0.058
539.47	0.058
539.67	0.058
539.87	0.058
540.06	0.058
540.26	0.058
540.46	0.057
540.66	0.057
540.86	0.057
541.05	0.057
541.25	0.057
541.45	0.057
541.65	0.057
541.84	0.058
542.04	0.057
542.24	0.058
542.44	0.058
542.64	0.058
542.83	0.057
543.03	0.057
543.23	0.057
543.43	0.058
543.62	0.058
543.82	0.058
544.02	0.058
544.22	0.058
544.42	0.058
544.61	0.058
544.81	0.058
545.01	0.058
545.21	0.058
545.40	0.058
545.60	0.058
545.80	0.058
546.00	0.057
546.19	0.057
546.39	0.057
546.59	0.058
546.79	0.058
546.98	0.058
547.18	0.057
547.38	0.057
547.58	0.057
547.77	0.057
547.97	0.057
548.17	0.058
548.37	0.058
548.56	0.058
548.76	0.057
548.96	0.058
549.16	0.058
549.35	0.058
549.55	0.058
549.75	0.058
549.95	0.058
550.14	0.058
550.34	0.058
550.54	0.058
550.73	0.058
550.93	0.059
551.13	0.058
551.33	0.059
551.52	0.058
551.72	0.058
551.92	0.058
552.12	0.058
552.31	0.058
552.51	0.058
552.71	0.058
552.90	0.058
553.10	0.057
553.30	0.057
553.50	0.057
553.69	0.058
553.89	0.058
554.09	0.057
554.28	0.057
554.48	0.058
554.68	0.057
554.87	0.057
555.07	0.057
555.27	0.057
555.47	0.057
555.66	0.057
555.86	0.057
556.06	0.057
556.25	0.058
556.45	0.058
556.65	0.058
556.84	0.058
557.04	0.059
557.24	0.059
557.43	0.058
557.63	0.059
557.83	0.059
558.02	0.059
558.22	0.059
558.42	0.059
558.61	0.059
558.81	0.059
559.01	0.059
559.21	0.058
559.40	0.058
559.60	0.059
559.80	0.059
559.99	0.058
560.19	0.058
560.39	0.059
560.58	0.058
560.78	0.058
560.97	0.058
561.17	0.058
561.37	0.058
561.56	0.058
561.76	0.058
561.96	0.058
562.15	0.058
562.35	0.058
562.55	0.058
562.74	0.058
562.94	0.057
563.14	0.058
563.33	0.057
563.53	0.058
563.73	0.058
563.92	0.058
564.12	0.058
564.31	0.058
564.51	0.058
564.71	0.058
564.90	0.058
565.10	0.059
565.30	0.058
565.49	0.059
565.69	0.058
565.89	0.059
566.08	0.059
566.28	0.059
566.47	0.059
566.67	0.059
566.87	0.059
567.06	0.059
567.26	0.060
567.46	0.060
567.65	0.060
567.85	0.060
568.04	0.060
568.24	0.060
568.44	0.060
568.63	0.061
568.83	0.061
569.02	0.061
569.22	0.061
569.42	0.061
569.61	0.061
569.81	0.061
570.00	0.060
570.20	0.060
570.40	0.060
570.59	0.060
570.79	0.060
570.98	0.060
571.18	0.059
571.38	0.059
571.57	0.059
571.77	0.059
571.96	0.059
572.16	0.059
572.35	0.059
572.55	0.060
572.75	0.059
572.94	0.060
573.14	0.060
573.33	0.060
573.53	0.060
573.73	0.059
573.92	0.060
574.12	0.060
574.31	0.060
574.51	0.060
574.70	0.060
574.90	0.060
575.09	0.060
575.29	0.060
575.49	0.060
575.68	0.060
575.88	0.060
576.07	0.060
576.27	0.060
576.46	0.060
576.66	0.060
576.86	0.060
577.05	0.060
577.25	0.060
577.44	0.060
577.64	0.060
577.83	0.060
578.03	0.060
578.22	0.060
578.42	0.060
578.61	0.059
578.81	0.059
579.00	0.060
579.20	0.059
579.40	0.059
579.59	0.059
579.79	0.060
579.98	0.060
580.18	0.059
580.37	0.059
580.57	0.059
580.76	0.059
580.96	0.059
581.15	0.059
581.35	0.059
581.54	0.059
581.74	0.059
581.93	0.059
582.13	0.059
582.32	0.060
582.52	0.059
582.71	0.060
582.91	0.059
583.10	0.060
583.30	0.059
583.49	0.059
583.69	0.060
583.88	0.060
584.08	0.060
584.27	0.060
584.47	0.059
584.66	0.060
584.86	0.059
585.05	0.060
585.25	0.060
585.44	0.060
585.64	0.060
585.83	0.060
586.03	0.060
586.22	0.060
586.42	0.059
586.61	0.060
586.81	0.059
587.00	0.060
587.20	0.060
587.39	0.060
587.59	0.059
587.78	0.059
587.98	0.060
588.17	0.060
588.37	0.060
588.56	0.060
588.76	0.059
588.95	0.059
589.15	0.059
589.34	0.060
589.54	0.059
589.73	0.059
589.92	0.060
590.12	0.059
590.31	0.059
590.51	0.060
590.70	0.060
590.90	0.060
591.09	0.060
591.29	0.060
591.48	0.059
591.68	0.060
591.87	0.060
592.06	0.060
592.26	0.060
592.45	0.060
592.65	0.059
592.84	0.059
593.04	0.059
593.23	0.059
593.43	0.059
593.62	0.060
593.81	0.060
594.01	0.060
594.20	0.060
594.40	0.060
594.59	0.059
594.79	0.060
594.98	0.060
595.17	0.060
595.37	0.060
595.56	0.060
595.76	0.060
595.95	0.060
596.14	0.060
596.34	0.060
596.53	0.060
596.73	0.060
596.92	0.059
597.12	0.060
597.31	0.059
597.50	0.059
597.70	0.059
597.89	0.059
598.09	0.059
598.28	0.058
598.47	0.058
598.67	0.058
598.86	0.058
599.06	0.058
599.25	0.058
599.44	0.058
599.64	0.058
599.83	0.058
600.03	0.058
600.22	0.058
600.41	0.058
600.61	0.058
600.80	0.058
601.00	0.058
601.19	0.057
601.38	0.057
601.58	0.057
601.77	0.058
601.96	0.057
602.16	0.058
602.35	0.057
602.55	0.057
602.74	0.057
602.93	0.058
603.13	0.058
603.32	0.058
603.51	0.058
603.71	0.059
603.90	0.059
604.09	0.059
604.29	0.059
604.48	0.059
604.68	0.059
604.87	0.059
605.06	0.059
605.26	0.059
605.45	0.059
605.64	0.059
605.84	0.059
606.03	0.059
606.22	0.059
606.42	0.059
606.61	0.059
606.80	0.059
607.00	0.059
607.19	0.059
607.38	0.058
607.58	0.059
607.77	0.059
607.96	0.059
608.16	0.058
608.35	0.058
608.54	0.058
608.74	0.058
608.93	0.058
609.12	0.058
609.32	0.058
609.51	0.058
609.70	0.058
609.90	0.058
610.09	0.058
610.28	0.059
610.48	0.059
610.67	0.059
610.86	0.059
611.06	0.059
611.25	0.059
611.44	0.059
611.64	0.059
611.83	0.059
612.02	0.059
612.21	0.059
612.41	0.059
612.60	0.059
612.79	0.059
612.99	0.059
613.18	0.058
613.37	0.058
613.57	0.059
613.76	0.059
613.95	0.059
614.14	0.059
614.34	0.059
614.53	0.059
614.72	0.059
614.92	0.059
615.11	0.059
615.30	0.059
615.49	0.059
615.69	0.059
615.88	0.059
616.07	0.059
616.26	0.059
616.46	0.060
616.65	0.059
616.84	0.060
617.04	0.060
617.23	0.060
617.42	0.060
617.61	0.060
617.81	0.060
618.00	0.060
618.19	0.060
618.38	0.059
618.58	0.059
618.77	0.059
618.96	0.059
619.15	0.059
619.35	0.059
619.54	0.059
619.73	0.059
619.92	0.059
620.12	0.059
620.31	0.059
620.50	0.059
620.69	0.059
620.89	0.059
621.08	0.060
621.27	0.059
621.46	0.060
621.66	0.059
621.85	0.059
622.04	0.059
622.23	0.060
622.43	0.059
622.62	0.060
622.81	0.059
623.00	0.059
623.19	0.059
623.39	0.059
623.58	0.059
623.77	0.059
623.96	0.059
624.16	0.059
624.35	0.059
624.54	0.059
624.73	0.059
624.92	0.059
625.12	0.059
625.31	0.059
625.50	0.058
625.69	0.058
625.88	0.058
626.08	0.058
626.27	0.058
626.46	0.058
626.65	0.058
626.84	0.058
627.04	0.058
627.23	0.058
627.42	0.059
627.61	0.059
627.80	0.058
628.00	0.059
628.19	0.058
628.38	0.058
628.57	0.058
628.76	0.058
628.96	0.058
629.15	0.059
629.34	0.058
629.53	0.058
629.72	0.058
629.91	0.059
630.11	0.059
630.30	0.059
630.49	0.058
630.68	0.059
630.87	0.059
631.06	0.059
631.26	0.059
631.45	0.059
631.64	0.058
631.83	0.059
632.02	0.059
632.21	0.059
632.41	0.059
632.60	0.060
632.79	0.060
632.98	0.060
633.17	0.059
633.36	0.059
633.55	0.060
633.75	0.060
633.94	0.060
634.13	0.061
634.32	0.060
634.51	0.061
634.70	0.060
634.89	0.060
635.09	0.061
635.28	0.060
635.47	0.060
635.66	0.060
635.85	0.059
636.04	0.059
636.23	0.059
636.43	0.059
636.62	0.059
636.81	0.059
637.00	0.058
637.19	0.058
637.38	0.059
637.57	0.059
637.76	0.059
637.95	0.059
638.15	0.059
638.34	0.059
638.53	0.059
638.72	0.059
638.91	0.059
639.10	0.060
639.29	0.059
639.48	0.059
639.67	0.059
639.87	0.059
640.06	0.059
640.25	0.059
640.44	0.059
640.63	0.059
640.82	0.059
641.01	0.059
641.20	0.059
641.39	0.060
641.58	0.059
641.78	0.060
641.97	0.060
642.16	0.060
642.35	0.060
642.54	0.060
642.73	0.060
642.92	0.060
643.11	0.060
643.30	0.060
643.49	0.060
643.68	0.060
643.87	0.059
644.06	0.059
644.25	0.059
644.45	0.059
644.64	0.060
644.83	0.060
645.02	0.060
645.21	0.060
645.40	0.060
645.59	0.061
645.78	0.061
645.97	0.061
646.16	0.061
646.35	0.061
646.54	0.060
646.73	0.060
646.92	0.059
647.11	0.059
647.30	0.059
647.49	0.058
647.68	0.058
647.88	0.057
648.07	0.057
648.26	0.057
648.45	0.057
648.64	0.058
648.83	0.058
649.02	0.058
649.21	0.058
649.40	0.058
649.59	0.057
649.78	0.058
649.97	0.058
650.16	0.058
650.35	0.058
650.54	0.057
650.73	0.057
650.92	0.057
651.11	0.058
651.30	0.058
651.49	0.057
651.68	0.058
651.87	0.057
652.06	0.058
652.25	0.058
652.44	0.059
652.63	0.059
652.82	0.060
653.01	0.060
653.20	0.059
653.39	0.059
653.58	0.060
653.77	0.059
653.96	0.059
654.15	0.058
654.34	0.058
654.53	0.058
654.72	0.058
654.91	0.058
655.10	0.057
655.29	0.057
655.48	0.057
655.67	0.057
655.86	0.058
656.05	0.058
656.24	0.058
656.43	0.057
656.62	0.057
656.81	0.057
657.00	0.057
657.19	0.056
657.38	0.056
657.57	0.056
657.76	0.056
657.95	0.056
658.14	0.056
658.33	0.055
658.51	0.056
658.70	0.056
658.89	0.057
659.08	0.057
659.27	0.057
659.46	0.057
659.65	0.058
659.84	0.058
660.03	0.058
660.22	0.058
660.41	0.058
660.60	0.058
660.79	0.058
660.98	0.058
661.17	0.058
661.36	0.058
661.55	0.058
661.74	0.057
661.92	0.058
662.11	0.058
662.30	0.058
662.49	0.058
662.68	0.058
662.87	0.057
663.06	0.058
663.25	0.058
663.44	0.058
663.63	0.058
663.82	0.058
664.01	0.058
664.20	0.058
664.38	0.057
664.57	0.058
664.76	0.057
664.95	0.057
665.14	0.057
665.33	0.057
665.52	0.057
665.71	0.057
665.90	0.057
666.09	0.057
666.28	0.057
666.46	0.057
666.65	0.057
666.84	0.058
667.03	0.058
667.22	0.058
667.41	0.058
667.60	0.058
667.79	0.058
667.98	0.058
668.16	0.057
668.35	0.057
668.54	0.057
668.73	0.057
668.92	0.056
669.11	0.056
669.30	0.056
669.49	0.056
669.67	0.056
669.86	0.056
670.05	0.056
670.24	0.056
670.43	0.056
670.62	0.056
670.81	0.055
671.00	0.055
671.18	0.055
671.37	0.055
671.56	0.054
671.75	0.054
671.94	0.054
672.13	0.055
672.32	0.055
672.50	0.055
672.69	0.054
672.88	0.054
673.07	0.054
673.26	0.055
673.45	0.054
673.63	0.055
673.82	0.055
674.01	0.054
674.20	0.054
674.39	0.054
674.58	0.054
674.76	0.055
674.95	0.055
675.14	0.055
675.33	0.055
675.52	0.055
675.71	0.054
675.89	0.055
676.08	0.055
676.27	0.055
676.46	0.055
676.65	0.055
676.84	0.054
677.02	0.055
677.21	0.054
677.40	0.054
677.59	0.054
677.78	0.054
677.96	0.054
678.15	0.054
678.34	0.054
678.53	0.054
678.72	0.053
678.90	0.053
679.09	0.053
679.28	0.053
679.47	0.053
679.66	0.053
679.84	0.053
680.03	0.053
680.22	0.053
680.41	0.053
680.60	0.053
680.78	0.053
680.97	0.053
681.16	0.054
681.35	0.054
681.53	0.054
681.72	0.054
681.91	0.054
682.10	0.053
682.29	0.053
682.47	0.053
682.66	0.053
682.85	0.052
683.04	0.051
683.22	0.051
683.41	0.051
683.60	0.051
683.79	0.051
683.97	0.051
684.16	0.051
684.35	0.051
684.54	0.051
684.72	0.051
684.91	0.051
685.10	0.051
685.29	0.051
685.47	0.050
685.66	0.051
685.85	0.050
686.04	0.050
686.22	0.050
686.41	0.050
686.60	0.050
686.79	0.051
686.97	0.051
687.16	0.051
687.35	0.051
687.54	0.051
687.72	0.050
687.91	0.051
688.10	0.051
688.29	0.051
688.47	0.051
688.66	0.051
688.85	0.051
689.03	0.051
689.22	0.051
689.41	0.051
689.60	0.051
689.78	0.051
689.97	0.051
690.16	0.051
690.34	0.051
690.53	0.051
690.72	0.051
690.91	0.051
691.09	0.051
691.28	0.051
691.47	0.051
691.65	0.051
691.84	0.051
692.03	0.051
692.21	0.050
692.40	0.050
692.59	0.050
692.77	0.050
692.96	0.050
693.15	0.051
693.34	0.050
693.52	0.050
693.71	0.049
693.90	0.049
694.08	0.049
694.27	0.049
694.46	0.049
694.64	0.049
694.83	0.048
695.02	0.049
695.20	0.048
695.39	0.049
695.58	0.049
695.76	0.049
695.95	0.049
696.14	0.049
696.32	0.048
696.51	0.048
696.70	0.048
696.88	0.047
697.07	0.047
697.26	0.047
697.44	0.047
697.63	0.047
697.81	0.047
698.00	0.047
698.19	0.047
698.37	0.048
698.56	0.049
698.75	0.048
698.93	0.049
699.12	0.049
699.31	0.049
699.49	0.049
699.68	0.049
699.87	0.049
700.05	0.049
700.24	0.049
700.42	0.049
700.61	0.048
700.80	0.048
700.98	0.048
701.17	0.049
701.36	0.049
701.54	0.049
701.73	0.049
701.91	0.048
702.10	0.048
702.29	0.049
702.47	0.049
702.66	0.049
702.84	0.049
703.03	0.049
703.22	0.048
703.40	0.048
703.59	0.048
703.77	0.048
703.96	0.048
704.15	0.048
704.33	0.048
704.52	0.048
704.70	0.048
704.89	0.047
705.08	0.048
705.26	0.047
705.45	0.048
705.63	0.047
705.82	0.047
706.00	0.047
706.19	0.047
706.38	0.047
706.56	0.047
706.75	0.048
706.93	0.048
707.12	0.047
707.30	0.047
707.49	0.047
707.68	0.047
707.86	0.047
708.05	0.047
708.23	0.047
708.42	0.047
708.60	0.046
708.79	0.046
708.98	0.046
709.16	0.046
709.35	0.046
709.53	0.046
709.72	0.046
709.90	0.047
710.09	0.046
710.27	0.046
710.46	0.046
710.64	0.046
710.83	0.046
711.02	0.047
711.20	0.046
711.39	0.046
711.57	0.046
711.76	0.046
711.94	0.046
712.13	0.046
712.31	0.046
712.50	0.046
712.68	0.046
712.87	0.046
713.05	0.046
713.24	0.047
713.42	0.046
713.61	0.047
713.79	0.046
713.98	0.046
714.16	0.046
714.35	0.047
714.54	0.046
714.72	0.047
714.91	0.046
715.09	0.046
715.28	0.046
715.46	0.046
715.65	0.046
715.83	0.046
716.02	0.046
716.20	0.047
716.39	0.046
716.57	0.046
716.76	0.045
716.94	0.045
717.12	0.046
717.31	0.046
717.49	0.046
717.68	0.045
717.86	0.046
718.05	0.046
718.23	0.045
718.42	0.045
718.60	0.045
718.79	0.045
718.97	0.045
719.16	0.045
719.34	0.045
719.53	0.045
719.71	0.045
719.90	0.045
720.08	0.044
720.27	0.045
720.45	0.044
720.63	0.044
720.82	0.043
721.00	0.043
721.19	0.043
721.37	0.044
721.56	0.043
721.74	0.043
721.93	0.043
722.11	0.043
722.30	0.043
722.48	0.043
722.66	0.043
722.85	0.044
723.03	0.043
723.22	0.043
723.40	0.042
723.59	0.043
723.77	0.042
723.95	0.042
724.14	0.042
724.32	0.042
724.51	0.041
724.69	0.042
724.88	0.042
725.06	0.042
725.24	0.042
725.43	0.043
725.61	0.042
725.80	0.043
725.98	0.043
726.16	0.043
726.35	0.043
726.53	0.044
726.72	0.043
726.90	0.042
727.09	0.042
727.27	0.042
727.45	0.042
727.64	0.042
727.82	0.041
728.01	0.041
728.19	0.041
728.37	0.040
728.56	0.039
728.74	0.040
728.92	0.040
729.11	0.040
729.29	0.040
729.48	0.041
729.66	0.041
729.84	0.041
730.03	0.041
730.21	0.040
730.40	0.040
730.58	0.041
730.76	0.040
730.95	0.040
731.13	0.039
731.31	0.039
731.50	0.038
731.68	0.039
731.86	0.038
732.05	0.038
732.23	0.038
732.42	0.039
732.60	0.037
732.78	0.037
732.97	0.036
733.15	0.036
733.33	0.036
733.52	0.035
733.70	0.035
733.88	0.034
734.07	0.035
734.25	0.035
734.43	0.035
734.62	0.035
734.80	0.035
734.98	0.036
735.17	0.035
735.35	0.036
735.53	0.036
735.72	0.035
735.90	0.034
736.08	0.035
736.27	0.034
736.45	0.035
736.63	0.035
736.82	0.035
737.00	0.035
737.18	0.037
737.37	0.036
737.55	0.036
737.73	0.037
737.92	0.038
738.10	0.040
738.28	0.040
738.46	0.040
738.65	0.040
738.83	0.041
739.01	0.041
739.20	0.041
739.38	0.042
739.56	0.044
739.75	0.046
739.93	0.047
740.11	0.045
740.29	0.045
740.48	0.046
740.66	0.047
740.84	0.048
741.03	0.050
741.21	0.050
741.39	0.052
741.57	0.053
741.76	0.054
741.94	0.054
742.12	0.055
742.31	0.057
742.49	0.058
742.67	0.059
742.85	0.058
743.04	0.060
743.22	0.060
743.40	0.057
743.58	0.058
743.77	0.059
743.95	0.060
744.13	0.058
744.31	0.058
744.50	0.058
744.68	0.058
744.86	0.059
745.04	0.057
745.23	0.057
745.41	0.059
745.59	0.058
745.77	0.059
745.96	0.060
746.14	0.062
746.32	0.065
746.50	0.064
746.69	0.066
746.87	0.068
747.05	0.070
747.23	0.073
747.42	0.076
747.60	0.073
747.78	0.073
747.96	0.068
748.14	0.070
748.33	0.068
748.51	0.068
748.69	0.068
748.87	0.068
749.06	0.068
749.24	0.064
749.42	0.061
749.60	0.062
749.78	0.062
749.97	0.064
750.15	0.066
750.33	0.065
750.51	0.065
750.69	0.063
750.88	0.060
751.06	0.061
751.24	0.060
751.42	0.062
751.60	0.062
751.79	0.060
751.97	0.062
752.15	0.060
752.33	0.060
752.51	0.057
752.69	0.058
752.88	0.060
753.06	0.058
753.24	0.059
753.42	0.057
753.60	0.054
753.78	0.057
753.97	0.054
754.15	0.054
754.33	0.052
754.51	0.055
754.69	0.054
754.87	0.052
755.06	0.053
755.24	0.051
755.42	0.052
755.60	0.054
755.78	0.051
755.96	0.050
756.15	0.049
756.33	0.048
756.51	0.046
756.69	0.046
756.87	0.047
757.05	0.046
757.23	0.047
757.42	0.046
757.60	0.046
757.78	0.047
757.96	0.047
758.14	0.047
758.32	0.047
758.50	0.047
758.69	0.047
758.87	0.047
759.05	0.047
759.23	0.047
759.41	0.047
759.59	0.048
759.77	0.048
759.95	0.049
760.13	0.047
760.32	0.046
760.50	0.047
760.68	0.046
760.86	0.046
761.04	0.046
761.22	0.047
761.40	0.045
761.58	0.042
761.76	0.041
761.95	0.040
762.13	0.041
762.31	0.043
762.49	0.042
762.67	0.041
762.85	0.040
763.03	0.040
763.21	0.040
763.39	0.041
763.57	0.042
763.75	0.043
763.94	0.043
764.12	0.042
764.30	0.040
764.48	0.041
764.66	0.042
764.84	0.041
765.02	0.039
765.20	0.040
765.38	0.041
765.56	0.041
765.74	0.039
765.92	0.039
766.10	0.040
766.28	0.041
766.46	0.041
766.65	0.040
766.83	0.041
767.01	0.043
767.19	0.041
767.37	0.042
767.55	0.042
767.73	0.042
767.91	0.043
768.09	0.044
768.27	0.043
768.45	0.044
768.63	0.043
768.81	0.043
768.99	0.043
769.17	0.043
769.35	0.041
769.53	0.041
769.71	0.042
769.89	0.041
770.07	0.041
770.25	0.043
770.43	0.045
770.61	0.045
770.79	0.044
770.97	0.045
771.15	0.046
771.33	0.047
771.51	0.048
771.69	0.049
771.87	0.049
772.05	0.049
772.24	0.048
772.42	0.046
772.60	0.047
772.78	0.047
772.96	0.046
773.14	0.048
773.32	0.048
773.49	0.047
773.67	0.047
773.85	0.047
774.03	0.048
774.21	0.047
774.39	0.049
774.57	0.049
774.75	0.049
774.93	0.050
775.11	0.048
775.29	0.048
775.47	0.047
775.65	0.047
775.83	0.047
776.01	0.047
776.19	0.049
776.37	0.048
776.55	0.048
776.73	0.048
776.91	0.048
777.09	0.048
777.27	0.050
777.45	0.051
777.63	0.052
777.81	0.052
777.99	0.051
778.17	0.051
778.35	0.052
778.53	0.052
778.71	0.052
778.89	0.052
779.07	0.052
779.24	0.052
779.42	0.050
779.60	0.049
779.78	0.046
779.96	0.045
780.14	0.044
780.32	0.042
780.50	0.041
780.68	0.041
780.86	0.041
781.04	0.040
781.22	0.038
781.40	0.038
781.58	0.039
781.75	0.040
781.93	0.041
782.11	0.040
782.29	0.039
782.47	0.040
782.65	0.040
782.83	0.041
783.01	0.041
783.19	0.042
783.37	0.042
783.55	0.042
783.72	0.042
783.90	0.041
784.08	0.041
784.26	0.043
784.44	0.042
784.62	0.042
784.80	0.042
784.98	0.042
785.16	0.043
785.33	0.043
785.51	0.044
785.69	0.045
785.87	0.046
786.05	0.046
786.23	0.044
786.41	0.045
786.59	0.043
786.77	0.043
786.94	0.042
787.12	0.041
787.30	0.039
787.48	0.037
787.66	0.037
787.84	0.036
788.02	0.037
788.19	0.038
788.37	0.038
788.55	0.038
788.73	0.038
788.91	0.039
789.09	0.039
789.27	0.041
789.44	0.041
789.62	0.042
789.80	0.041
789.98	0.040
790.16	0.039
790.34	0.039
790.51	0.039
790.69	0.040
790.87	0.040
791.05	0.041
791.23	0.041
791.41	0.041
791.58	0.040
791.76	0.042
791.94	0.041
792.12	0.041
792.30	0.040
792.48	0.040
792.65	0.038
792.83	0.038
793.01	0.037
793.19	0.037
793.37	0.036
793.54	0.036
793.72	0.034
793.90	0.035
794.08	0.035
794.26	0.036
794.43	0.037
794.61	0.038
794.79	0.038
794.97	0.038
795.15	0.038
795.32	0.039
795.50	0.039
795.68	0.041
795.86	0.041
796.04	0.042
796.21	0.041
796.39	0.041
796.57	0.039
796.75	0.040
796.92	0.040
797.10	0.040
797.28	0.040
797.46	0.040
797.64	0.039
797.81	0.040
797.99	0.038
798.17	0.039
798.35	0.038
798.52	0.039
798.70	0.039
798.88	0.039
799.06	0.039
799.23	0.038
799.41	0.038
799.59	0.038
799.77	0.038
799.94	0.038
800.12	0.038
800.30	0.038
800.48	0.038
800.65	0.038
800.83	0.038
801.01	0.039
801.19	0.039
801.36	0.039
801.54	0.039
801.72	0.040
801.90	0.040
802.07	0.040
802.25	0.040
802.43	0.041
802.60	0.040
802.78	0.041
802.96	0.041
803.14	0.043
803.31	0.044
803.49	0.044
803.67	0.043
803.84	0.043
804.02	0.043
804.20	0.043
804.38	0.043
804.55	0.044
804.73	0.044
804.91	0.044
805.08	0.042
805.26	0.042
805.44	0.041
805.61	0.041
805.79	0.041
805.97	0.041
806.15	0.041
806.32	0.041
806.50	0.041
806.68	0.040
806.85	0.039
807.03	0.040
807.21	0.039
807.38	0.040
807.56	0.039
807.74	0.039
807.91	0.040
808.09	0.041
808.27	0.040
808.44	0.039
808.62	0.040
808.80	0.041
808.97	0.040
809.15	0.042
809.33	0.040
809.50	0.042
809.68	0.043
809.86	0.043
810.03	0.041
810.21	0.042
810.39	0.042
810.56	0.042
810.74	0.041
810.91	0.041
811.09	0.041
811.27	0.042
811.44	0.042
811.62	0.043
811.80	0.042
811.97	0.043
812.15	0.043
812.33	0.043
812.50	0.043
812.68	0.044
812.85	0.043
813.03	0.044
813.21	0.044
813.38	0.044
813.56	0.043
813.74	0.043
813.91	0.042
814.09	0.041
814.26	0.042
814.44	0.043
814.62	0.042
814.79	0.043
814.97	0.042
815.14	0.043
815.32	0.040
815.50	0.040
815.67	0.042
815.85	0.043
816.02	0.043
816.20	0.043
816.38	0.043
816.55	0.044
816.73	0.042
816.90	0.042
817.08	0.040
817.26	0.043
817.43	0.044
817.61	0.042
817.78	0.041
817.96	0.043
818.13	0.043
818.31	0.043
818.49	0.042
818.66	0.045
818.84	0.046
819.01	0.048
819.19	0.048
819.36	0.049
819.54	0.052
819.71	0.053
819.89	0.052
820.07	0.053
820.24	0.052
820.42	0.054
820.59	0.053
820.77	0.054
820.94	0.054
821.12	0.055
821.29	0.054
821.47	0.054
821.64	0.057
821.82	0.058
822.00	0.059
822.17	0.061
822.35	0.062
822.52	0.064
822.70	0.066
822.87	0.067
823.05	0.070
823.22	0.072
823.40	0.073
823.57	0.073
823.75	0.074
823.92	0.077
824.10	0.078
824.27	0.078
824.45	0.080
824.62	0.079
824.80	0.079
824.97	0.080
825.15	0.079
825.32	0.079
825.50	0.081
825.67	0.081
825.85	0.080
826.02	0.082
826.20	0.082
826.37	0.079
826.55	0.084
826.72	0.083
826.90	0.085
827.07	0.086
827.25	0.090
827.42	0.093
827.60	0.095
827.77	0.098
827.95	0.102
828.12	0.108
828.30	0.118
828.47	0.117
828.65	0.124
828.82	0.133
829.00	0.139
829.17	0.145
829.34	0.148
829.52	0.154
829.69	0.155
829.87	0.161
830.04	0.163
830.22	0.165
830.39	0.172
830.57	0.182
830.74	0.183
830.92	0.187
831.09	0.179
831.26	0.192
831.44	0.195
831.61	0.212
831.79	0.211
831.96	0.215
832.14	0.234
832.31	0.233
832.49	0.234
832.66	0.241
832.83	0.265
833.01	0.291
833.18	0.312
833.36	0.314
833.53	0.310
833.70	0.314
833.88	0.334
834.05	0.315
834.23	0.345
834.40	0.348
834.58	0.340
834.75	0.322
834.92	0.312
835.10	0.302
835.27	0.321
835.45	0.334
835.62	0.349
835.79	0.342
835.97	0.355
836.14	0.360
836.32	0.373
836.49	0.416
836.66	0.413
836.84	0.411
837.01	0.402
837.18	0.396
837.36	0.422
837.53	0.420
837.71	0.453
837.88	0.473
838.05	0.434
838.23	0.439
838.40	0.432
838.58	0.451
838.75	0.471
838.92	0.506
839.10	0.525
839.27	0.509
839.44	0.530
839.62	0.506
839.79	0.480
839.96	0.504
840.14	0.483
840.31	0.490
840.48	0.536
840.66	0.564
840.83	0.530
841.01	0.546
841.18	0.600
841.35	0.553
841.53	0.589
841.70	0.588
841.87	0.621
842.05	0.674
842.22	0.640
842.39	0.579
842.57	0.618
842.74	0.629
842.91	0.600
843.09	0.549
843.26	0.554
843.43	0.572
843.60	0.604
843.78	0.583
843.95	0.588
844.12	0.657
844.30	0.672
844.47	0.665
844.64	0.694
844.82	0.741
844.99	0.742
845.16	0.774
845.34	0.855
845.51	0.871
845.68	0.903
845.85	0.858
846.03	0.791
846.20	0.921
846.37	1.008
846.55	0.978
846.72	0.931
846.89	0.996
847.06	1.011
847.24	1.024
847.41	0.964
847.58	1.003
847.76	1.035
847.93	0.923
848.10	0.887
848.27	0.842
848.45	1.081
848.62	1.072
848.79	1.322
848.97	-0.000
849.14	1.224
849.31	1.521
849.48	-0.000
849.66	-0.000
849.83	-0.000
850.00	-0.000
850.17	1.678
850.35	1.127
850.52	1.271
850.69	1.118
850.86	0.916
851.04	0.948
851.21	1.121
851.38	0.915
851.55	0.945
851.72	0.945
851.90	1.049
852.07	1.103
852.24	1.564
852.41	1.181
852.59	1.087
852.76	1.071
852.93	1.128
853.10	0.871
853.28	1.078
853.45	0.884
853.62	0.977
853.79	0.966
853.96	1.212
854.14	1.061
854.31	1.592
854.48	2.104
854.65	2.355
854.82	-0.000
855.00	-0.000
855.17	-0.000
855.34	-0.000
855.51	-0.000
855.68	-0.000
855.86	-0.000
856.03	-0.000
856.20	-0.000
856.37	-0.000
856.54	-0.000
856.72	-0.000
856.89	-0.000
857.06	-0.000
857.23	-0.000
857.40	-0.000
857.57	-0.000
857.75	-0.000
857.92	-0.000
858.09	-0.000
858.26	-0.000
858.43	-0.000
858.60	-0.000
858.78	-0.000
858.95	-0.000
859.12	-0.000
859.29	-0.000
859.46	-0.000
859.63	-0.000
859.81	-0.000
859.98	-0.000
860.15	-0.000
860.32	-0.000
860.49	-0.000
860.66	-0.000
860.83	-0.000
861.01	-0.000
861.18	-0.000
861.35	-0.000
861.52	-0.000
861.69	-0.000
861.86	-0.000
862.03	-0.000
862.21	-0.000
862.38	-0.000
862.55	-0.000
862.72	-0.000
862.89	-0.000
863.06	-0.000
863.23	-0.000
863.40	-0.000
863.58	-0.000
863.75	-0.000
863.92	-0.000
864.09	-0.000
864.26	-0.000
864.43	-0.000
864.60	-0.000
864.77	-0.000
864.94	-0.000
865.11	-0.000
865.29	-0.000
865.46	-0.000
865.63	-0.000
865.80	-0.000
865.97	-0.000
866.14	-0.000
866.31	-0.000
866.48	-0.000
866.65	-0.000
866.82	-0.000
866.99	-0.000
867.16	-0.000
867.34	-0.000
867.51	-0.000
867.68	-0.000
867.85	-0.000
868.02	-0.000
868.19	-0.000
868.36	-0.000
868.53	-0.000
868.70	-0.000
868.87	-0.000
869.04	-0.000
869.21	-0.000
869.38	-0.000
869.55	-0.000
869.72	-0.000
869.89	-0.000
870.06	-0.000
870.24	-0.000
870.41	-0.000
870.58	-0.000
870.75	-0.000
870.92	-0.000
871.09	-0.000
871.26	-0.000
871.43	-0.000
871.60	-0.000
871.77	-0.000
871.94	-0.000
872.11	-0.000
872.28	-0.000
872.45	-0.000
872.62	-0.000
872.79	-0.000
872.96	-0.000
873.13	-0.000
873.30	-0.000
873.47	-0.000
873.64	-0.000
873.81	-0.000
873.98	-0.000
874.15	-0.000
874.32	-0.000
874.49	-0.000
874.66	-0.000
874.83	-0.000
875.00	-0.000
875.17	-0.000
875.34	-0.000
875.51	-0.000
875.68	-0.000
875.85	-0.000
876.02	-0.000
876.19	-0.000
876.36	-0.000
876.53	-0.000
876.70	-0.000
876.87	-0.000
877.04	-0.000
877.21	-0.000
877.38	-0.000
877.55	-0.000
877.72	-0.000
877.89	-0.000
878.06	-0.000
878.23	-0.000
878.39	-0.000
878.56	-0.000
878.73	-0.000
878.90	-0.000
879.07	-0.000
879.24	-0.000
879.41	-0.000
879.58	-0.000
879.75	-0.000
879.92	-0.000
880.09	-0.000
880.26	-0.000
880.43	-0.000
880.60	-0.000
880.77	-0.000
880.94	-0.000
881.11	-0.000
881.27	-0.000
881.44	-0.000
881.61	-0.000
881.78	-0.000
881.95	-0.000
882.12	-0.000
882.29	-0.000
882.46	-0.000
882.63	-0.000
882.80	-0.000
882.97	-0.000
883.14	-0.000
883.30	-0.000
883.47	-0.000
883.64	-0.000
883.81	-0.000
883.98	-0.000
884.15	-0.000
884.32	-0.000
884.49	-0.000
884.66	-0.000
884.82	-0.000
884.99	-0.000
885.16	-0.000
885.33	-0.000
885.50	-0.000
885.67	-0.000
885.84	-0.000
886.01	-0.000
886.17	-0.000
886.34	-0.000
886.51	-0.000
886.68	-0.000
886.85	-0.000
887.02	-0.000
887.19	-0.000
887.36	-0.000
887.52	-0.000
887.69	-0.000
887.86	-0.000
888.03	-0.000
888.20	-0.000
888.37	-0.000
888.54	-0.000
888.70	-0.000
888.87	-0.000
889.04	-0.000
889.21	-0.000
889.38	-0.000
889.55	-0.000
889.71	-0.000
889.88	-0.000
890.05	-0.000
890.22	-0.000
890.39	-0.000
>>>>>End Processed Spectral Data<<<<<
