SpectraSuite Data File
++++++++++++++++++++++++++++++++++++
Date: Fri Jun 19 15:33:47 CEST 2015
User: introlabs
Dark Spectrum Present: Yes
Reference Spectrum Present: Yes
Number of Sampled Component Spectra: 1
Spectrometers: USB4H08886
Integration Time (usec): 745692 (USB4H08886)
Spectra Averaged: 5 (USB4H08886)
Boxcar Smoothing: 5 (USB4H08886)
Correct for Electrical Dark: Yes (USB4H08886)
Strobe/Lamp Enabled: No (USB4H08886)
Correct for Detector Non-linearity: Yes (USB4H08886)
Correct for Stray Light: Yes (USB4H08886)
Number of Pixels in Processed Spectrum: 3648
>>>>>Begin Processed Spectral Data<<<<<
178.14	-0.000
178.36	-0.000
178.57	-0.000
178.79	-0.000
179.01	-0.000
179.22	-0.000
179.44	-0.000
179.65	-0.000
179.87	-0.000
180.08	-0.000
180.30	-0.000
180.52	-0.000
180.73	-0.000
180.95	-0.000
181.16	-0.000
181.38	-0.000
181.59	-0.000
181.81	-0.000
182.03	-0.000
182.24	-0.000
182.46	-0.000
182.67	-0.000
182.89	-0.000
183.10	-0.000
183.32	-0.000
183.54	-0.000
183.75	-0.000
183.97	-0.000
184.18	-0.000
184.40	-0.000
184.61	-0.000
184.83	-0.000
185.04	-0.000
185.26	-0.000
185.48	-0.000
185.69	-0.000
185.91	-0.000
186.12	-0.000
186.34	-0.000
186.55	-0.000
186.77	-0.000
186.98	-0.000
187.20	-0.000
187.42	-0.000
187.63	-0.000
187.85	-0.000
188.06	-0.000
188.28	-0.000
188.49	-0.000
188.71	-0.000
188.92	-0.000
189.14	-0.000
189.36	-0.000
189.57	-0.000
189.79	-0.000
190.00	-0.000
190.22	-0.000
190.43	-0.000
190.65	-0.000
190.86	-0.000
191.08	-0.000
191.29	-0.000
191.51	-0.000
191.72	-0.000
191.94	-0.000
192.16	-0.000
192.37	-0.000
192.59	-0.000
192.80	-0.000
193.02	-0.000
193.23	-0.000
193.45	-0.000
193.66	-0.000
193.88	-0.000
194.09	-0.000
194.31	-0.000
194.52	-0.000
194.74	-0.000
194.95	-0.000
195.17	-0.000
195.38	-0.000
195.60	-0.000
195.81	-0.000
196.03	-0.000
196.25	-0.000
196.46	-0.000
196.68	-0.000
196.89	-0.000
197.11	-0.000
197.32	-0.000
197.54	-0.000
197.75	-0.000
197.97	-0.000
198.18	-0.000
198.40	-0.000
198.61	-0.000
198.83	-0.000
199.04	-0.000
199.26	-0.000
199.47	-0.000
199.69	-0.000
199.90	-0.000
200.12	-0.000
200.33	-0.000
200.55	-0.000
200.76	-0.000
200.98	-0.000
201.19	-0.000
201.41	-0.000
201.62	-0.000
201.84	-0.000
202.05	-0.000
202.27	-0.000
202.48	-0.000
202.70	-0.000
202.91	-0.000
203.13	-0.000
203.34	-0.000
203.56	-0.000
203.77	-0.000
203.99	-0.000
204.20	-0.000
204.42	-0.000
204.63	-0.000
204.85	-0.000
205.06	-0.000
205.28	-0.000
205.49	-0.000
205.71	-0.000
205.92	-0.000
206.14	-0.000
206.35	-0.000
206.56	-0.000
206.78	-0.000
206.99	-0.000
207.21	-0.000
207.42	-0.000
207.64	-0.000
207.85	-0.000
208.07	-0.000
208.28	-0.000
208.50	-0.000
208.71	-0.000
208.93	-0.000
209.14	-0.000
209.36	-0.000
209.57	-0.000
209.79	-0.000
210.00	-0.000
210.22	-0.000
210.43	-0.000
210.64	-0.000
210.86	-0.000
211.07	-0.000
211.29	-0.000
211.50	-0.000
211.72	-0.000
211.93	-0.000
212.15	-0.000
212.36	-0.000
212.58	-0.000
212.79	-0.000
213.01	-0.000
213.22	-0.000
213.43	-0.000
213.65	-0.000
213.86	-0.000
214.08	-0.000
214.29	-0.000
214.51	-0.000
214.72	-0.000
214.94	-0.000
215.15	-0.000
215.36	-0.000
215.58	-0.000
215.79	-0.000
216.01	-0.000
216.22	-0.000
216.44	-0.000
216.65	-0.000
216.87	-0.000
217.08	-0.000
217.29	-0.000
217.51	-0.000
217.72	-0.000
217.94	-0.000
218.15	-0.000
218.37	-0.000
218.58	-0.000
218.80	-0.000
219.01	-0.000
219.22	-0.000
219.44	-0.000
219.65	-0.000
219.87	-0.000
220.08	-0.000
220.30	-0.000
220.51	-0.000
220.72	-0.000
220.94	-0.000
221.15	-0.000
221.37	-0.000
221.58	-0.000
221.79	-0.000
222.01	-0.000
222.22	-0.000
222.44	-0.000
222.65	-0.000
222.87	-0.000
223.08	-0.000
223.29	-0.000
223.51	-0.000
223.72	-0.000
223.94	-0.000
224.15	-0.000
224.36	-0.000
224.58	-0.000
224.79	-0.000
225.01	-0.000
225.22	-0.000
225.44	-0.000
225.65	-0.000
225.86	-0.000
226.08	-0.000
226.29	-0.000
226.51	-0.000
226.72	-0.000
226.93	-0.000
227.15	-0.000
227.36	-0.000
227.58	-0.000
227.79	-0.000
228.00	-0.000
228.22	-0.000
228.43	-0.000
228.65	-0.000
228.86	-0.000
229.07	-0.000
229.29	-0.000
229.50	-0.000
229.72	-0.000
229.93	-0.000
230.14	-0.000
230.36	-0.000
230.57	-0.000
230.78	-0.000
231.00	-0.000
231.21	-0.000
231.43	-0.000
231.64	-0.000
231.85	-0.000
232.07	-0.000
232.28	-0.000
232.50	-0.000
232.71	-0.000
232.92	-0.000
233.14	-0.000
233.35	-0.000
233.56	-0.000
233.78	-0.000
233.99	-0.000
234.21	-0.000
234.42	-0.000
234.63	-0.000
234.85	-0.000
235.06	-0.000
235.27	-0.000
235.49	-0.000
235.70	-0.000
235.91	-0.000
236.13	-0.000
236.34	-0.000
236.56	-0.000
236.77	-0.000
236.98	-0.000
237.20	-0.000
237.41	-0.000
237.62	-0.000
237.84	-0.000
238.05	-0.000
238.26	-0.000
238.48	-0.000
238.69	-0.000
238.91	-0.000
239.12	-0.000
239.33	-0.000
239.55	-0.000
239.76	-0.000
239.97	-0.000
240.19	-0.000
240.40	-0.000
240.61	-0.000
240.83	-0.000
241.04	-0.000
241.25	-0.000
241.47	-0.000
241.68	-0.000
241.89	-0.000
242.11	-0.000
242.32	-0.000
242.53	-0.000
242.75	-0.000
242.96	-0.000
243.17	-0.000
243.39	-0.000
243.60	-0.000
243.81	-0.000
244.03	-0.000
244.24	-0.000
244.45	-0.000
244.67	-0.000
244.88	-0.000
245.09	-0.000
245.31	-0.000
245.52	-0.000
245.73	-0.000
245.95	-0.000
246.16	-0.000
246.37	-0.000
246.59	-0.000
246.80	-0.000
247.01	-0.000
247.23	-0.000
247.44	-0.000
247.65	-0.000
247.87	-0.000
248.08	-0.000
248.29	-0.000
248.51	-0.000
248.72	-0.000
248.93	-0.000
249.15	-0.000
249.36	-0.000
249.57	-0.000
249.78	-0.000
250.00	-0.000
250.21	-0.000
250.42	-0.000
250.64	-0.000
250.85	-0.000
251.06	-0.000
251.28	-0.000
251.49	-0.000
251.70	-0.000
251.92	-0.000
252.13	-0.000
252.34	-0.000
252.55	-0.000
252.77	-0.000
252.98	-0.000
253.19	-0.000
253.41	-0.000
253.62	-0.000
253.83	-0.000
254.05	-0.000
254.26	-0.000
254.47	-0.000
254.68	-0.000
254.90	-0.000
255.11	-0.000
255.32	-0.000
255.54	-0.000
255.75	-0.000
255.96	-0.000
256.17	-0.000
256.39	-0.000
256.60	-0.000
256.81	-0.000
257.03	-0.000
257.24	-0.000
257.45	-0.000
257.66	-0.000
257.88	-0.000
258.09	-0.000
258.30	-0.000
258.51	-0.000
258.73	-0.000
258.94	-0.000
259.15	-0.000
259.37	-0.000
259.58	-0.000
259.79	-0.000
260.00	-0.000
260.22	-0.000
260.43	-0.000
260.64	-0.000
260.85	-0.000
261.07	-0.000
261.28	-0.000
261.49	-0.000
261.71	-0.000
261.92	-0.000
262.13	-0.000
262.34	-0.000
262.56	-0.000
262.77	-0.000
262.98	-0.000
263.19	-0.000
263.41	-0.000
263.62	-0.000
263.83	-0.000
264.04	-0.000
264.26	-0.000
264.47	-0.000
264.68	-0.000
264.89	-0.000
265.11	-0.000
265.32	-0.000
265.53	-0.000
265.74	-0.000
265.96	-0.000
266.17	-0.000
266.38	-0.000
266.59	-0.000
266.81	-0.000
267.02	-0.000
267.23	-0.000
267.44	-0.000
267.65	-0.000
267.87	-0.000
268.08	-0.000
268.29	-0.000
268.50	-0.000
268.72	-0.000
268.93	-0.000
269.14	-0.000
269.35	-0.000
269.57	-0.000
269.78	-0.000
269.99	-0.000
270.20	-0.000
270.41	-0.000
270.63	-0.000
270.84	-0.000
271.05	-0.000
271.26	-0.000
271.48	-0.000
271.69	-0.000
271.90	-0.000
272.11	-0.000
272.32	-0.000
272.54	-0.000
272.75	-0.000
272.96	-0.000
273.17	-0.000
273.39	-0.000
273.60	-0.000
273.81	-0.000
274.02	-0.000
274.23	-0.000
274.45	-0.000
274.66	-0.000
274.87	-0.000
275.08	-0.000
275.29	-0.000
275.51	-0.000
275.72	-0.000
275.93	-0.000
276.14	-0.000
276.35	-0.000
276.57	-0.000
276.78	-0.000
276.99	-0.000
277.20	-0.000
277.41	-0.000
277.63	-0.000
277.84	-0.000
278.05	-0.000
278.26	-0.000
278.47	-0.000
278.69	-0.000
278.90	-0.000
279.11	-0.000
279.32	-0.000
279.53	-0.000
279.74	-0.000
279.96	-0.000
280.17	-0.000
280.38	-0.000
280.59	-0.000
280.80	-0.000
281.02	-0.000
281.23	-0.000
281.44	-0.000
281.65	-0.000
281.86	-0.000
282.07	-0.000
282.29	-0.000
282.50	-0.000
282.71	-0.000
282.92	-0.000
283.13	-0.000
283.35	-0.000
283.56	-0.000
283.77	-0.000
283.98	-0.000
284.19	-0.000
284.40	-0.000
284.62	-0.000
284.83	-0.000
285.04	-0.000
285.25	-0.000
285.46	-0.000
285.67	-0.000
285.88	-0.000
286.10	-0.000
286.31	-0.000
286.52	-0.000
286.73	-0.000
286.94	-0.000
287.15	-0.000
287.37	-0.000
287.58	-0.000
287.79	-0.000
288.00	-0.000
288.21	-0.000
288.42	-0.000
288.63	-0.000
288.85	-0.000
289.06	-0.000
289.27	-0.000
289.48	-0.000
289.69	-0.000
289.90	-0.000
290.11	-0.000
290.33	-0.000
290.54	-0.000
290.75	-0.000
290.96	-0.000
291.17	-0.000
291.38	-0.000
291.59	-0.000
291.81	-0.000
292.02	-0.000
292.23	-0.000
292.44	-0.000
292.65	-0.000
292.86	-0.000
293.07	-0.000
293.28	-0.000
293.50	-0.000
293.71	-0.000
293.92	-0.000
294.13	-0.000
294.34	-0.000
294.55	-0.000
294.76	-0.000
294.97	-0.000
295.19	-0.000
295.40	-0.000
295.61	-0.000
295.82	-0.000
296.03	-0.000
296.24	-0.000
296.45	2.104
296.66	1.769
296.87	1.791
297.09	1.859
297.30	2.052
297.51	1.703
297.72	1.665
297.93	1.743
298.14	1.709
298.35	1.672
298.56	1.646
298.77	1.753
298.99	1.731
299.20	1.710
299.41	1.688
299.62	1.634
299.83	1.627
300.04	1.580
300.25	1.565
300.46	1.594
300.67	1.571
300.88	1.531
301.10	1.524
301.31	1.586
301.52	1.526
301.73	1.478
301.94	1.490
302.15	1.499
302.36	1.452
302.57	1.401
302.78	1.406
302.99	1.442
303.20	1.462
303.41	1.384
303.63	1.366
303.84	1.372
304.05	1.372
304.26	1.312
304.47	1.319
304.68	1.320
304.89	1.313
305.10	1.278
305.31	1.264
305.52	1.302
305.73	1.297
305.94	1.262
306.15	1.256
306.37	1.273
306.58	1.279
306.79	1.251
307.00	1.275
307.21	1.311
307.42	1.305
307.63	1.273
307.84	1.242
308.05	1.275
308.26	1.276
308.47	1.255
308.68	1.250
308.89	1.249
309.10	1.248
309.31	1.209
309.52	1.198
309.73	1.209
309.95	1.206
310.16	1.180
310.37	1.169
310.58	1.183
310.79	1.181
311.00	1.183
311.21	1.184
311.42	1.182
311.63	1.177
311.84	1.161
312.05	1.161
312.26	1.178
312.47	1.190
312.68	1.169
312.89	1.156
313.10	1.160
313.31	1.132
313.52	1.136
313.73	1.138
313.94	1.139
314.15	1.122
314.36	1.102
314.57	1.098
314.78	1.083
314.99	1.078
315.21	1.066
315.42	1.073
315.63	1.084
315.84	1.061
316.05	1.049
316.26	1.059
316.47	1.077
316.68	1.074
316.89	1.055
317.10	1.075
317.31	1.080
317.52	1.082
317.73	1.060
317.94	1.058
318.15	1.097
318.36	1.097
318.57	1.080
318.78	1.066
318.99	1.098
319.20	1.096
319.41	1.064
319.62	1.066
319.83	1.077
320.04	1.072
320.25	1.063
320.46	1.031
320.67	1.033
320.88	1.029
321.09	1.018
321.30	1.005
321.51	1.019
321.72	1.018
321.93	1.002
322.14	0.995
322.35	1.021
322.56	1.023
322.77	1.013
322.98	1.024
323.19	1.033
323.40	1.038
323.61	1.016
323.82	1.010
324.03	1.015
324.24	1.015
324.45	1.002
324.66	0.983
324.87	0.977
325.08	0.976
325.29	0.959
325.50	0.950
325.71	0.955
325.92	0.964
326.13	0.952
326.34	0.952
326.55	0.957
326.76	0.957
326.97	0.949
327.18	0.944
327.39	0.968
327.60	0.967
327.80	0.968
328.01	0.966
328.22	0.964
328.43	0.967
328.64	0.957
328.85	0.960
329.06	0.962
329.27	0.961
329.48	0.958
329.69	0.938
329.90	0.949
330.11	0.944
330.32	0.938
330.53	0.933
330.74	0.932
330.95	0.930
331.16	0.918
331.37	0.926
331.58	0.925
331.79	0.924
332.00	0.918
332.21	0.911
332.42	0.914
332.63	0.907
332.83	0.901
333.04	0.904
333.25	0.914
333.46	0.912
333.67	0.898
333.88	0.901
334.09	0.911
334.30	0.909
334.51	0.900
334.72	0.895
334.93	0.897
335.14	0.897
335.35	0.891
335.56	0.886
335.77	0.894
335.98	0.893
336.18	0.887
336.39	0.879
336.60	0.882
336.81	0.881
337.02	0.880
337.23	0.884
337.44	0.887
337.65	0.888
337.86	0.880
338.07	0.874
338.28	0.878
338.49	0.876
338.70	0.870
338.91	0.876
339.11	0.881
339.32	0.878
339.53	0.867
339.74	0.864
339.95	0.859
340.16	0.858
340.37	0.852
340.58	0.850
340.79	0.852
341.00	0.851
341.21	0.842
341.41	0.842
341.62	0.842
341.83	0.843
342.04	0.839
342.25	0.850
342.46	0.853
342.67	0.851
342.88	0.846
343.09	0.845
343.30	0.852
343.50	0.855
343.71	0.847
343.92	0.846
344.13	0.850
344.34	0.849
344.55	0.834
344.76	0.834
344.97	0.838
345.18	0.837
345.38	0.834
345.59	0.830
345.80	0.828
346.01	0.826
346.22	0.822
346.43	0.816
346.64	0.824
346.85	0.823
347.06	0.816
347.26	0.816
347.47	0.819
347.68	0.814
347.89	0.811
348.10	0.806
348.31	0.811
348.52	0.809
348.73	0.808
348.93	0.805
349.14	0.807
349.35	0.807
349.56	0.802
349.77	0.798
349.98	0.803
350.19	0.800
350.39	0.797
350.60	0.793
350.81	0.808
351.02	0.807
351.23	0.802
351.44	0.804
351.65	0.805
351.86	0.802
352.06	0.801
352.27	0.800
352.48	0.802
352.69	0.800
352.90	0.796
353.11	0.783
353.31	0.791
353.52	0.787
353.73	0.780
353.94	0.783
354.15	0.788
354.36	0.787
354.57	0.780
354.77	0.782
354.98	0.782
355.19	0.781
355.40	0.781
355.61	0.786
355.82	0.789
356.02	0.789
356.23	0.781
356.44	0.783
356.65	0.786
356.86	0.786
357.07	0.781
357.27	0.784
357.48	0.785
357.69	0.780
357.90	0.766
358.11	0.763
358.32	0.766
358.52	0.769
358.73	0.761
358.94	0.762
359.15	0.766
359.36	0.766
359.56	0.761
359.77	0.759
359.98	0.766
360.19	0.765
360.40	0.762
360.61	0.763
360.81	0.761
361.02	0.761
361.23	0.754
361.44	0.752
361.65	0.753
361.85	0.753
362.06	0.752
362.27	0.753
362.48	0.752
362.69	0.754
362.89	0.749
363.10	0.750
363.31	0.754
363.52	0.757
363.73	0.752
363.93	0.752
364.14	0.754
364.35	0.756
364.56	0.746
364.77	0.748
364.97	0.749
365.18	0.750
365.39	0.745
365.60	0.741
365.81	0.742
366.01	0.741
366.22	0.737
366.43	0.737
366.64	0.738
366.84	0.743
367.05	0.740
367.26	0.740
367.47	0.741
367.68	0.742
367.88	0.740
368.09	0.738
368.30	0.740
368.51	0.741
368.71	0.739
368.92	0.744
369.13	0.741
369.34	0.742
369.55	0.741
369.75	0.741
369.96	0.747
370.17	0.747
370.38	0.745
370.58	0.744
370.79	0.748
371.00	0.747
371.21	0.739
371.41	0.744
371.62	0.747
371.83	0.743
372.04	0.742
372.24	0.735
372.45	0.735
372.66	0.736
372.87	0.733
373.07	0.730
373.28	0.731
373.49	0.735
373.70	0.726
373.90	0.725
374.11	0.733
374.32	0.732
374.53	0.732
374.73	0.732
374.94	0.734
375.15	0.734
375.36	0.732
375.56	0.741
375.77	0.740
375.98	0.740
376.19	0.738
376.39	0.732
376.60	0.735
376.81	0.735
377.02	0.733
377.22	0.731
377.43	0.731
377.64	0.731
377.84	0.723
378.05	0.728
378.26	0.734
378.47	0.733
378.67	0.731
378.88	0.728
379.09	0.728
379.30	0.729
379.50	0.727
379.71	0.730
379.92	0.733
380.12	0.733
380.33	0.725
380.54	0.721
380.75	0.727
380.95	0.727
381.16	0.726
381.37	0.726
381.57	0.727
381.78	0.728
381.99	0.728
382.20	0.726
382.40	0.729
382.61	0.729
382.82	0.726
383.02	0.720
383.23	0.723
383.44	0.722
383.64	0.721
383.85	0.723
384.06	0.727
384.27	0.724
384.47	0.723
384.68	0.723
384.89	0.728
385.09	0.728
385.30	0.728
385.51	0.728
385.71	0.731
385.92	0.732
386.13	0.731
386.33	0.733
386.54	0.734
386.75	0.733
386.95	0.729
387.16	0.724
387.37	0.726
387.58	0.725
387.78	0.723
387.99	0.721
388.20	0.722
388.40	0.719
388.61	0.714
388.82	0.718
389.02	0.720
389.23	0.721
389.44	0.720
389.64	0.721
389.85	0.732
390.06	0.732
390.26	0.733
390.47	0.732
390.68	0.735
390.88	0.733
391.09	0.730
391.30	0.729
391.50	0.729
391.71	0.729
391.92	0.727
392.12	0.720
392.33	0.720
392.53	0.720
392.74	0.721
392.95	0.720
393.15	0.723
393.36	0.724
393.57	0.722
393.77	0.725
393.98	0.726
394.19	0.726
394.39	0.726
394.60	0.726
394.81	0.728
395.01	0.726
395.22	0.724
395.43	0.725
395.63	0.729
395.84	0.731
396.04	0.727
396.25	0.729
396.46	0.731
396.66	0.729
396.87	0.727
397.08	0.725
397.28	0.727
397.49	0.729
397.69	0.726
397.90	0.721
398.11	0.721
398.31	0.722
398.52	0.720
398.73	0.721
398.93	0.720
399.14	0.719
399.34	0.718
399.55	0.719
399.76	0.720
399.96	0.721
400.17	0.719
400.37	0.718
400.58	0.724
400.79	0.725
400.99	0.723
401.20	0.728
401.41	0.730
401.61	0.732
401.82	0.737
402.02	0.736
402.23	0.737
402.44	0.737
402.64	0.738
402.85	0.733
403.05	0.732
403.26	0.730
403.47	0.725
403.67	0.723
403.88	0.723
404.08	0.718
404.29	0.717
404.50	0.717
404.70	0.717
404.91	0.716
405.11	0.713
405.32	0.714
405.52	0.714
405.73	0.714
405.94	0.712
406.14	0.715
406.35	0.716
406.55	0.715
406.76	0.714
406.97	0.714
407.17	0.717
407.38	0.716
407.58	0.715
407.79	0.717
407.99	0.719
408.20	0.720
408.41	0.716
408.61	0.715
408.82	0.715
409.02	0.715
409.23	0.714
409.43	0.712
409.64	0.713
409.84	0.713
410.05	0.710
410.26	0.708
410.46	0.708
410.67	0.708
410.87	0.709
411.08	0.712
411.28	0.712
411.49	0.713
411.69	0.712
411.90	0.714
412.11	0.715
412.31	0.716
412.52	0.715
412.72	0.716
412.93	0.716
413.13	0.715
413.34	0.712
413.54	0.714
413.75	0.716
413.95	0.715
414.16	0.712
414.37	0.715
414.57	0.715
414.78	0.717
414.98	0.716
415.19	0.717
415.39	0.714
415.60	0.715
415.80	0.715
416.01	0.713
416.21	0.714
416.42	0.714
416.62	0.710
416.83	0.710
417.03	0.709
417.24	0.709
417.44	0.706
417.65	0.706
417.86	0.707
418.06	0.704
418.27	0.703
418.47	0.704
418.68	0.705
418.88	0.705
419.09	0.704
419.29	0.705
419.50	0.705
419.70	0.705
419.91	0.703
420.11	0.701
420.32	0.703
420.52	0.703
420.73	0.702
420.93	0.702
421.14	0.704
421.34	0.703
421.55	0.699
421.75	0.699
421.96	0.701
422.16	0.701
422.37	0.701
422.57	0.698
422.78	0.699
422.98	0.696
423.19	0.694
423.39	0.692
423.60	0.696
423.80	0.697
424.01	0.695
424.21	0.697
424.42	0.698
424.62	0.698
424.83	0.697
425.03	0.697
425.23	0.699
425.44	0.699
425.64	0.701
425.85	0.699
426.05	0.700
426.26	0.700
426.46	0.697
426.67	0.696
426.87	0.700
427.08	0.701
427.28	0.699
427.49	0.700
427.69	0.701
427.90	0.699
428.10	0.696
428.31	0.696
428.51	0.697
428.71	0.696
428.92	0.697
429.12	0.695
429.33	0.695
429.53	0.698
429.74	0.702
429.94	0.702
430.15	0.700
430.35	0.700
430.56	0.697
430.76	0.697
430.96	0.697
431.17	0.695
431.37	0.691
431.58	0.690
431.78	0.687
431.99	0.681
432.19	0.683
432.40	0.685
432.60	0.685
432.80	0.688
433.01	0.686
433.21	0.686
433.42	0.688
433.62	0.689
433.83	0.688
434.03	0.691
434.23	0.693
434.44	0.692
434.64	0.690
434.85	0.695
435.05	0.696
435.26	0.696
435.46	0.695
435.66	0.694
435.87	0.694
436.07	0.693
436.28	0.689
436.48	0.686
436.69	0.686
436.89	0.686
437.09	0.680
437.30	0.679
437.50	0.679
437.71	0.690
437.91	0.690
438.11	0.691
438.32	0.695
438.52	0.695
438.73	0.694
438.93	0.692
439.13	0.692
439.34	0.695
439.54	0.692
439.75	0.692
439.95	0.683
440.15	0.687
440.36	0.686
440.56	0.683
440.77	0.683
440.97	0.683
441.17	0.683
441.38	0.684
441.58	0.681
441.79	0.680
441.99	0.679
442.19	0.677
442.40	0.674
442.60	0.673
442.81	0.671
443.01	0.672
443.21	0.672
443.42	0.671
443.62	0.669
443.82	0.669
444.03	0.671
444.23	0.671
444.44	0.672
444.64	0.671
444.84	0.672
445.05	0.672
445.25	0.670
445.45	0.670
445.66	0.673
445.86	0.672
446.06	0.674
446.27	0.673
446.47	0.676
446.68	0.674
446.88	0.672
447.08	0.672
447.29	0.673
447.49	0.674
447.69	0.673
447.90	0.671
448.10	0.675
448.30	0.672
448.51	0.673
448.71	0.669
448.91	0.672
449.12	0.671
449.32	0.672
449.52	0.671
449.73	0.675
449.93	0.674
450.14	0.675
450.34	0.673
450.54	0.676
450.75	0.673
450.95	0.673
451.15	0.673
451.36	0.675
451.56	0.672
451.76	0.671
451.97	0.668
452.17	0.668
452.37	0.667
452.58	0.664
452.78	0.663
452.98	0.665
453.19	0.665
453.39	0.665
453.59	0.664
453.79	0.664
454.00	0.664
454.20	0.664
454.40	0.664
454.61	0.666
454.81	0.667
455.01	0.665
455.22	0.666
455.42	0.668
455.62	0.666
455.83	0.666
456.03	0.669
456.23	0.670
456.44	0.670
456.64	0.670
456.84	0.670
457.04	0.670
457.25	0.669
457.45	0.666
457.65	0.665
457.86	0.665
458.06	0.664
458.26	0.660
458.47	0.659
458.67	0.660
458.87	0.660
459.07	0.657
459.28	0.659
459.48	0.662
459.68	0.661
459.89	0.660
460.09	0.659
460.29	0.660
460.49	0.661
460.70	0.661
460.90	0.660
461.10	0.660
461.31	0.660
461.51	0.658
461.71	0.659
461.91	0.661
462.12	0.661
462.32	0.660
462.52	0.661
462.72	0.663
462.93	0.664
463.13	0.662
463.33	0.663
463.53	0.665
463.74	0.664
463.94	0.659
464.14	0.660
464.35	0.661
464.55	0.661
464.75	0.660
464.95	0.657
465.16	0.659
465.36	0.657
465.56	0.657
465.76	0.656
465.97	0.657
466.17	0.658
466.37	0.656
466.57	0.657
466.78	0.657
466.98	0.657
467.18	0.656
467.38	0.655
467.59	0.656
467.79	0.657
467.99	0.656
468.19	0.657
468.39	0.660
468.60	0.660
468.80	0.658
469.00	0.659
469.20	0.660
469.41	0.660
469.61	0.660
469.81	0.660
470.01	0.659
470.22	0.660
470.42	0.658
470.62	0.656
470.82	0.657
471.02	0.657
471.23	0.654
471.43	0.654
471.63	0.656
471.83	0.656
472.04	0.654
472.24	0.653
472.44	0.658
472.64	0.658
472.84	0.656
473.05	0.655
473.25	0.658
473.45	0.657
473.65	0.656
473.85	0.656
474.06	0.657
474.26	0.657
474.46	0.659
474.66	0.655
474.86	0.656
475.07	0.656
475.27	0.655
475.47	0.652
475.67	0.653
475.87	0.655
476.08	0.652
476.28	0.654
476.48	0.654
476.68	0.653
476.88	0.650
477.09	0.652
477.29	0.654
477.49	0.653
477.69	0.652
477.89	0.652
478.09	0.651
478.30	0.654
478.50	0.650
478.70	0.650
478.90	0.650
479.10	0.653
479.31	0.654
479.51	0.652
479.71	0.653
479.91	0.653
480.11	0.653
480.31	0.653
480.52	0.652
480.72	0.652
480.92	0.651
481.12	0.650
481.32	0.647
481.52	0.645
481.72	0.645
481.93	0.648
482.13	0.648
482.33	0.648
482.53	0.646
482.73	0.646
482.93	0.647
483.14	0.648
483.34	0.647
483.54	0.648
483.74	0.647
483.94	0.646
484.14	0.643
484.34	0.643
484.55	0.643
484.75	0.643
484.95	0.641
485.15	0.641
485.35	0.641
485.55	0.641
485.75	0.639
485.96	0.639
486.16	0.640
486.36	0.640
486.56	0.638
486.76	0.638
486.96	0.638
487.16	0.637
487.36	0.635
487.57	0.635
487.77	0.635
487.97	0.635
488.17	0.634
488.37	0.633
488.57	0.633
488.77	0.633
488.97	0.632
489.18	0.632
489.38	0.635
489.58	0.636
489.78	0.636
489.98	0.635
490.18	0.635
490.38	0.636
490.58	0.635
490.78	0.635
490.98	0.636
491.19	0.636
491.39	0.636
491.59	0.635
491.79	0.637
491.99	0.637
492.19	0.637
492.39	0.641
492.59	0.641
492.79	0.642
492.99	0.643
493.20	0.643
493.40	0.643
493.60	0.644
493.80	0.643
494.00	0.641
494.20	0.641
494.40	0.640
494.60	0.638
494.80	0.642
495.00	0.641
495.20	0.639
495.40	0.638
495.61	0.640
495.81	0.640
496.01	0.643
496.21	0.644
496.41	0.643
496.61	0.644
496.81	0.642
497.01	0.637
497.21	0.637
497.41	0.637
497.61	0.637
497.81	0.634
498.01	0.635
498.21	0.632
498.41	0.630
498.61	0.630
498.82	0.632
499.02	0.634
499.22	0.635
499.42	0.635
499.62	0.636
499.82	0.637
500.02	0.638
500.22	0.637
500.42	0.639
500.62	0.639
500.82	0.640
501.02	0.638
501.22	0.638
501.42	0.637
501.62	0.639
501.82	0.638
502.02	0.638
502.22	0.637
502.42	0.638
502.62	0.636
502.82	0.636
503.02	0.637
503.22	0.637
503.42	0.636
503.63	0.636
503.83	0.634
504.03	0.633
504.23	0.632
504.43	0.633
504.63	0.634
504.83	0.634
505.03	0.633
505.23	0.635
505.43	0.636
505.63	0.636
505.83	0.636
506.03	0.637
506.23	0.639
506.43	0.639
506.63	0.638
506.83	0.637
507.03	0.639
507.23	0.639
507.43	0.636
507.63	0.637
507.83	0.637
508.03	0.637
508.23	0.637
508.43	0.636
508.63	0.637
508.83	0.638
509.03	0.639
509.23	0.638
509.43	0.638
509.63	0.638
509.83	0.637
510.03	0.640
510.23	0.640
510.43	0.641
510.63	0.642
510.83	0.641
511.03	0.643
511.23	0.641
511.43	0.641
511.63	0.642
511.83	0.644
512.03	0.644
512.22	0.642
512.42	0.642
512.62	0.642
512.82	0.642
513.02	0.641
513.22	0.641
513.42	0.642
513.62	0.645
513.82	0.643
514.02	0.642
514.22	0.644
514.42	0.644
514.62	0.644
514.82	0.644
515.02	0.645
515.22	0.649
515.42	0.648
515.62	0.651
515.82	0.649
516.02	0.651
516.22	0.651
516.42	0.652
516.62	0.653
516.82	0.654
517.01	0.653
517.21	0.653
517.41	0.656
517.61	0.656
517.81	0.652
518.01	0.652
518.21	0.651
518.41	0.649
518.61	0.648
518.81	0.649
519.01	0.649
519.21	0.649
519.41	0.648
519.61	0.643
519.81	0.646
520.00	0.646
520.20	0.646
520.40	0.649
520.60	0.650
520.80	0.649
521.00	0.649
521.20	0.649
521.40	0.654
521.60	0.655
521.80	0.654
522.00	0.654
522.20	0.657
522.39	0.656
522.59	0.653
522.79	0.655
522.99	0.657
523.19	0.656
523.39	0.654
523.59	0.652
523.79	0.654
523.99	0.656
524.19	0.655
524.38	0.654
524.58	0.655
524.78	0.655
524.98	0.654
525.18	0.656
525.38	0.657
525.58	0.658
525.78	0.656
525.98	0.654
526.18	0.654
526.37	0.654
526.57	0.656
526.77	0.655
526.97	0.656
527.17	0.656
527.37	0.653
527.57	0.655
527.77	0.657
527.96	0.656
528.16	0.655
528.36	0.656
528.56	0.658
528.76	0.655
528.96	0.655
529.16	0.655
529.36	0.658
529.55	0.658
529.75	0.655
529.95	0.655
530.15	0.656
530.35	0.659
530.55	0.657
530.75	0.657
530.94	0.659
531.14	0.659
531.34	0.658
531.54	0.656
531.74	0.659
531.94	0.662
532.13	0.660
532.33	0.663
532.53	0.661
532.73	0.661
532.93	0.660
533.13	0.661
533.33	0.660
533.52	0.661
533.72	0.664
533.92	0.663
534.12	0.660
534.32	0.661
534.52	0.659
534.71	0.661
534.91	0.663
535.11	0.665
535.31	0.663
535.51	0.665
535.71	0.666
535.90	0.663
536.10	0.664
536.30	0.666
536.50	0.666
536.70	0.666
536.89	0.664
537.09	0.664
537.29	0.665
537.49	0.666
537.69	0.664
537.89	0.664
538.08	0.664
538.28	0.662
538.48	0.662
538.68	0.664
538.88	0.665
539.07	0.665
539.27	0.663
539.47	0.662
539.67	0.662
539.87	0.663
540.06	0.662
540.26	0.662
540.46	0.665
540.66	0.662
540.86	0.660
541.05	0.660
541.25	0.662
541.45	0.661
541.65	0.661
541.84	0.663
542.04	0.663
542.24	0.664
542.44	0.664
542.64	0.665
542.83	0.668
543.03	0.669
543.23	0.666
543.43	0.667
543.62	0.669
543.82	0.670
544.02	0.668
544.22	0.668
544.42	0.671
544.61	0.671
544.81	0.668
545.01	0.666
545.21	0.669
545.40	0.669
545.60	0.667
545.80	0.670
546.00	0.670
546.19	0.670
546.39	0.669
546.59	0.667
546.79	0.669
546.98	0.669
547.18	0.669
547.38	0.669
547.58	0.671
547.77	0.672
547.97	0.668
548.17	0.669
548.37	0.670
548.56	0.670
548.76	0.669
548.96	0.670
549.16	0.673
549.35	0.672
549.55	0.670
549.75	0.670
549.95	0.674
550.14	0.674
550.34	0.673
550.54	0.677
550.73	0.680
550.93	0.681
551.13	0.678
551.33	0.676
551.52	0.677
551.72	0.678
551.92	0.676
552.12	0.676
552.31	0.677
552.51	0.677
552.71	0.673
552.90	0.672
553.10	0.673
553.30	0.674
553.50	0.674
553.69	0.675
553.89	0.675
554.09	0.675
554.28	0.672
554.48	0.673
554.68	0.675
554.87	0.675
555.07	0.672
555.27	0.673
555.47	0.674
555.66	0.674
555.86	0.673
556.06	0.674
556.25	0.675
556.45	0.683
556.65	0.682
556.84	0.685
557.04	0.688
557.24	0.690
557.43	0.690
557.63	0.692
557.83	0.694
558.02	0.695
558.22	0.699
558.42	0.699
558.61	0.692
558.81	0.692
559.01	0.689
559.21	0.689
559.40	0.689
559.60	0.689
559.80	0.686
559.99	0.687
560.19	0.689
560.39	0.683
560.58	0.682
560.78	0.682
560.97	0.685
561.17	0.683
561.37	0.681
561.56	0.682
561.76	0.684
561.96	0.684
562.15	0.681
562.35	0.683
562.55	0.684
562.74	0.684
562.94	0.682
563.14	0.680
563.33	0.681
563.53	0.681
563.73	0.678
563.92	0.680
564.12	0.682
564.31	0.684
564.51	0.682
564.71	0.684
564.90	0.686
565.10	0.687
565.30	0.690
565.49	0.691
565.69	0.693
565.89	0.694
566.08	0.691
566.28	0.693
566.47	0.695
566.67	0.694
566.87	0.691
567.06	0.693
567.26	0.700
567.46	0.695
567.65	0.695
567.85	0.697
568.04	0.699
568.24	0.699
568.44	0.695
568.63	0.694
568.83	0.695
569.02	0.694
569.22	0.690
569.42	0.685
569.61	0.687
569.81	0.686
570.00	0.684
570.20	0.685
570.40	0.686
570.59	0.686
570.79	0.684
570.98	0.682
571.18	0.684
571.38	0.684
571.57	0.681
571.77	0.679
571.96	0.683
572.16	0.680
572.35	0.675
572.55	0.676
572.75	0.674
572.94	0.673
573.14	0.672
573.33	0.672
573.53	0.672
573.73	0.671
573.92	0.670
574.12	0.667
574.31	0.670
574.51	0.671
574.70	0.669
574.90	0.670
575.09	0.673
575.29	0.673
575.49	0.670
575.68	0.671
575.88	0.672
576.07	0.674
576.27	0.672
576.46	0.670
576.66	0.669
576.86	0.668
577.05	0.666
577.25	0.664
577.44	0.666
577.64	0.666
577.83	0.664
578.03	0.665
578.22	0.664
578.42	0.663
578.61	0.662
578.81	0.662
579.00	0.663
579.20	0.662
579.40	0.661
579.59	0.659
579.79	0.660
579.98	0.660
580.18	0.659
580.37	0.659
580.57	0.661
580.76	0.665
580.96	0.664
581.15	0.664
581.35	0.666
581.54	0.667
581.74	0.667
581.93	0.668
582.13	0.668
582.32	0.665
582.52	0.663
582.71	0.663
582.91	0.659
583.10	0.659
583.30	0.658
583.49	0.657
583.69	0.660
583.88	0.661
584.08	0.660
584.27	0.663
584.47	0.667
584.66	0.667
584.86	0.666
585.05	0.668
585.25	0.671
585.44	0.670
585.64	0.669
585.83	0.665
586.03	0.666
586.22	0.664
586.42	0.660
586.61	0.661
586.81	0.663
587.00	0.662
587.20	0.660
587.39	0.660
587.59	0.662
587.78	0.663
587.98	0.663
588.17	0.664
588.37	0.666
588.56	0.669
588.76	0.665
588.95	0.666
589.15	0.670
589.34	0.672
589.54	0.671
589.73	0.672
589.92	0.675
590.12	0.675
590.31	0.674
590.51	0.679
590.70	0.680
590.90	0.681
591.09	0.679
591.29	0.677
591.48	0.677
591.68	0.678
591.87	0.676
592.06	0.676
592.26	0.679
592.45	0.678
592.65	0.672
592.84	0.671
593.04	0.673
593.23	0.675
593.43	0.673
593.62	0.673
593.81	0.672
594.01	0.672
594.20	0.669
594.40	0.667
594.59	0.669
594.79	0.670
594.98	0.669
595.17	0.668
595.37	0.669
595.56	0.671
595.76	0.671
595.95	0.673
596.14	0.676
596.34	0.678
596.53	0.677
596.73	0.678
596.92	0.680
597.12	0.682
597.31	0.682
597.50	0.682
597.70	0.684
597.89	0.683
598.09	0.679
598.28	0.680
598.47	0.683
598.67	0.681
598.86	0.678
599.06	0.679
599.25	0.679
599.44	0.677
599.64	0.674
599.83	0.672
600.03	0.674
600.22	0.674
600.41	0.675
600.61	0.673
600.80	0.675
601.00	0.675
601.19	0.671
601.38	0.670
601.58	0.672
601.77	0.673
601.96	0.676
602.16	0.676
602.35	0.685
602.55	0.682
602.74	0.683
602.93	0.685
603.13	0.690
603.32	0.692
603.51	0.691
603.71	0.695
603.90	0.697
604.09	0.697
604.29	0.694
604.48	0.689
604.68	0.690
604.87	0.688
605.06	0.685
605.26	0.682
605.45	0.682
605.64	0.681
605.84	0.676
606.03	0.675
606.22	0.674
606.42	0.673
606.61	0.669
606.80	0.669
607.00	0.670
607.19	0.670
607.38	0.669
607.58	0.670
607.77	0.672
607.96	0.672
608.16	0.671
608.35	0.675
608.54	0.678
608.74	0.680
608.93	0.685
609.12	0.688
609.32	0.691
609.51	0.694
609.70	0.693
609.90	0.695
610.09	0.699
610.28	0.704
610.48	0.698
610.67	0.700
610.86	0.702
611.06	0.697
611.25	0.694
611.44	0.695
611.64	0.695
611.83	0.698
612.02	0.694
612.21	0.692
612.41	0.691
612.60	0.690
612.79	0.687
612.99	0.686
613.18	0.687
613.37	0.685
613.57	0.682
613.76	0.684
613.95	0.681
614.14	0.681
614.34	0.680
614.53	0.680
614.72	0.683
614.92	0.683
615.11	0.680
615.30	0.677
615.49	0.678
615.69	0.680
615.88	0.677
616.07	0.678
616.26	0.680
616.46	0.680
616.65	0.677
616.84	0.676
617.04	0.677
617.23	0.681
617.42	0.682
617.61	0.686
617.81	0.686
618.00	0.688
618.19	0.687
618.38	0.691
618.58	0.694
618.77	0.695
618.96	0.696
619.15	0.698
619.35	0.698
619.54	0.699
619.73	0.695
619.92	0.698
620.12	0.702
620.31	0.702
620.50	0.697
620.69	0.697
620.89	0.701
621.08	0.700
621.27	0.700
621.46	0.699
621.66	0.703
621.85	0.702
622.04	0.698
622.23	0.700
622.43	0.700
622.62	0.699
622.81	0.698
623.00	0.697
623.19	0.700
623.39	0.699
623.58	0.697
623.77	0.695
623.96	0.698
624.16	0.698
624.35	0.692
624.54	0.696
624.73	0.700
624.92	0.698
625.12	0.695
625.31	0.696
625.50	0.699
625.69	0.700
625.88	0.697
626.08	0.697
626.27	0.699
626.46	0.699
626.65	0.695
626.84	0.695
627.04	0.700
627.23	0.701
627.42	0.697
627.61	0.699
627.80	0.701
628.00	0.701
628.19	0.700
628.38	0.703
628.57	0.705
628.76	0.705
628.96	0.702
629.15	0.702
629.34	0.704
629.53	0.705
629.72	0.699
629.91	0.701
630.11	0.704
630.30	0.704
630.49	0.707
630.68	0.707
630.87	0.710
631.06	0.712
631.26	0.707
631.45	0.709
631.64	0.717
631.83	0.719
632.02	0.716
632.21	0.715
632.41	0.722
632.60	0.716
632.79	0.716
632.98	0.715
633.17	0.716
633.36	0.718
633.55	0.715
633.75	0.711
633.94	0.713
634.13	0.713
634.32	0.710
634.51	0.705
634.70	0.707
634.89	0.707
635.09	0.703
635.28	0.703
635.47	0.704
635.66	0.707
635.85	0.703
636.04	0.704
636.23	0.709
636.43	0.710
636.62	0.709
636.81	0.708
637.00	0.710
637.19	0.713
637.38	0.709
637.57	0.708
637.76	0.709
637.95	0.710
638.15	0.707
638.34	0.703
638.53	0.705
638.72	0.708
638.91	0.705
639.10	0.704
639.29	0.704
639.48	0.706
639.67	0.707
639.87	0.706
640.06	0.711
640.25	0.711
640.44	0.712
640.63	0.713
640.82	0.715
641.01	0.715
641.20	0.714
641.39	0.716
641.58	0.719
641.78	0.717
641.97	0.713
642.16	0.727
642.35	0.726
642.54	0.724
642.73	0.719
642.92	0.718
643.11	0.721
643.30	0.721
643.49	0.716
643.68	0.718
643.87	0.719
644.06	0.719
644.25	0.700
644.45	0.702
644.64	0.704
644.83	0.705
645.02	0.702
645.21	0.700
645.40	0.701
645.59	0.702
645.78	0.697
645.97	0.700
646.16	0.699
646.35	0.699
646.54	0.698
646.73	0.700
646.92	0.701
647.11	0.701
647.30	0.697
647.49	0.699
647.68	0.698
647.88	0.696
648.07	0.689
648.26	0.693
648.45	0.695
648.64	0.691
648.83	0.688
649.02	0.690
649.21	0.699
649.40	0.698
649.59	0.694
649.78	0.695
649.97	0.708
650.16	0.707
650.35	0.702
650.54	0.704
650.73	0.712
650.92	0.709
651.11	0.703
651.30	0.700
651.49	0.704
651.68	0.703
651.87	0.701
652.06	0.691
652.25	0.695
652.44	0.699
652.63	0.698
652.82	0.700
653.01	0.701
653.20	0.700
653.39	0.690
653.58	0.688
653.77	0.688
653.96	0.683
654.15	0.675
654.34	0.673
654.53	0.668
654.72	0.661
654.91	0.651
655.10	0.647
655.29	0.644
655.48	0.642
655.67	0.637
655.86	0.634
656.05	0.632
656.24	0.632
656.43	0.626
656.62	0.625
656.81	0.625
657.00	0.622
657.19	0.618
657.38	0.617
657.57	0.616
657.76	0.618
657.95	0.615
658.14	0.618
658.33	0.620
658.51	0.624
658.70	0.624
658.89	0.625
659.08	0.635
659.27	0.643
659.46	0.645
659.65	0.652
659.84	0.655
660.03	0.659
660.22	0.660
660.41	0.664
660.60	0.665
660.79	0.666
660.98	0.673
661.17	0.672
661.36	0.671
661.55	0.672
661.74	0.670
661.92	0.673
662.11	0.675
662.30	0.673
662.49	0.667
662.68	0.665
662.87	0.667
663.06	0.661
663.25	0.663
663.44	0.663
663.63	0.664
663.82	0.662
664.01	0.656
664.20	0.655
664.38	0.657
664.57	0.657
664.76	0.658
664.95	0.659
665.14	0.663
665.33	0.658
665.52	0.665
665.71	0.669
665.90	0.669
666.09	0.671
666.28	0.668
666.46	0.666
666.65	0.666
666.84	0.663
667.03	0.657
667.22	0.656
667.41	0.659
667.60	0.649
667.79	0.642
667.98	0.643
668.16	0.644
668.35	0.644
668.54	0.641
668.73	0.642
668.92	0.643
669.11	0.643
669.30	0.637
669.49	0.633
669.67	0.635
669.86	0.637
670.05	0.635
670.24	0.633
670.43	0.631
670.62	0.630
670.81	0.626
671.00	0.626
671.18	0.626
671.37	0.625
671.56	0.624
671.75	0.623
671.94	0.619
672.13	0.617
672.32	0.613
672.50	0.612
672.69	0.613
672.88	0.613
673.07	0.609
673.26	0.611
673.45	0.612
673.63	0.611
673.82	0.608
674.01	0.610
674.20	0.609
674.39	0.609
674.58	0.608
674.76	0.608
674.95	0.606
675.14	0.606
675.33	0.601
675.52	0.600
675.71	0.599
675.89	0.598
676.08	0.595
676.27	0.595
676.46	0.595
676.65	0.594
676.84	0.594
677.02	0.596
677.21	0.598
677.40	0.597
677.59	0.595
677.78	0.596
677.96	0.599
678.15	0.599
678.34	0.597
678.53	0.598
678.72	0.598
678.90	0.594
679.09	0.590
679.28	0.587
679.47	0.586
679.66	0.585
679.84	0.581
680.03	0.579
680.22	0.577
680.41	0.579
680.60	0.575
680.78	0.574
680.97	0.576
681.16	0.577
681.35	0.576
681.53	0.575
681.72	0.576
681.91	0.580
682.10	0.578
682.29	0.581
682.47	0.578
682.66	0.577
682.85	0.575
683.04	0.573
683.22	0.572
683.41	0.574
683.60	0.573
683.79	0.574
683.97	0.572
684.16	0.572
684.35	0.567
684.54	0.569
684.72	0.570
684.91	0.571
685.10	0.570
685.29	0.571
685.47	0.568
685.66	0.566
685.85	0.563
686.04	0.562
686.22	0.564
686.41	0.567
686.60	0.564
686.79	0.567
686.97	0.568
687.16	0.569
687.35	0.567
687.54	0.571
687.72	0.575
687.91	0.575
688.10	0.577
688.29	0.577
688.47	0.575
688.66	0.575
688.85	0.571
689.03	0.569
689.22	0.573
689.41	0.574
689.60	0.569
689.78	0.566
689.97	0.566
690.16	0.563
690.34	0.559
690.53	0.559
690.72	0.559
690.91	0.557
691.09	0.555
691.28	0.550
691.47	0.548
691.65	0.547
691.84	0.545
692.03	0.544
692.21	0.542
692.40	0.542
692.59	0.540
692.77	0.538
692.96	0.539
693.15	0.540
693.34	0.538
693.52	0.538
693.71	0.538
693.90	0.540
694.08	0.540
694.27	0.541
694.46	0.549
694.64	0.551
694.83	0.551
695.02	0.550
695.20	0.549
695.39	0.549
695.58	0.549
695.76	0.549
695.95	0.548
696.14	0.548
696.32	0.546
696.51	0.537
696.70	0.536
696.88	0.537
697.07	0.536
697.26	0.537
697.44	0.538
697.63	0.537
697.81	0.535
698.00	0.534
698.19	0.534
698.37	0.533
698.56	0.533
698.75	0.533
698.93	0.532
699.12	0.532
699.31	0.532
699.49	0.531
699.68	0.532
699.87	0.534
700.05	0.535
700.24	0.534
700.42	0.535
700.61	0.535
700.80	0.533
700.98	0.533
701.17	0.534
701.36	0.533
701.54	0.532
701.73	0.533
701.91	0.530
702.10	0.530
702.29	0.529
702.47	0.527
702.66	0.529
702.84	0.530
703.03	0.527
703.22	0.528
703.40	0.528
703.59	0.530
703.77	0.529
703.96	0.529
704.15	0.529
704.33	0.529
704.52	0.529
704.70	0.528
704.89	0.527
705.08	0.526
705.26	0.523
705.45	0.523
705.63	0.523
705.82	0.520
706.00	0.519
706.19	0.518
706.38	0.518
706.56	0.518
706.75	0.517
706.93	0.515
707.12	0.516
707.30	0.517
707.49	0.515
707.68	0.512
707.86	0.511
708.05	0.511
708.23	0.508
708.42	0.509
708.60	0.511
708.79	0.511
708.98	0.510
709.16	0.509
709.35	0.511
709.53	0.515
709.72	0.514
709.90	0.516
710.09	0.518
710.27	0.520
710.46	0.523
710.64	0.521
710.83	0.523
711.02	0.524
711.20	0.523
711.39	0.522
711.57	0.519
711.76	0.520
711.94	0.519
712.13	0.520
712.31	0.520
712.50	0.516
712.68	0.515
712.87	0.516
713.05	0.516
713.24	0.517
713.42	0.516
713.61	0.516
713.79	0.517
713.98	0.517
714.16	0.517
714.35	0.516
714.54	0.516
714.72	0.516
714.91	0.514
715.09	0.520
715.28	0.522
715.46	0.522
715.65	0.521
715.83	0.520
716.02	0.523
716.20	0.519
716.39	0.519
716.57	0.520
716.76	0.521
716.94	0.522
717.12	0.515
717.31	0.516
717.49	0.519
717.68	0.521
717.86	0.521
718.05	0.523
718.23	0.525
718.42	0.528
718.60	0.529
718.79	0.537
718.97	0.538
719.16	0.538
719.34	0.536
719.53	0.535
719.71	0.534
719.90	0.535
720.08	0.532
720.27	0.532
720.45	0.531
720.63	0.530
720.82	0.524
721.00	0.527
721.19	0.530
721.37	0.530
721.56	0.530
721.74	0.533
721.93	0.541
722.11	0.547
722.30	0.547
722.48	0.551
722.66	0.553
722.85	0.552
723.03	0.552
723.22	0.550
723.40	0.552
723.59	0.552
723.77	0.556
723.95	0.550
724.14	0.552
724.32	0.554
724.51	0.553
724.69	0.555
724.88	0.556
725.06	0.555
725.24	0.556
725.43	0.557
725.61	0.560
725.80	0.554
725.98	0.552
726.16	0.550
726.35	0.555
726.53	0.555
726.72	0.554
726.90	0.564
727.09	0.564
727.27	0.569
727.45	0.566
727.64	0.575
727.82	0.584
728.01	0.588
728.19	0.585
728.37	0.590
728.56	0.593
728.74	0.599
728.92	0.589
729.11	0.591
729.29	0.589
729.48	0.592
729.66	0.582
729.84	0.579
730.03	0.583
730.21	0.584
730.40	0.576
730.58	0.577
730.76	0.576
730.95	0.578
731.13	0.578
731.31	0.592
731.50	0.600
731.68	0.603
731.86	0.602
732.05	0.615
732.23	0.618
732.42	0.622
732.60	0.625
732.78	0.629
732.97	0.646
733.15	0.651
733.33	0.640
733.52	0.647
733.70	0.655
733.88	0.665
734.07	0.651
734.25	0.675
734.43	0.681
734.62	0.683
734.80	0.679
734.98	0.670
735.17	0.676
735.35	0.682
735.53	0.673
735.72	0.677
735.90	0.693
736.08	0.713
736.27	0.691
736.45	0.702
736.63	0.712
736.82	0.723
737.00	0.723
737.18	0.731
737.37	0.759
737.55	0.778
737.73	0.776
737.92	0.779
738.10	0.775
738.28	0.794
738.46	0.783
738.65	0.795
738.83	0.812
739.01	0.860
739.20	0.856
739.38	0.838
739.56	0.828
739.75	0.831
739.93	0.804
740.11	0.826
740.29	0.825
740.48	0.829
740.66	0.813
740.84	0.810
741.03	0.773
741.21	0.785
741.39	0.770
741.57	0.781
741.76	0.793
741.94	0.798
742.12	0.765
742.31	0.769
742.49	0.787
742.67	0.807
742.85	0.817
743.04	0.823
743.22	0.826
743.40	0.876
743.58	0.865
743.77	0.880
743.95	0.904
744.13	0.948
744.31	0.935
744.50	0.930
744.68	0.921
744.86	0.900
745.04	0.911
745.23	0.974
745.41	0.949
745.59	0.953
745.77	0.922
745.96	0.918
746.14	0.923
746.32	0.923
746.50	0.913
746.69	0.905
746.87	0.911
747.05	0.902
747.23	0.833
747.42	0.823
747.60	0.841
747.78	0.849
747.96	0.871
748.14	0.833
748.33	0.854
748.51	0.850
748.69	0.842
748.87	0.865
749.06	0.855
749.24	0.855
749.42	0.841
749.60	0.828
749.78	0.828
749.97	0.790
750.15	0.785
750.33	0.786
750.51	0.808
750.69	0.813
750.88	0.824
751.06	0.834
751.24	0.852
751.42	0.847
751.60	0.840
751.79	0.907
751.97	0.944
752.15	0.943
752.33	0.913
752.51	0.970
752.69	0.982
752.88	0.954
753.06	0.998
753.24	0.982
753.42	1.011
753.60	1.154
753.78	1.032
753.97	1.052
754.15	1.069
754.33	1.104
754.51	0.991
754.69	0.979
754.87	0.994
755.06	0.936
755.24	0.939
755.42	0.946
755.60	0.853
755.78	0.862
755.96	0.815
756.15	0.812
756.33	0.811
756.51	0.828
756.69	0.815
756.87	0.790
757.05	0.802
757.23	0.786
757.42	0.760
757.60	0.761
757.78	0.750
757.96	0.748
758.14	0.736
758.32	0.726
758.50	0.737
758.69	0.737
758.87	0.730
759.05	0.732
759.23	0.740
759.41	0.741
759.59	0.736
759.77	0.755
759.95	0.777
760.13	0.822
760.32	0.819
760.50	0.812
760.68	0.832
760.86	0.833
761.04	0.813
761.22	0.814
761.40	0.853
761.58	0.852
761.76	0.831
761.95	0.816
762.13	0.777
762.31	0.781
762.49	0.755
762.67	0.769
762.85	0.778
763.03	0.772
763.21	0.757
763.39	0.739
763.57	0.742
763.75	0.737
763.94	0.724
764.12	0.726
764.30	0.743
764.48	0.749
764.66	0.721
764.84	0.720
765.02	0.753
765.20	0.761
765.38	0.745
765.56	0.750
765.74	0.783
765.92	0.786
766.10	0.790
766.28	0.781
766.46	0.802
766.65	0.801
766.83	0.791
767.01	0.779
767.19	0.780
767.37	0.781
767.55	0.771
767.73	0.750
767.91	0.753
768.09	0.742
768.27	0.734
768.45	0.725
768.63	0.731
768.81	0.730
768.99	0.708
769.17	0.729
769.35	0.741
769.53	0.738
769.71	0.725
769.89	0.732
770.07	0.738
770.25	0.723
770.43	0.705
770.61	0.726
770.79	0.731
770.97	0.740
771.15	0.713
771.33	0.715
771.51	0.717
771.69	0.726
771.87	0.734
772.05	0.738
772.24	0.745
772.42	0.753
772.60	0.733
772.78	0.787
772.96	0.809
773.14	0.805
773.32	0.786
773.49	0.790
773.67	0.786
773.85	0.770
774.03	0.761
774.21	0.789
774.39	0.798
774.57	0.816
774.75	0.755
774.93	0.749
775.11	0.768
775.29	0.775
775.47	0.780
775.65	0.787
775.83	0.800
776.01	0.819
776.19	0.781
776.37	0.782
776.55	0.782
776.73	0.778
776.91	0.777
777.09	0.763
777.27	0.759
777.45	0.749
777.63	0.731
777.81	0.726
777.99	0.714
778.17	0.711
778.35	0.691
778.53	0.679
778.71	0.682
778.89	0.670
779.07	0.663
779.24	0.668
779.42	0.668
779.60	0.684
779.78	0.682
779.96	0.685
780.14	0.693
780.32	0.713
780.50	0.701
780.68	0.700
780.86	0.692
781.04	0.706
781.22	0.710
781.40	0.719
781.58	0.708
781.75	0.704
781.93	0.688
782.11	0.686
782.29	0.672
782.47	0.671
782.65	0.662
782.83	0.685
783.01	0.677
783.19	0.671
783.37	0.660
783.55	0.663
783.72	0.678
783.90	0.689
784.08	0.683
784.26	0.693
784.44	0.712
784.62	0.716
784.80	0.689
784.98	0.697
785.16	0.703
785.33	0.715
785.51	0.704
785.69	0.687
785.87	0.686
786.05	0.698
786.23	0.695
786.41	0.690
786.59	0.691
786.77	0.692
786.94	0.681
787.12	0.684
787.30	0.685
787.48	0.683
787.66	0.675
787.84	0.675
788.02	0.664
788.19	0.663
788.37	0.652
788.55	0.654
788.73	0.654
788.91	0.649
789.09	0.635
789.27	0.625
789.44	0.634
789.62	0.640
789.80	0.650
789.98	0.673
790.16	0.657
790.34	0.653
790.51	0.644
790.69	0.659
790.87	0.662
791.05	0.659
791.23	0.655
791.41	0.656
791.58	0.662
791.76	0.644
791.94	0.618
792.12	0.628
792.30	0.631
792.48	0.628
792.65	0.625
792.83	0.632
793.01	0.637
793.19	0.636
793.37	0.623
793.54	0.621
793.72	0.630
793.90	0.628
794.08	0.618
794.26	0.619
794.43	0.628
794.61	0.612
794.79	0.603
794.97	0.601
795.15	0.605
795.32	0.608
795.50	0.598
795.68	0.592
795.86	0.595
796.04	0.596
796.21	0.589
796.39	0.586
796.57	0.596
796.75	0.604
796.92	0.606
797.10	0.610
797.28	0.611
797.46	0.614
797.64	0.617
797.81	0.626
797.99	0.631
798.17	0.636
798.35	0.632
798.52	0.636
798.70	0.629
798.88	0.638
799.06	0.637
799.23	0.640
799.41	0.646
799.59	0.640
799.77	0.629
799.94	0.636
800.12	0.643
800.30	0.660
800.48	0.661
800.65	0.662
800.83	0.651
801.01	0.645
801.19	0.648
801.36	0.645
801.54	0.647
801.72	0.656
801.90	0.644
802.07	0.640
802.25	0.626
802.43	0.611
802.60	0.608
802.78	0.614
802.96	0.618
803.14	0.610
803.31	0.608
803.49	0.608
803.67	0.603
803.84	0.607
804.02	0.601
804.20	0.602
804.38	0.607
804.55	0.605
804.73	0.594
804.91	0.593
805.08	0.604
805.26	0.602
805.44	0.663
805.61	0.667
805.79	0.666
805.97	0.666
806.15	0.661
806.32	0.655
806.50	0.662
806.68	0.661
806.85	0.654
807.03	0.645
807.21	0.659
807.38	0.595
807.56	0.587
807.74	0.595
807.91	0.599
808.09	0.600
808.27	0.619
808.44	0.641
808.62	0.650
808.80	0.652
808.97	0.647
809.15	0.644
809.33	0.659
809.50	0.665
809.68	0.653
809.86	0.661
810.03	0.690
810.21	0.670
810.39	0.656
810.56	0.660
810.74	0.680
810.91	0.747
811.09	0.738
811.27	0.757
811.44	0.763
811.62	0.765
811.80	0.752
811.97	0.724
812.15	0.725
812.33	0.719
812.50	0.707
812.68	0.696
812.85	0.644
813.03	0.644
813.21	0.615
813.38	0.610
813.56	0.610
813.74	0.619
813.91	0.627
814.09	0.651
814.26	0.644
814.44	0.648
814.62	0.641
814.79	0.644
814.97	0.648
815.14	0.651
815.32	0.653
815.50	0.669
815.67	0.671
815.85	0.662
816.02	0.654
816.20	0.658
816.38	0.669
816.55	0.674
816.73	0.672
816.90	0.683
817.08	0.709
817.26	0.715
817.43	0.696
817.61	0.721
817.78	0.736
817.96	0.719
818.13	0.713
818.31	0.713
818.49	0.723
818.66	0.715
818.84	0.703
819.01	0.686
819.19	0.690
819.36	0.693
819.54	0.664
819.71	0.702
819.89	0.710
820.07	0.723
820.24	0.720
820.42	0.720
820.59	0.736
820.77	0.758
820.94	0.751
821.12	0.765
821.29	0.778
821.47	0.778
821.64	0.724
821.82	0.734
822.00	0.731
822.17	0.728
822.35	0.728
822.52	0.730
822.70	0.717
822.87	0.724
823.05	0.707
823.22	0.718
823.40	0.738
823.57	0.757
823.75	0.745
823.92	0.765
824.10	0.779
824.27	0.808
824.45	0.800
824.62	0.853
824.80	0.867
824.97	0.876
825.15	0.867
825.32	0.883
825.50	0.880
825.67	0.889
825.85	0.871
826.02	0.890
826.20	0.904
826.37	1.009
826.55	0.941
826.72	1.089
826.90	1.145
827.07	1.189
827.25	1.146
827.42	1.272
827.60	1.367
827.77	1.493
827.95	1.457
828.12	1.548
828.30	1.296
828.47	1.409
828.65	1.129
828.82	1.174
829.00	1.195
829.17	1.248
829.34	1.242
829.52	1.261
829.69	-0.000
829.87	-0.000
830.04	-0.000
830.22	-0.000
830.39	-0.000
830.57	-0.000
830.74	-0.000
830.92	-0.000
831.09	-0.000
831.26	-0.000
831.44	-0.000
831.61	-0.000
831.79	-0.000
831.96	-0.000
832.14	-0.000
832.31	-0.000
832.49	-0.000
832.66	-0.000
832.83	-0.000
833.01	-0.000
833.18	-0.000
833.36	-0.000
833.53	-0.000
833.70	-0.000
833.88	-0.000
834.05	-0.000
834.23	-0.000
834.40	-0.000
834.58	-0.000
834.75	-0.000
834.92	-0.000
835.10	-0.000
835.27	-0.000
835.45	-0.000
835.62	-0.000
835.79	-0.000
835.97	-0.000
836.14	-0.000
836.32	-0.000
836.49	-0.000
836.66	-0.000
836.84	-0.000
837.01	-0.000
837.18	-0.000
837.36	-0.000
837.53	-0.000
837.71	-0.000
837.88	-0.000
838.05	-0.000
838.23	-0.000
838.40	-0.000
838.58	-0.000
838.75	-0.000
838.92	-0.000
839.10	-0.000
839.27	-0.000
839.44	-0.000
839.62	-0.000
839.79	-0.000
839.96	-0.000
840.14	-0.000
840.31	-0.000
840.48	-0.000
840.66	-0.000
840.83	-0.000
841.01	-0.000
841.18	-0.000
841.35	-0.000
841.53	-0.000
841.70	-0.000
841.87	-0.000
842.05	-0.000
842.22	-0.000
842.39	-0.000
842.57	-0.000
842.74	-0.000
842.91	-0.000
843.09	-0.000
843.26	-0.000
843.43	-0.000
843.60	-0.000
843.78	-0.000
843.95	-0.000
844.12	-0.000
844.30	-0.000
844.47	-0.000
844.64	-0.000
844.82	-0.000
844.99	-0.000
845.16	-0.000
845.34	-0.000
845.51	-0.000
845.68	-0.000
845.85	-0.000
846.03	-0.000
846.20	-0.000
846.37	-0.000
846.55	-0.000
846.72	-0.000
846.89	-0.000
847.06	-0.000
847.24	-0.000
847.41	-0.000
847.58	-0.000
847.76	-0.000
847.93	-0.000
848.10	-0.000
848.27	-0.000
848.45	-0.000
848.62	-0.000
848.79	-0.000
848.97	-0.000
849.14	-0.000
849.31	-0.000
849.48	-0.000
849.66	-0.000
849.83	-0.000
850.00	-0.000
850.17	-0.000
850.35	-0.000
850.52	-0.000
850.69	-0.000
850.86	-0.000
851.04	-0.000
851.21	-0.000
851.38	-0.000
851.55	-0.000
851.72	-0.000
851.90	-0.000
852.07	-0.000
852.24	-0.000
852.41	-0.000
852.59	-0.000
852.76	-0.000
852.93	-0.000
853.10	-0.000
853.28	-0.000
853.45	-0.000
853.62	-0.000
853.79	-0.000
853.96	-0.000
854.14	-0.000
854.31	-0.000
854.48	-0.000
854.65	-0.000
854.82	-0.000
855.00	-0.000
855.17	-0.000
855.34	-0.000
855.51	-0.000
855.68	-0.000
855.86	-0.000
856.03	-0.000
856.20	-0.000
856.37	-0.000
856.54	-0.000
856.72	-0.000
856.89	-0.000
857.06	-0.000
857.23	-0.000
857.40	-0.000
857.57	-0.000
857.75	-0.000
857.92	-0.000
858.09	-0.000
858.26	-0.000
858.43	-0.000
858.60	-0.000
858.78	-0.000
858.95	-0.000
859.12	-0.000
859.29	-0.000
859.46	-0.000
859.63	-0.000
859.81	-0.000
859.98	-0.000
860.15	-0.000
860.32	-0.000
860.49	-0.000
860.66	-0.000
860.83	-0.000
861.01	-0.000
861.18	-0.000
861.35	-0.000
861.52	-0.000
861.69	-0.000
861.86	-0.000
862.03	-0.000
862.21	-0.000
862.38	-0.000
862.55	-0.000
862.72	-0.000
862.89	-0.000
863.06	-0.000
863.23	-0.000
863.40	-0.000
863.58	-0.000
863.75	-0.000
863.92	-0.000
864.09	-0.000
864.26	-0.000
864.43	-0.000
864.60	-0.000
864.77	-0.000
864.94	-0.000
865.11	-0.000
865.29	-0.000
865.46	-0.000
865.63	-0.000
865.80	-0.000
865.97	-0.000
866.14	-0.000
866.31	-0.000
866.48	-0.000
866.65	-0.000
866.82	-0.000
866.99	-0.000
867.16	-0.000
867.34	-0.000
867.51	-0.000
867.68	-0.000
867.85	-0.000
868.02	-0.000
868.19	-0.000
868.36	-0.000
868.53	-0.000
868.70	-0.000
868.87	-0.000
869.04	-0.000
869.21	-0.000
869.38	-0.000
869.55	-0.000
869.72	-0.000
869.89	-0.000
870.06	-0.000
870.24	-0.000
870.41	-0.000
870.58	-0.000
870.75	-0.000
870.92	-0.000
871.09	-0.000
871.26	-0.000
871.43	-0.000
871.60	-0.000
871.77	-0.000
871.94	-0.000
872.11	-0.000
872.28	-0.000
872.45	-0.000
872.62	-0.000
872.79	-0.000
872.96	-0.000
873.13	-0.000
873.30	-0.000
873.47	-0.000
873.64	-0.000
873.81	-0.000
873.98	-0.000
874.15	-0.000
874.32	-0.000
874.49	-0.000
874.66	-0.000
874.83	-0.000
875.00	-0.000
875.17	-0.000
875.34	-0.000
875.51	-0.000
875.68	-0.000
875.85	-0.000
876.02	-0.000
876.19	-0.000
876.36	-0.000
876.53	-0.000
876.70	-0.000
876.87	-0.000
877.04	-0.000
877.21	-0.000
877.38	-0.000
877.55	-0.000
877.72	-0.000
877.89	-0.000
878.06	-0.000
878.23	-0.000
878.39	-0.000
878.56	-0.000
878.73	-0.000
878.90	-0.000
879.07	-0.000
879.24	-0.000
879.41	-0.000
879.58	-0.000
879.75	-0.000
879.92	-0.000
880.09	-0.000
880.26	-0.000
880.43	-0.000
880.60	-0.000
880.77	-0.000
880.94	-0.000
881.11	-0.000
881.27	-0.000
881.44	-0.000
881.61	-0.000
881.78	-0.000
881.95	-0.000
882.12	-0.000
882.29	-0.000
882.46	-0.000
882.63	-0.000
882.80	-0.000
882.97	-0.000
883.14	-0.000
883.30	-0.000
883.47	-0.000
883.64	-0.000
883.81	-0.000
883.98	-0.000
884.15	-0.000
884.32	-0.000
884.49	-0.000
884.66	-0.000
884.82	-0.000
884.99	-0.000
885.16	-0.000
885.33	-0.000
885.50	-0.000
885.67	-0.000
885.84	-0.000
886.01	-0.000
886.17	-0.000
886.34	-0.000
886.51	-0.000
886.68	-0.000
886.85	-0.000
887.02	-0.000
887.19	-0.000
887.36	-0.000
887.52	-0.000
887.69	-0.000
887.86	-0.000
888.03	-0.000
888.20	-0.000
888.37	-0.000
888.54	-0.000
888.70	-0.000
888.87	-0.000
889.04	-0.000
889.21	-0.000
889.38	-0.000
889.55	-0.000
889.71	-0.000
889.88	-0.000
890.05	-0.000
890.22	-0.000
890.39	-0.000
>>>>>End Processed Spectral Data<<<<<
