SpectraSuite Data File
++++++++++++++++++++++++++++++++++++
Date: Fri Jun 19 14:14:56 CEST 2015
User: introlabs
Dark Spectrum Present: Yes
Reference Spectrum Present: Yes
Number of Sampled Component Spectra: 1
Spectrometers: USB4H08886
Integration Time (usec): 745692 (USB4H08886)
Spectra Averaged: 5 (USB4H08886)
Boxcar Smoothing: 5 (USB4H08886)
Correct for Electrical Dark: Yes (USB4H08886)
Strobe/Lamp Enabled: No (USB4H08886)
Correct for Detector Non-linearity: Yes (USB4H08886)
Correct for Stray Light: Yes (USB4H08886)
Number of Pixels in Processed Spectrum: 3648
>>>>>Begin Processed Spectral Data<<<<<
178.14	-0.000
178.36	-0.000
178.57	-0.000
178.79	-0.000
179.01	-0.000
179.22	-0.000
179.44	-0.000
179.65	-0.000
179.87	-0.000
180.08	-0.000
180.30	-0.000
180.52	-0.000
180.73	-0.000
180.95	-0.000
181.16	-0.000
181.38	-0.000
181.59	-0.000
181.81	-0.000
182.03	-0.000
182.24	-0.000
182.46	-0.000
182.67	-0.000
182.89	-0.000
183.10	-0.000
183.32	-0.000
183.54	-0.000
183.75	-0.000
183.97	-0.000
184.18	-0.000
184.40	-0.000
184.61	-0.000
184.83	-0.000
185.04	-0.000
185.26	-0.000
185.48	-0.000
185.69	-0.000
185.91	-0.000
186.12	-0.000
186.34	-0.000
186.55	-0.000
186.77	-0.000
186.98	-0.000
187.20	-0.000
187.42	-0.000
187.63	-0.000
187.85	-0.000
188.06	-0.000
188.28	-0.000
188.49	-0.000
188.71	-0.000
188.92	-0.000
189.14	-0.000
189.36	-0.000
189.57	-0.000
189.79	-0.000
190.00	-0.000
190.22	-0.000
190.43	-0.000
190.65	-0.000
190.86	-0.000
191.08	-0.000
191.29	-0.000
191.51	-0.000
191.72	-0.000
191.94	-0.000
192.16	-0.000
192.37	-0.000
192.59	-0.000
192.80	-0.000
193.02	-0.000
193.23	-0.000
193.45	-0.000
193.66	-0.000
193.88	-0.000
194.09	-0.000
194.31	-0.000
194.52	-0.000
194.74	-0.000
194.95	-0.000
195.17	-0.000
195.38	-0.000
195.60	-0.000
195.81	-0.000
196.03	-0.000
196.25	-0.000
196.46	-0.000
196.68	-0.000
196.89	-0.000
197.11	-0.000
197.32	-0.000
197.54	-0.000
197.75	-0.000
197.97	-0.000
198.18	-0.000
198.40	-0.000
198.61	-0.000
198.83	-0.000
199.04	-0.000
199.26	-0.000
199.47	-0.000
199.69	-0.000
199.90	-0.000
200.12	-0.000
200.33	-0.000
200.55	-0.000
200.76	-0.000
200.98	-0.000
201.19	-0.000
201.41	-0.000
201.62	-0.000
201.84	-0.000
202.05	-0.000
202.27	-0.000
202.48	-0.000
202.70	-0.000
202.91	-0.000
203.13	-0.000
203.34	-0.000
203.56	-0.000
203.77	-0.000
203.99	-0.000
204.20	-0.000
204.42	-0.000
204.63	-0.000
204.85	-0.000
205.06	-0.000
205.28	-0.000
205.49	-0.000
205.71	-0.000
205.92	-0.000
206.14	-0.000
206.35	-0.000
206.56	-0.000
206.78	-0.000
206.99	-0.000
207.21	-0.000
207.42	-0.000
207.64	-0.000
207.85	-0.000
208.07	-0.000
208.28	-0.000
208.50	-0.000
208.71	-0.000
208.93	-0.000
209.14	-0.000
209.36	-0.000
209.57	-0.000
209.79	-0.000
210.00	-0.000
210.22	-0.000
210.43	-0.000
210.64	-0.000
210.86	-0.000
211.07	-0.000
211.29	-0.000
211.50	-0.000
211.72	-0.000
211.93	-0.000
212.15	-0.000
212.36	-0.000
212.58	-0.000
212.79	-0.000
213.01	-0.000
213.22	-0.000
213.43	-0.000
213.65	-0.000
213.86	-0.000
214.08	-0.000
214.29	-0.000
214.51	-0.000
214.72	-0.000
214.94	-0.000
215.15	-0.000
215.36	-0.000
215.58	-0.000
215.79	-0.000
216.01	-0.000
216.22	-0.000
216.44	-0.000
216.65	-0.000
216.87	-0.000
217.08	-0.000
217.29	-0.000
217.51	-0.000
217.72	-0.000
217.94	-0.000
218.15	-0.000
218.37	-0.000
218.58	-0.000
218.80	-0.000
219.01	-0.000
219.22	-0.000
219.44	-0.000
219.65	-0.000
219.87	-0.000
220.08	-0.000
220.30	-0.000
220.51	-0.000
220.72	-0.000
220.94	-0.000
221.15	-0.000
221.37	-0.000
221.58	-0.000
221.79	-0.000
222.01	-0.000
222.22	-0.000
222.44	-0.000
222.65	-0.000
222.87	-0.000
223.08	-0.000
223.29	-0.000
223.51	-0.000
223.72	-0.000
223.94	-0.000
224.15	-0.000
224.36	-0.000
224.58	-0.000
224.79	-0.000
225.01	-0.000
225.22	-0.000
225.44	-0.000
225.65	-0.000
225.86	-0.000
226.08	-0.000
226.29	-0.000
226.51	-0.000
226.72	-0.000
226.93	-0.000
227.15	-0.000
227.36	-0.000
227.58	-0.000
227.79	-0.000
228.00	-0.000
228.22	-0.000
228.43	-0.000
228.65	-0.000
228.86	-0.000
229.07	-0.000
229.29	-0.000
229.50	-0.000
229.72	-0.000
229.93	-0.000
230.14	-0.000
230.36	-0.000
230.57	-0.000
230.78	-0.000
231.00	-0.000
231.21	-0.000
231.43	-0.000
231.64	-0.000
231.85	-0.000
232.07	-0.000
232.28	-0.000
232.50	-0.000
232.71	-0.000
232.92	-0.000
233.14	-0.000
233.35	-0.000
233.56	-0.000
233.78	-0.000
233.99	-0.000
234.21	-0.000
234.42	-0.000
234.63	-0.000
234.85	-0.000
235.06	-0.000
235.27	-0.000
235.49	-0.000
235.70	-0.000
235.91	-0.000
236.13	-0.000
236.34	-0.000
236.56	-0.000
236.77	-0.000
236.98	-0.000
237.20	-0.000
237.41	-0.000
237.62	-0.000
237.84	-0.000
238.05	-0.000
238.26	-0.000
238.48	-0.000
238.69	-0.000
238.91	-0.000
239.12	-0.000
239.33	-0.000
239.55	-0.000
239.76	-0.000
239.97	-0.000
240.19	-0.000
240.40	-0.000
240.61	-0.000
240.83	-0.000
241.04	-0.000
241.25	-0.000
241.47	-0.000
241.68	-0.000
241.89	-0.000
242.11	-0.000
242.32	-0.000
242.53	-0.000
242.75	-0.000
242.96	-0.000
243.17	-0.000
243.39	-0.000
243.60	-0.000
243.81	-0.000
244.03	-0.000
244.24	-0.000
244.45	-0.000
244.67	-0.000
244.88	-0.000
245.09	-0.000
245.31	-0.000
245.52	-0.000
245.73	-0.000
245.95	-0.000
246.16	-0.000
246.37	-0.000
246.59	-0.000
246.80	-0.000
247.01	-0.000
247.23	-0.000
247.44	-0.000
247.65	-0.000
247.87	-0.000
248.08	-0.000
248.29	-0.000
248.51	-0.000
248.72	-0.000
248.93	-0.000
249.15	-0.000
249.36	-0.000
249.57	-0.000
249.78	-0.000
250.00	-0.000
250.21	-0.000
250.42	-0.000
250.64	-0.000
250.85	-0.000
251.06	-0.000
251.28	-0.000
251.49	-0.000
251.70	-0.000
251.92	-0.000
252.13	-0.000
252.34	-0.000
252.55	-0.000
252.77	-0.000
252.98	-0.000
253.19	-0.000
253.41	-0.000
253.62	-0.000
253.83	-0.000
254.05	-0.000
254.26	-0.000
254.47	-0.000
254.68	-0.000
254.90	-0.000
255.11	-0.000
255.32	-0.000
255.54	-0.000
255.75	-0.000
255.96	-0.000
256.17	-0.000
256.39	-0.000
256.60	-0.000
256.81	-0.000
257.03	-0.000
257.24	-0.000
257.45	-0.000
257.66	-0.000
257.88	-0.000
258.09	-0.000
258.30	-0.000
258.51	-0.000
258.73	-0.000
258.94	-0.000
259.15	-0.000
259.37	-0.000
259.58	-0.000
259.79	-0.000
260.00	-0.000
260.22	-0.000
260.43	-0.000
260.64	-0.000
260.85	-0.000
261.07	-0.000
261.28	-0.000
261.49	-0.000
261.71	-0.000
261.92	-0.000
262.13	-0.000
262.34	-0.000
262.56	-0.000
262.77	-0.000
262.98	-0.000
263.19	-0.000
263.41	-0.000
263.62	-0.000
263.83	-0.000
264.04	-0.000
264.26	-0.000
264.47	-0.000
264.68	-0.000
264.89	-0.000
265.11	-0.000
265.32	-0.000
265.53	-0.000
265.74	-0.000
265.96	-0.000
266.17	-0.000
266.38	-0.000
266.59	-0.000
266.81	-0.000
267.02	-0.000
267.23	-0.000
267.44	-0.000
267.65	-0.000
267.87	-0.000
268.08	-0.000
268.29	-0.000
268.50	-0.000
268.72	-0.000
268.93	-0.000
269.14	-0.000
269.35	-0.000
269.57	-0.000
269.78	-0.000
269.99	-0.000
270.20	-0.000
270.41	-0.000
270.63	-0.000
270.84	-0.000
271.05	-0.000
271.26	-0.000
271.48	-0.000
271.69	-0.000
271.90	-0.000
272.11	-0.000
272.32	-0.000
272.54	-0.000
272.75	-0.000
272.96	-0.000
273.17	-0.000
273.39	-0.000
273.60	-0.000
273.81	-0.000
274.02	-0.000
274.23	-0.000
274.45	-0.000
274.66	-0.000
274.87	-0.000
275.08	-0.000
275.29	-0.000
275.51	-0.000
275.72	-0.000
275.93	-0.000
276.14	-0.000
276.35	-0.000
276.57	-0.000
276.78	-0.000
276.99	-0.000
277.20	-0.000
277.41	-0.000
277.63	-0.000
277.84	-0.000
278.05	-0.000
278.26	-0.000
278.47	-0.000
278.69	-0.000
278.90	-0.000
279.11	-0.000
279.32	-0.000
279.53	-0.000
279.74	-0.000
279.96	-0.000
280.17	-0.000
280.38	-0.000
280.59	-0.000
280.80	-0.000
281.02	-0.000
281.23	-0.000
281.44	-0.000
281.65	-0.000
281.86	-0.000
282.07	-0.000
282.29	-0.000
282.50	-0.000
282.71	-0.000
282.92	-0.000
283.13	-0.000
283.35	-0.000
283.56	-0.000
283.77	-0.000
283.98	-0.000
284.19	-0.000
284.40	-0.000
284.62	-0.000
284.83	-0.000
285.04	-0.000
285.25	-0.000
285.46	-0.000
285.67	-0.000
285.88	-0.000
286.10	-0.000
286.31	-0.000
286.52	-0.000
286.73	-0.000
286.94	-0.000
287.15	-0.000
287.37	-0.000
287.58	-0.000
287.79	-0.000
288.00	-0.000
288.21	-0.000
288.42	-0.000
288.63	-0.000
288.85	-0.000
289.06	-0.000
289.27	-0.000
289.48	-0.000
289.69	-0.000
289.90	-0.000
290.11	-0.000
290.33	-0.000
290.54	-0.000
290.75	-0.000
290.96	-0.000
291.17	-0.000
291.38	-0.000
291.59	-0.000
291.81	-0.000
292.02	-0.000
292.23	-0.000
292.44	-0.000
292.65	-0.000
292.86	-0.000
293.07	-0.000
293.28	2.368
293.50	3.184
293.71	-0.000
293.92	-0.000
294.13	-0.000
294.34	-0.000
294.55	-0.000
294.76	-0.000
294.97	-0.000
295.19	-0.000
295.40	-0.000
295.61	-0.000
295.82	3.974
296.03	2.346
296.24	2.636
296.45	1.882
296.66	1.637
296.87	1.658
297.09	1.734
297.30	1.885
297.51	1.607
297.72	1.573
297.93	1.640
298.14	1.610
298.35	1.578
298.56	1.553
298.77	1.660
298.99	1.638
299.20	1.612
299.41	1.590
299.62	1.560
299.83	1.558
300.04	1.507
300.25	1.499
300.46	1.536
300.67	1.515
300.88	1.471
301.10	1.472
301.31	1.524
301.52	1.469
301.73	1.421
301.94	1.421
302.15	1.429
302.36	1.388
302.57	1.339
302.78	1.345
302.99	1.376
303.20	1.390
303.41	1.312
303.63	1.299
303.84	1.311
304.05	1.307
304.26	1.255
304.47	1.263
304.68	1.266
304.89	1.255
305.10	1.219
305.31	1.212
305.52	1.247
305.73	1.244
305.94	1.212
306.15	1.204
306.37	1.225
306.58	1.232
306.79	1.202
307.00	1.223
307.21	1.260
307.42	1.255
307.63	1.222
307.84	1.193
308.05	1.224
308.26	1.224
308.47	1.201
308.68	1.199
308.89	1.202
309.10	1.199
309.31	1.162
309.52	1.153
309.73	1.166
309.95	1.160
310.16	1.136
310.37	1.126
310.58	1.143
310.79	1.144
311.00	1.139
311.21	1.138
311.42	1.140
311.63	1.136
311.84	1.118
312.05	1.116
312.26	1.138
312.47	1.146
312.68	1.125
312.89	1.108
313.10	1.113
313.31	1.089
313.52	1.090
313.73	1.092
313.94	1.096
314.15	1.080
314.36	1.060
314.57	1.053
314.78	1.042
314.99	1.037
315.21	1.026
315.42	1.031
315.63	1.044
315.84	1.024
316.05	1.012
316.26	1.018
316.47	1.036
316.68	1.034
316.89	1.016
317.10	1.035
317.31	1.042
317.52	1.043
317.73	1.023
317.94	1.021
318.15	1.060
318.36	1.058
318.57	1.041
318.78	1.029
318.99	1.062
319.20	1.059
319.41	1.027
319.62	1.029
319.83	1.041
320.04	1.035
320.25	1.023
320.46	0.992
320.67	0.996
320.88	0.992
321.09	0.980
321.30	0.965
321.51	0.979
321.72	0.978
321.93	0.962
322.14	0.956
322.35	0.983
322.56	0.985
322.77	0.973
322.98	0.984
323.19	0.993
323.40	0.998
323.61	0.979
323.82	0.976
324.03	0.981
324.24	0.980
324.45	0.966
324.66	0.947
324.87	0.944
325.08	0.944
325.29	0.925
325.50	0.918
325.71	0.923
325.92	0.930
326.13	0.917
326.34	0.918
326.55	0.924
326.76	0.923
326.97	0.913
327.18	0.908
327.39	0.931
327.60	0.932
327.80	0.932
328.01	0.930
328.22	0.930
328.43	0.933
328.64	0.921
328.85	0.925
329.06	0.928
329.27	0.928
329.48	0.924
329.69	0.906
329.90	0.917
330.11	0.910
330.32	0.904
330.53	0.896
330.74	0.896
330.95	0.894
331.16	0.880
331.37	0.889
331.58	0.889
331.79	0.888
332.00	0.880
332.21	0.872
332.42	0.877
332.63	0.869
332.83	0.866
333.04	0.868
333.25	0.881
333.46	0.880
333.67	0.865
333.88	0.868
334.09	0.877
334.30	0.875
334.51	0.866
334.72	0.862
334.93	0.865
335.14	0.864
335.35	0.857
335.56	0.853
335.77	0.861
335.98	0.859
336.18	0.853
336.39	0.847
336.60	0.851
336.81	0.850
337.02	0.848
337.23	0.852
337.44	0.855
337.65	0.857
337.86	0.846
338.07	0.843
338.28	0.847
338.49	0.845
338.70	0.838
338.91	0.845
339.11	0.851
339.32	0.848
339.53	0.837
339.74	0.835
339.95	0.832
340.16	0.832
340.37	0.823
340.58	0.823
340.79	0.828
341.00	0.827
341.21	0.815
341.41	0.816
341.62	0.818
341.83	0.819
342.04	0.814
342.25	0.824
342.46	0.827
342.67	0.826
342.88	0.819
343.09	0.816
343.30	0.824
343.50	0.827
343.71	0.817
343.92	0.815
344.13	0.820
344.34	0.819
344.55	0.803
344.76	0.803
344.97	0.807
345.18	0.806
345.38	0.804
345.59	0.799
345.80	0.799
346.01	0.797
346.22	0.792
346.43	0.786
346.64	0.795
346.85	0.794
347.06	0.787
347.26	0.787
347.47	0.791
347.68	0.787
347.89	0.784
348.10	0.778
348.31	0.786
348.52	0.785
348.73	0.784
348.93	0.780
349.14	0.782
349.35	0.782
349.56	0.777
349.77	0.773
349.98	0.779
350.19	0.776
350.39	0.771
350.60	0.767
350.81	0.783
351.02	0.781
351.23	0.776
351.44	0.780
351.65	0.784
351.86	0.780
352.06	0.779
352.27	0.780
352.48	0.781
352.69	0.781
352.90	0.775
353.11	0.762
353.31	0.768
353.52	0.764
353.73	0.756
353.94	0.757
354.15	0.763
354.36	0.762
354.57	0.753
354.77	0.756
354.98	0.756
355.19	0.755
355.40	0.755
355.61	0.761
355.82	0.766
356.02	0.764
356.23	0.758
356.44	0.759
356.65	0.763
356.86	0.764
357.07	0.757
357.27	0.760
357.48	0.763
357.69	0.758
357.90	0.743
358.11	0.740
358.32	0.744
358.52	0.747
358.73	0.738
358.94	0.740
359.15	0.744
359.36	0.744
359.56	0.740
359.77	0.737
359.98	0.744
360.19	0.745
360.40	0.742
360.61	0.742
360.81	0.742
361.02	0.742
361.23	0.734
361.44	0.733
361.65	0.733
361.85	0.733
362.06	0.731
362.27	0.733
362.48	0.733
362.69	0.735
362.89	0.729
363.10	0.730
363.31	0.733
363.52	0.736
363.73	0.731
363.93	0.732
364.14	0.735
364.35	0.736
364.56	0.726
364.77	0.729
364.97	0.731
365.18	0.731
365.39	0.726
365.60	0.724
365.81	0.725
366.01	0.726
366.22	0.723
366.43	0.722
366.64	0.724
366.84	0.730
367.05	0.727
367.26	0.726
367.47	0.729
367.68	0.729
367.88	0.726
368.09	0.724
368.30	0.726
368.51	0.725
368.71	0.724
368.92	0.728
369.13	0.726
369.34	0.725
369.55	0.724
369.75	0.724
369.96	0.731
370.17	0.730
370.38	0.727
370.58	0.726
370.79	0.732
371.00	0.730
371.21	0.721
371.41	0.726
371.62	0.730
371.83	0.725
372.04	0.722
372.24	0.716
372.45	0.718
372.66	0.719
372.87	0.715
373.07	0.711
373.28	0.711
373.49	0.715
373.70	0.705
373.90	0.705
374.11	0.714
374.32	0.714
374.53	0.713
374.73	0.714
374.94	0.717
375.15	0.717
375.36	0.715
375.56	0.724
375.77	0.725
375.98	0.726
376.19	0.722
376.39	0.716
376.60	0.719
376.81	0.720
377.02	0.717
377.22	0.716
377.43	0.715
377.64	0.716
377.84	0.706
378.05	0.710
378.26	0.716
378.47	0.716
378.67	0.712
378.88	0.710
379.09	0.710
379.30	0.710
379.50	0.708
379.71	0.710
379.92	0.713
380.12	0.713
380.33	0.704
380.54	0.701
380.75	0.708
380.95	0.708
381.16	0.706
381.37	0.707
381.57	0.709
381.78	0.709
381.99	0.708
382.20	0.707
382.40	0.710
382.61	0.711
382.82	0.708
383.02	0.701
383.23	0.705
383.44	0.705
383.64	0.703
383.85	0.705
384.06	0.708
384.27	0.706
384.47	0.705
384.68	0.706
384.89	0.711
385.09	0.710
385.30	0.709
385.51	0.707
385.71	0.710
385.92	0.711
386.13	0.709
386.33	0.711
386.54	0.711
386.75	0.710
386.95	0.706
387.16	0.701
387.37	0.704
387.58	0.704
387.78	0.702
387.99	0.701
388.20	0.703
388.40	0.700
388.61	0.696
388.82	0.700
389.02	0.702
389.23	0.702
389.44	0.701
389.64	0.701
389.85	0.712
390.06	0.712
390.26	0.712
390.47	0.711
390.68	0.714
390.88	0.711
391.09	0.707
391.30	0.706
391.50	0.707
391.71	0.707
391.92	0.705
392.12	0.697
392.33	0.698
392.53	0.697
392.74	0.698
392.95	0.697
393.15	0.700
393.36	0.702
393.57	0.700
393.77	0.703
393.98	0.705
394.19	0.704
394.39	0.703
394.60	0.705
394.81	0.707
395.01	0.705
395.22	0.703
395.43	0.704
395.63	0.708
395.84	0.710
396.04	0.706
396.25	0.707
396.46	0.710
396.66	0.708
396.87	0.705
397.08	0.702
397.28	0.704
397.49	0.706
397.69	0.703
397.90	0.698
398.11	0.699
398.31	0.699
398.52	0.695
398.73	0.696
398.93	0.696
399.14	0.695
399.34	0.694
399.55	0.695
399.76	0.695
399.96	0.696
400.17	0.694
400.37	0.693
400.58	0.700
400.79	0.702
400.99	0.699
401.20	0.704
401.41	0.707
401.61	0.707
401.82	0.712
402.02	0.712
402.23	0.712
402.44	0.712
402.64	0.712
402.85	0.706
403.05	0.705
403.26	0.704
403.47	0.698
403.67	0.698
403.88	0.699
404.08	0.693
404.29	0.691
404.50	0.691
404.70	0.691
404.91	0.690
405.11	0.688
405.32	0.689
405.52	0.689
405.73	0.689
405.94	0.687
406.14	0.689
406.35	0.692
406.55	0.691
406.76	0.689
406.97	0.690
407.17	0.692
407.38	0.692
407.58	0.690
407.79	0.693
407.99	0.695
408.20	0.696
408.41	0.692
408.61	0.690
408.82	0.691
409.02	0.691
409.23	0.689
409.43	0.688
409.64	0.689
409.84	0.689
410.05	0.685
410.26	0.684
410.46	0.684
410.67	0.684
410.87	0.684
411.08	0.686
411.28	0.687
411.49	0.688
411.69	0.686
411.90	0.688
412.11	0.689
412.31	0.690
412.52	0.689
412.72	0.689
412.93	0.690
413.13	0.689
413.34	0.686
413.54	0.687
413.75	0.689
413.95	0.689
414.16	0.685
414.37	0.687
414.57	0.688
414.78	0.690
414.98	0.688
415.19	0.689
415.39	0.687
415.60	0.689
415.80	0.689
416.01	0.687
416.21	0.690
416.42	0.691
416.62	0.686
416.83	0.686
417.03	0.686
417.24	0.686
417.44	0.683
417.65	0.683
417.86	0.683
418.06	0.680
418.27	0.678
418.47	0.679
418.68	0.680
418.88	0.680
419.09	0.678
419.29	0.679
419.50	0.679
419.70	0.678
419.91	0.677
420.11	0.675
420.32	0.678
420.52	0.677
420.73	0.676
420.93	0.676
421.14	0.678
421.34	0.677
421.55	0.674
421.75	0.674
421.96	0.676
422.16	0.676
422.37	0.675
422.57	0.672
422.78	0.673
422.98	0.670
423.19	0.669
423.39	0.667
423.60	0.671
423.80	0.672
424.01	0.671
424.21	0.673
424.42	0.674
424.62	0.674
424.83	0.673
425.03	0.674
425.23	0.676
425.44	0.676
425.64	0.676
425.85	0.675
426.05	0.675
426.26	0.675
426.46	0.672
426.67	0.671
426.87	0.676
427.08	0.676
427.28	0.673
427.49	0.674
427.69	0.675
427.90	0.674
428.10	0.672
428.31	0.671
428.51	0.673
428.71	0.673
428.92	0.674
429.12	0.671
429.33	0.672
429.53	0.677
429.74	0.680
429.94	0.681
430.15	0.680
430.35	0.680
430.56	0.677
430.76	0.677
430.96	0.678
431.17	0.675
431.37	0.672
431.58	0.671
431.78	0.667
431.99	0.661
432.19	0.662
432.40	0.663
432.60	0.664
432.80	0.667
433.01	0.665
433.21	0.665
433.42	0.667
433.62	0.668
433.83	0.667
434.03	0.669
434.23	0.672
434.44	0.671
434.64	0.669
434.85	0.674
435.05	0.675
435.26	0.675
435.46	0.672
435.66	0.672
435.87	0.671
436.07	0.671
436.28	0.667
436.48	0.665
436.69	0.664
436.89	0.665
437.09	0.658
437.30	0.657
437.50	0.658
437.71	0.670
437.91	0.669
438.11	0.670
438.32	0.675
438.52	0.675
438.73	0.675
438.93	0.673
439.13	0.672
439.34	0.676
439.54	0.673
439.75	0.673
439.95	0.663
440.15	0.667
440.36	0.666
440.56	0.664
440.77	0.665
440.97	0.664
441.17	0.663
441.38	0.664
441.58	0.662
441.79	0.661
441.99	0.659
442.19	0.659
442.40	0.656
442.60	0.656
442.81	0.654
443.01	0.655
443.21	0.655
443.42	0.654
443.62	0.653
443.82	0.653
444.03	0.655
444.23	0.655
444.44	0.655
444.64	0.654
444.84	0.655
445.05	0.655
445.25	0.653
445.45	0.653
445.66	0.656
445.86	0.655
446.06	0.656
446.27	0.656
446.47	0.659
446.68	0.657
446.88	0.656
447.08	0.655
447.29	0.657
447.49	0.657
447.69	0.657
447.90	0.655
448.10	0.659
448.30	0.656
448.51	0.657
448.71	0.655
448.91	0.658
449.12	0.657
449.32	0.658
449.52	0.656
449.73	0.660
449.93	0.659
450.14	0.660
450.34	0.659
450.54	0.662
450.75	0.659
450.95	0.658
451.15	0.658
451.36	0.660
451.56	0.657
451.76	0.656
451.97	0.653
452.17	0.653
452.37	0.651
452.58	0.648
452.78	0.648
452.98	0.650
453.19	0.650
453.39	0.650
453.59	0.649
453.79	0.650
454.00	0.650
454.20	0.649
454.40	0.650
454.61	0.652
454.81	0.652
455.01	0.650
455.22	0.651
455.42	0.652
455.62	0.651
455.83	0.650
456.03	0.653
456.23	0.655
456.44	0.656
456.64	0.655
456.84	0.655
457.04	0.656
457.25	0.655
457.45	0.652
457.65	0.651
457.86	0.651
458.06	0.650
458.26	0.645
458.47	0.644
458.67	0.646
458.87	0.646
459.07	0.644
459.28	0.646
459.48	0.648
459.68	0.648
459.89	0.648
460.09	0.647
460.29	0.648
460.49	0.650
460.70	0.649
460.90	0.648
461.10	0.649
461.31	0.649
461.51	0.646
461.71	0.647
461.91	0.649
462.12	0.648
462.32	0.647
462.52	0.648
462.72	0.651
462.93	0.652
463.13	0.651
463.33	0.652
463.53	0.653
463.74	0.653
463.94	0.648
464.14	0.649
464.35	0.650
464.55	0.650
464.75	0.647
464.95	0.644
465.16	0.646
465.36	0.645
465.56	0.644
465.76	0.643
465.97	0.643
466.17	0.644
466.37	0.641
466.57	0.643
466.78	0.643
466.98	0.644
467.18	0.642
467.38	0.641
467.59	0.642
467.79	0.644
467.99	0.643
468.19	0.645
468.39	0.648
468.60	0.647
468.80	0.645
469.00	0.647
469.20	0.648
469.41	0.649
469.61	0.648
469.81	0.649
470.01	0.648
470.22	0.648
470.42	0.645
470.62	0.644
470.82	0.645
471.02	0.645
471.23	0.643
471.43	0.643
471.63	0.645
471.83	0.644
472.04	0.642
472.24	0.641
472.44	0.647
472.64	0.648
472.84	0.645
473.05	0.646
473.25	0.648
473.45	0.647
473.65	0.646
473.85	0.647
474.06	0.649
474.26	0.648
474.46	0.649
474.66	0.646
474.86	0.646
475.07	0.647
475.27	0.644
475.47	0.642
475.67	0.643
475.87	0.645
476.08	0.641
476.28	0.641
476.48	0.643
476.68	0.641
476.88	0.639
477.09	0.640
477.29	0.642
477.49	0.643
477.69	0.642
477.89	0.642
478.09	0.640
478.30	0.643
478.50	0.640
478.70	0.639
478.90	0.640
479.10	0.642
479.31	0.643
479.51	0.641
479.71	0.642
479.91	0.641
480.11	0.640
480.31	0.641
480.52	0.641
480.72	0.640
480.92	0.640
481.12	0.638
481.32	0.636
481.52	0.634
481.72	0.634
481.93	0.637
482.13	0.638
482.33	0.638
482.53	0.636
482.73	0.637
482.93	0.638
483.14	0.637
483.34	0.637
483.54	0.637
483.74	0.637
483.94	0.636
484.14	0.632
484.34	0.632
484.55	0.633
484.75	0.632
484.95	0.630
485.15	0.629
485.35	0.629
485.55	0.629
485.75	0.628
485.96	0.628
486.16	0.630
486.36	0.629
486.56	0.627
486.76	0.628
486.96	0.628
487.16	0.628
487.36	0.626
487.57	0.626
487.77	0.627
487.97	0.627
488.17	0.625
488.37	0.624
488.57	0.625
488.77	0.625
488.97	0.623
489.18	0.623
489.38	0.625
489.58	0.626
489.78	0.625
489.98	0.625
490.18	0.625
490.38	0.625
490.58	0.624
490.78	0.625
490.98	0.626
491.19	0.627
491.39	0.626
491.59	0.625
491.79	0.628
491.99	0.629
492.19	0.628
492.39	0.631
492.59	0.632
492.79	0.634
492.99	0.634
493.20	0.634
493.40	0.634
493.60	0.636
493.80	0.634
494.00	0.631
494.20	0.631
494.40	0.631
494.60	0.629
494.80	0.633
495.00	0.632
495.20	0.630
495.40	0.630
495.61	0.631
495.81	0.631
496.01	0.635
496.21	0.636
496.41	0.635
496.61	0.636
496.81	0.635
497.01	0.630
497.21	0.629
497.41	0.630
497.61	0.630
497.81	0.627
498.01	0.627
498.21	0.625
498.41	0.623
498.61	0.623
498.82	0.624
499.02	0.626
499.22	0.627
499.42	0.627
499.62	0.628
499.82	0.628
500.02	0.630
500.22	0.628
500.42	0.630
500.62	0.631
500.82	0.631
501.02	0.629
501.22	0.629
501.42	0.629
501.62	0.631
501.82	0.631
502.02	0.631
502.22	0.630
502.42	0.632
502.62	0.629
502.82	0.629
503.02	0.630
503.22	0.630
503.42	0.628
503.63	0.628
503.83	0.625
504.03	0.624
504.23	0.623
504.43	0.624
504.63	0.625
504.83	0.625
505.03	0.624
505.23	0.625
505.43	0.627
505.63	0.628
505.83	0.627
506.03	0.629
506.23	0.632
506.43	0.632
506.63	0.631
506.83	0.630
507.03	0.632
507.23	0.632
507.43	0.629
507.63	0.630
507.83	0.630
508.03	0.630
508.23	0.630
508.43	0.628
508.63	0.630
508.83	0.630
509.03	0.631
509.23	0.630
509.43	0.632
509.63	0.632
509.83	0.630
510.03	0.633
510.23	0.635
510.43	0.635
510.63	0.636
510.83	0.635
511.03	0.637
511.23	0.635
511.43	0.634
511.63	0.636
511.83	0.638
512.03	0.638
512.22	0.634
512.42	0.634
512.62	0.635
512.82	0.635
513.02	0.634
513.22	0.634
513.42	0.636
513.62	0.639
513.82	0.636
514.02	0.635
514.22	0.637
514.42	0.637
514.62	0.637
514.82	0.636
515.02	0.638
515.22	0.641
515.42	0.640
515.62	0.642
515.82	0.641
516.02	0.642
516.22	0.642
516.42	0.643
516.62	0.645
516.82	0.647
517.01	0.645
517.21	0.645
517.41	0.648
517.61	0.648
517.81	0.644
518.01	0.643
518.21	0.643
518.41	0.642
518.61	0.642
518.81	0.642
519.01	0.643
519.21	0.643
519.41	0.642
519.61	0.637
519.81	0.639
520.00	0.640
520.20	0.640
520.40	0.643
520.60	0.644
520.80	0.642
521.00	0.642
521.20	0.643
521.40	0.647
521.60	0.647
521.80	0.647
522.00	0.646
522.20	0.649
522.39	0.648
522.59	0.645
522.79	0.647
522.99	0.650
523.19	0.649
523.39	0.646
523.59	0.645
523.79	0.648
523.99	0.651
524.19	0.649
524.38	0.648
524.58	0.649
524.78	0.650
524.98	0.648
525.18	0.650
525.38	0.651
525.58	0.651
525.78	0.648
525.98	0.647
526.18	0.647
526.37	0.646
526.57	0.648
526.77	0.648
526.97	0.649
527.17	0.649
527.37	0.645
527.57	0.647
527.77	0.649
527.96	0.650
528.16	0.649
528.36	0.650
528.56	0.652
528.76	0.649
528.96	0.648
529.16	0.649
529.36	0.652
529.55	0.652
529.75	0.648
529.95	0.648
530.15	0.650
530.35	0.652
530.55	0.650
530.75	0.650
530.94	0.652
531.14	0.653
531.34	0.651
531.54	0.649
531.74	0.653
531.94	0.656
532.13	0.654
532.33	0.656
532.53	0.655
532.73	0.654
532.93	0.652
533.13	0.653
533.33	0.653
533.52	0.654
533.72	0.657
533.92	0.655
534.12	0.653
534.32	0.653
534.52	0.651
534.71	0.653
534.91	0.656
535.11	0.658
535.31	0.656
535.51	0.658
535.71	0.660
535.90	0.657
536.10	0.658
536.30	0.660
536.50	0.661
536.70	0.661
536.89	0.659
537.09	0.658
537.29	0.660
537.49	0.661
537.69	0.659
537.89	0.659
538.08	0.659
538.28	0.657
538.48	0.657
538.68	0.659
538.88	0.661
539.07	0.660
539.27	0.659
539.47	0.658
539.67	0.659
539.87	0.660
540.06	0.658
540.26	0.659
540.46	0.661
540.66	0.658
540.86	0.655
541.05	0.655
541.25	0.658
541.45	0.658
541.65	0.656
541.84	0.657
542.04	0.658
542.24	0.658
542.44	0.657
542.64	0.658
542.83	0.661
543.03	0.662
543.23	0.659
543.43	0.660
543.62	0.662
543.82	0.662
544.02	0.661
544.22	0.661
544.42	0.665
544.61	0.666
544.81	0.663
545.01	0.663
545.21	0.664
545.40	0.665
545.60	0.662
545.80	0.665
546.00	0.666
546.19	0.665
546.39	0.663
546.59	0.660
546.79	0.662
546.98	0.662
547.18	0.661
547.38	0.661
547.58	0.665
547.77	0.665
547.97	0.661
548.17	0.663
548.37	0.663
548.56	0.664
548.76	0.664
548.96	0.665
549.16	0.667
549.35	0.667
549.55	0.665
549.75	0.665
549.95	0.669
550.14	0.669
550.34	0.667
550.54	0.672
550.73	0.675
550.93	0.675
551.13	0.672
551.33	0.671
551.52	0.671
551.72	0.671
551.92	0.669
552.12	0.670
552.31	0.672
552.51	0.672
552.71	0.667
552.90	0.668
553.10	0.669
553.30	0.669
553.50	0.668
553.69	0.669
553.89	0.670
554.09	0.670
554.28	0.667
554.48	0.669
554.68	0.671
554.87	0.671
555.07	0.667
555.27	0.667
555.47	0.669
555.66	0.669
555.86	0.668
556.06	0.670
556.25	0.672
556.45	0.680
556.65	0.678
556.84	0.681
557.04	0.685
557.24	0.686
557.43	0.685
557.63	0.688
557.83	0.690
558.02	0.690
558.22	0.694
558.42	0.694
558.61	0.687
558.81	0.687
559.01	0.683
559.21	0.683
559.40	0.685
559.60	0.685
559.80	0.681
559.99	0.682
560.19	0.684
560.39	0.678
560.58	0.675
560.78	0.675
560.97	0.679
561.17	0.678
561.37	0.675
561.56	0.676
561.76	0.678
561.96	0.677
562.15	0.675
562.35	0.677
562.55	0.679
562.74	0.679
562.94	0.677
563.14	0.676
563.33	0.677
563.53	0.677
563.73	0.674
563.92	0.676
564.12	0.679
564.31	0.681
564.51	0.679
564.71	0.680
564.90	0.683
565.10	0.684
565.30	0.686
565.49	0.687
565.69	0.689
565.89	0.689
566.08	0.686
566.28	0.687
566.47	0.689
566.67	0.687
566.87	0.684
567.06	0.686
567.26	0.692
567.46	0.687
567.65	0.686
567.85	0.688
568.04	0.691
568.24	0.690
568.44	0.687
568.63	0.686
568.83	0.688
569.02	0.687
569.22	0.682
569.42	0.679
569.61	0.681
569.81	0.680
570.00	0.678
570.20	0.679
570.40	0.680
570.59	0.679
570.79	0.677
570.98	0.675
571.18	0.677
571.38	0.676
571.57	0.673
571.77	0.671
571.96	0.675
572.16	0.672
572.35	0.667
572.55	0.667
572.75	0.666
572.94	0.665
573.14	0.664
573.33	0.664
573.53	0.664
573.73	0.664
573.92	0.662
574.12	0.660
574.31	0.663
574.51	0.664
574.70	0.661
574.90	0.663
575.09	0.666
575.29	0.666
575.49	0.663
575.68	0.664
575.88	0.666
576.07	0.667
576.27	0.664
576.46	0.663
576.66	0.662
576.86	0.662
577.05	0.659
577.25	0.657
577.44	0.659
577.64	0.659
577.83	0.657
578.03	0.658
578.22	0.658
578.42	0.658
578.61	0.656
578.81	0.656
579.00	0.657
579.20	0.657
579.40	0.655
579.59	0.654
579.79	0.655
579.98	0.654
580.18	0.653
580.37	0.653
580.57	0.656
580.76	0.660
580.96	0.659
581.15	0.660
581.35	0.662
581.54	0.661
581.74	0.660
581.93	0.662
582.13	0.664
582.32	0.661
582.52	0.659
582.71	0.658
582.91	0.654
583.10	0.654
583.30	0.652
583.49	0.651
583.69	0.655
583.88	0.656
584.08	0.655
584.27	0.657
584.47	0.660
584.66	0.661
584.86	0.660
585.05	0.663
585.25	0.666
585.44	0.665
585.64	0.664
585.83	0.661
586.03	0.661
586.22	0.660
586.42	0.656
586.61	0.658
586.81	0.660
587.00	0.660
587.20	0.657
587.39	0.658
587.59	0.660
587.78	0.661
587.98	0.662
588.17	0.663
588.37	0.665
588.56	0.667
588.76	0.663
588.95	0.663
589.15	0.667
589.34	0.670
589.54	0.668
589.73	0.669
589.92	0.672
590.12	0.671
590.31	0.668
590.51	0.673
590.70	0.675
590.90	0.675
591.09	0.673
591.29	0.672
591.48	0.672
591.68	0.673
591.87	0.670
592.06	0.670
592.26	0.673
592.45	0.672
592.65	0.666
592.84	0.665
593.04	0.668
593.23	0.670
593.43	0.667
593.62	0.667
593.81	0.668
594.01	0.667
594.20	0.665
594.40	0.665
594.59	0.667
594.79	0.668
594.98	0.666
595.17	0.665
595.37	0.667
595.56	0.669
595.76	0.668
595.95	0.669
596.14	0.672
596.34	0.674
596.53	0.672
596.73	0.673
596.92	0.675
597.12	0.677
597.31	0.677
597.50	0.676
597.70	0.678
597.89	0.677
598.09	0.674
598.28	0.675
598.47	0.677
598.67	0.675
598.86	0.672
599.06	0.673
599.25	0.674
599.44	0.672
599.64	0.669
599.83	0.667
600.03	0.670
600.22	0.671
600.41	0.671
600.61	0.669
600.80	0.672
601.00	0.672
601.19	0.668
601.38	0.667
601.58	0.669
601.77	0.670
601.96	0.672
602.16	0.672
602.35	0.680
602.55	0.677
602.74	0.678
602.93	0.679
603.13	0.685
603.32	0.686
603.51	0.685
603.71	0.688
603.90	0.690
604.09	0.690
604.29	0.687
604.48	0.681
604.68	0.683
604.87	0.683
605.06	0.679
605.26	0.675
605.45	0.676
605.64	0.675
605.84	0.670
606.03	0.669
606.22	0.668
606.42	0.668
606.61	0.664
606.80	0.664
607.00	0.666
607.19	0.666
607.38	0.665
607.58	0.666
607.77	0.669
607.96	0.670
608.16	0.668
608.35	0.672
608.54	0.676
608.74	0.679
608.93	0.683
609.12	0.686
609.32	0.690
609.51	0.693
609.70	0.691
609.90	0.693
610.09	0.698
610.28	0.703
610.48	0.697
610.67	0.698
610.86	0.699
611.06	0.693
611.25	0.691
611.44	0.691
611.64	0.691
611.83	0.694
612.02	0.690
612.21	0.688
612.41	0.687
612.60	0.685
612.79	0.681
612.99	0.681
613.18	0.684
613.37	0.682
613.57	0.679
613.76	0.681
613.95	0.679
614.14	0.678
614.34	0.676
614.53	0.677
614.72	0.680
614.92	0.681
615.11	0.678
615.30	0.674
615.49	0.676
615.69	0.678
615.88	0.675
616.07	0.676
616.26	0.678
616.46	0.679
616.65	0.676
616.84	0.675
617.04	0.676
617.23	0.679
617.42	0.680
617.61	0.684
617.81	0.684
618.00	0.687
618.19	0.685
618.38	0.689
618.58	0.692
618.77	0.693
618.96	0.692
619.15	0.694
619.35	0.697
619.54	0.697
619.73	0.692
619.92	0.694
620.12	0.697
620.31	0.698
620.50	0.692
620.69	0.692
620.89	0.696
621.08	0.696
621.27	0.696
621.46	0.694
621.66	0.699
621.85	0.700
622.04	0.696
622.23	0.697
622.43	0.697
622.62	0.697
622.81	0.696
623.00	0.696
623.19	0.700
623.39	0.700
623.58	0.697
623.77	0.695
623.96	0.698
624.16	0.699
624.35	0.693
624.54	0.696
624.73	0.700
624.92	0.698
625.12	0.695
625.31	0.695
625.50	0.698
625.69	0.698
625.88	0.695
626.08	0.695
626.27	0.696
626.46	0.698
626.65	0.694
626.84	0.694
627.04	0.700
627.23	0.699
627.42	0.695
627.61	0.697
627.80	0.700
628.00	0.700
628.19	0.698
628.38	0.701
628.57	0.703
628.76	0.702
628.96	0.698
629.15	0.698
629.34	0.701
629.53	0.701
629.72	0.696
629.91	0.696
630.11	0.701
630.30	0.702
630.49	0.704
630.68	0.705
630.87	0.709
631.06	0.711
631.26	0.707
631.45	0.709
631.64	0.718
631.83	0.720
632.02	0.717
632.21	0.716
632.41	0.723
632.60	0.718
632.79	0.715
632.98	0.716
633.17	0.717
633.36	0.718
633.55	0.715
633.75	0.710
633.94	0.712
634.13	0.712
634.32	0.709
634.51	0.702
634.70	0.705
634.89	0.705
635.09	0.701
635.28	0.702
635.47	0.703
635.66	0.706
635.85	0.701
636.04	0.702
636.23	0.706
636.43	0.708
636.62	0.708
636.81	0.707
637.00	0.709
637.19	0.712
637.38	0.708
637.57	0.708
637.76	0.710
637.95	0.711
638.15	0.707
638.34	0.703
638.53	0.708
638.72	0.709
638.91	0.706
639.10	0.704
639.29	0.705
639.48	0.706
639.67	0.706
639.87	0.705
640.06	0.711
640.25	0.711
640.44	0.712
640.63	0.712
640.82	0.714
641.01	0.714
641.20	0.715
641.39	0.715
641.58	0.718
641.78	0.716
641.97	0.712
642.16	0.726
642.35	0.727
642.54	0.726
642.73	0.720
642.92	0.719
643.11	0.723
643.30	0.722
643.49	0.717
643.68	0.718
643.87	0.720
644.06	0.721
644.25	0.700
644.45	0.702
644.64	0.704
644.83	0.705
645.02	0.701
645.21	0.700
645.40	0.702
645.59	0.702
645.78	0.697
645.97	0.699
646.16	0.701
646.35	0.700
646.54	0.698
646.73	0.699
646.92	0.700
647.11	0.700
647.30	0.696
647.49	0.698
647.68	0.698
647.88	0.697
648.07	0.689
648.26	0.692
648.45	0.694
648.64	0.691
648.83	0.688
649.02	0.691
649.21	0.701
649.40	0.699
649.59	0.694
649.78	0.695
649.97	0.710
650.16	0.710
650.35	0.704
650.54	0.707
650.73	0.715
650.92	0.712
651.11	0.705
651.30	0.703
651.49	0.709
651.68	0.709
651.87	0.705
652.06	0.695
652.25	0.698
652.44	0.699
652.63	0.696
652.82	0.695
653.01	0.695
653.20	0.693
653.39	0.680
653.58	0.679
653.77	0.679
653.96	0.674
654.15	0.666
654.34	0.665
654.53	0.661
654.72	0.656
654.91	0.646
655.10	0.643
655.29	0.641
655.48	0.639
655.67	0.633
655.86	0.631
656.05	0.629
656.24	0.629
656.43	0.623
656.62	0.622
656.81	0.623
657.00	0.621
657.19	0.619
657.38	0.619
657.57	0.618
657.76	0.621
657.95	0.618
658.14	0.622
658.33	0.625
658.51	0.631
658.70	0.631
658.89	0.633
659.08	0.642
659.27	0.648
659.46	0.648
659.65	0.654
659.84	0.658
660.03	0.661
660.22	0.661
660.41	0.666
660.60	0.664
660.79	0.666
660.98	0.671
661.17	0.671
661.36	0.670
661.55	0.671
661.74	0.667
661.92	0.670
662.11	0.673
662.30	0.672
662.49	0.665
662.68	0.665
662.87	0.668
663.06	0.662
663.25	0.661
663.44	0.662
663.63	0.663
663.82	0.663
664.01	0.657
664.20	0.655
664.38	0.657
664.57	0.657
664.76	0.656
664.95	0.657
665.14	0.661
665.33	0.657
665.52	0.663
665.71	0.667
665.90	0.667
666.09	0.669
666.28	0.666
666.46	0.666
666.65	0.668
666.84	0.666
667.03	0.659
667.22	0.658
667.41	0.661
667.60	0.652
667.79	0.644
667.98	0.646
668.16	0.647
668.35	0.647
668.54	0.642
668.73	0.643
668.92	0.644
669.11	0.644
669.30	0.638
669.49	0.635
669.67	0.637
669.86	0.639
670.05	0.636
670.24	0.634
670.43	0.631
670.62	0.631
670.81	0.625
671.00	0.626
671.18	0.626
671.37	0.625
671.56	0.623
671.75	0.622
671.94	0.619
672.13	0.617
672.32	0.612
672.50	0.612
672.69	0.613
672.88	0.614
673.07	0.610
673.26	0.612
673.45	0.614
673.63	0.614
673.82	0.610
674.01	0.611
674.20	0.611
674.39	0.611
674.58	0.610
674.76	0.609
674.95	0.608
675.14	0.607
675.33	0.602
675.52	0.600
675.71	0.600
675.89	0.600
676.08	0.595
676.27	0.596
676.46	0.597
676.65	0.596
676.84	0.596
677.02	0.597
677.21	0.599
677.40	0.598
677.59	0.596
677.78	0.597
677.96	0.599
678.15	0.598
678.34	0.595
678.53	0.596
678.72	0.596
678.90	0.593
679.09	0.589
679.28	0.586
679.47	0.586
679.66	0.585
679.84	0.582
680.03	0.579
680.22	0.578
680.41	0.580
680.60	0.576
680.78	0.576
680.97	0.578
681.16	0.578
681.35	0.577
681.53	0.575
681.72	0.577
681.91	0.579
682.10	0.578
682.29	0.581
682.47	0.579
682.66	0.579
682.85	0.577
683.04	0.575
683.22	0.575
683.41	0.576
683.60	0.576
683.79	0.577
683.97	0.576
684.16	0.575
684.35	0.571
684.54	0.572
684.72	0.572
684.91	0.573
685.10	0.571
685.29	0.573
685.47	0.571
685.66	0.570
685.85	0.566
686.04	0.565
686.22	0.568
686.41	0.571
686.60	0.568
686.79	0.571
686.97	0.572
687.16	0.574
687.35	0.571
687.54	0.574
687.72	0.578
687.91	0.578
688.10	0.580
688.29	0.579
688.47	0.577
688.66	0.577
688.85	0.573
689.03	0.570
689.22	0.574
689.41	0.575
689.60	0.570
689.78	0.567
689.97	0.567
690.16	0.564
690.34	0.561
690.53	0.560
690.72	0.561
690.91	0.558
691.09	0.557
691.28	0.551
691.47	0.550
691.65	0.548
691.84	0.546
692.03	0.545
692.21	0.543
692.40	0.543
692.59	0.540
692.77	0.539
692.96	0.540
693.15	0.541
693.34	0.539
693.52	0.539
693.71	0.539
693.90	0.540
694.08	0.541
694.27	0.542
694.46	0.551
694.64	0.552
694.83	0.552
695.02	0.551
695.20	0.551
695.39	0.550
695.58	0.550
695.76	0.551
695.95	0.550
696.14	0.549
696.32	0.547
696.51	0.538
696.70	0.538
696.88	0.538
697.07	0.537
697.26	0.539
697.44	0.541
697.63	0.539
697.81	0.537
698.00	0.536
698.19	0.536
698.37	0.536
698.56	0.535
698.75	0.536
698.93	0.536
699.12	0.535
699.31	0.533
699.49	0.533
699.68	0.534
699.87	0.537
700.05	0.537
700.24	0.536
700.42	0.538
700.61	0.537
700.80	0.534
700.98	0.534
701.17	0.536
701.36	0.535
701.54	0.533
701.73	0.534
701.91	0.532
702.10	0.531
702.29	0.529
702.47	0.527
702.66	0.529
702.84	0.531
703.03	0.530
703.22	0.531
703.40	0.532
703.59	0.533
703.77	0.533
703.96	0.533
704.15	0.534
704.33	0.535
704.52	0.534
704.70	0.534
704.89	0.533
705.08	0.531
705.26	0.527
705.45	0.527
705.63	0.526
705.82	0.523
706.00	0.521
706.19	0.521
706.38	0.521
706.56	0.520
706.75	0.517
706.93	0.516
707.12	0.518
707.30	0.519
707.49	0.516
707.68	0.515
707.86	0.514
708.05	0.514
708.23	0.511
708.42	0.511
708.60	0.513
708.79	0.513
708.98	0.512
709.16	0.511
709.35	0.513
709.53	0.517
709.72	0.516
709.90	0.518
710.09	0.520
710.27	0.523
710.46	0.526
710.64	0.525
710.83	0.527
711.02	0.528
711.20	0.526
711.39	0.525
711.57	0.523
711.76	0.523
711.94	0.521
712.13	0.522
712.31	0.522
712.50	0.517
712.68	0.514
712.87	0.516
713.05	0.516
713.24	0.517
713.42	0.516
713.61	0.517
713.79	0.518
713.98	0.518
714.16	0.518
714.35	0.517
714.54	0.518
714.72	0.518
714.91	0.515
715.09	0.522
715.28	0.524
715.46	0.524
715.65	0.522
715.83	0.522
716.02	0.524
716.20	0.521
716.39	0.520
716.57	0.522
716.76	0.524
716.94	0.525
717.12	0.518
717.31	0.519
717.49	0.523
717.68	0.525
717.86	0.524
718.05	0.527
718.23	0.530
718.42	0.532
718.60	0.533
718.79	0.541
718.97	0.543
719.16	0.543
719.34	0.540
719.53	0.540
719.71	0.539
719.90	0.541
720.08	0.538
720.27	0.539
720.45	0.538
720.63	0.536
720.82	0.530
721.00	0.533
721.19	0.536
721.37	0.537
721.56	0.536
721.74	0.539
721.93	0.548
722.11	0.554
722.30	0.552
722.48	0.557
722.66	0.558
722.85	0.557
723.03	0.557
723.22	0.556
723.40	0.559
723.59	0.559
723.77	0.563
723.95	0.556
724.14	0.558
724.32	0.559
724.51	0.558
724.69	0.560
724.88	0.560
725.06	0.559
725.24	0.560
725.43	0.562
725.61	0.565
725.80	0.560
725.98	0.558
726.16	0.554
726.35	0.561
726.53	0.560
726.72	0.558
726.90	0.568
727.09	0.569
727.27	0.574
727.45	0.569
727.64	0.578
727.82	0.586
728.01	0.590
728.19	0.586
728.37	0.590
728.56	0.593
728.74	0.600
728.92	0.589
729.11	0.591
729.29	0.588
729.48	0.592
729.66	0.582
729.84	0.582
730.03	0.586
730.21	0.588
730.40	0.579
730.58	0.581
730.76	0.581
730.95	0.583
731.13	0.583
731.31	0.597
731.50	0.607
731.68	0.610
731.86	0.605
732.05	0.618
732.23	0.622
732.42	0.625
732.60	0.629
732.78	0.634
732.97	0.652
733.15	0.658
733.33	0.645
733.52	0.650
733.70	0.661
733.88	0.668
734.07	0.653
734.25	0.680
734.43	0.687
734.62	0.687
734.80	0.683
734.98	0.674
735.17	0.682
735.35	0.689
735.53	0.676
735.72	0.680
735.90	0.704
736.08	0.724
736.27	0.699
736.45	0.711
736.63	0.723
736.82	0.733
737.00	0.731
737.18	0.743
737.37	0.777
737.55	0.799
737.73	0.790
737.92	0.790
738.10	0.789
738.28	0.809
738.46	0.796
738.65	0.811
738.83	0.831
739.01	0.881
739.20	0.868
739.38	0.847
739.56	0.841
739.75	0.846
739.93	0.812
740.11	0.836
740.29	0.837
740.48	0.840
740.66	0.819
740.84	0.817
741.03	0.783
741.21	0.793
741.39	0.774
741.57	0.787
741.76	0.805
741.94	0.812
742.12	0.773
742.31	0.776
742.49	0.796
742.67	0.819
742.85	0.830
743.04	0.833
743.22	0.841
743.40	0.895
743.58	0.874
743.77	0.887
743.95	0.922
744.13	0.970
744.31	0.950
744.50	0.945
744.68	0.940
744.86	0.914
745.04	0.927
745.23	0.993
745.41	0.977
745.59	0.983
745.77	0.950
745.96	0.938
746.14	0.955
746.32	0.957
746.50	0.946
746.69	0.934
746.87	0.947
747.05	0.933
747.23	0.858
747.42	0.843
747.60	0.867
747.78	0.872
747.96	0.897
748.14	0.851
748.33	0.878
748.51	0.873
748.69	0.864
748.87	0.886
749.06	0.883
749.24	0.883
749.42	0.863
749.60	0.847
749.78	0.853
749.97	0.810
750.15	0.802
750.33	0.804
750.51	0.827
750.69	0.832
750.88	0.839
751.06	0.852
751.24	0.883
751.42	0.878
751.60	0.874
751.79	0.948
751.97	0.995
752.15	0.993
752.33	0.959
752.51	1.025
752.69	1.042
752.88	1.006
753.06	1.043
753.24	1.006
753.42	1.049
753.60	1.209
753.78	1.067
753.97	1.082
754.15	1.104
754.33	1.133
754.51	1.009
754.69	0.996
754.87	1.027
755.06	0.960
755.24	0.960
755.42	0.961
755.60	0.861
755.78	0.869
755.96	0.822
756.15	0.821
756.33	0.824
756.51	0.841
756.69	0.824
756.87	0.793
757.05	0.815
757.23	0.802
757.42	0.773
757.60	0.772
757.78	0.763
757.96	0.759
758.14	0.742
758.32	0.730
758.50	0.744
758.69	0.742
758.87	0.733
759.05	0.739
759.23	0.748
759.41	0.750
759.59	0.744
759.77	0.763
759.95	0.792
760.13	0.842
760.32	0.840
760.50	0.833
760.68	0.857
760.86	0.860
761.04	0.829
761.22	0.832
761.40	0.876
761.58	0.876
761.76	0.852
761.95	0.833
762.13	0.790
762.31	0.793
762.49	0.765
762.67	0.783
762.85	0.795
763.03	0.787
763.21	0.769
763.39	0.750
763.57	0.755
763.75	0.750
763.94	0.735
764.12	0.737
764.30	0.759
764.48	0.763
764.66	0.727
764.84	0.726
765.02	0.766
765.20	0.774
765.38	0.756
765.56	0.761
765.74	0.799
765.92	0.801
766.10	0.804
766.28	0.796
766.46	0.824
766.65	0.825
766.83	0.813
767.01	0.797
767.19	0.803
767.37	0.803
767.55	0.790
767.73	0.769
767.91	0.774
768.09	0.765
768.27	0.756
768.45	0.747
768.63	0.753
768.81	0.751
768.99	0.727
769.17	0.751
769.35	0.763
769.53	0.762
769.71	0.744
769.89	0.753
770.07	0.758
770.25	0.741
770.43	0.717
770.61	0.739
770.79	0.748
770.97	0.758
771.15	0.728
771.33	0.733
771.51	0.734
771.69	0.745
771.87	0.752
772.05	0.758
772.24	0.767
772.42	0.779
772.60	0.757
772.78	0.814
772.96	0.841
773.14	0.838
773.32	0.816
773.49	0.823
773.67	0.822
773.85	0.800
774.03	0.787
774.21	0.818
774.39	0.828
774.57	0.852
774.75	0.782
774.93	0.780
775.11	0.799
775.29	0.804
775.47	0.806
775.65	0.816
775.83	0.832
776.01	0.852
776.19	0.806
776.37	0.807
776.55	0.806
776.73	0.803
776.91	0.796
777.09	0.781
777.27	0.781
777.45	0.769
777.63	0.746
777.81	0.746
777.99	0.735
778.17	0.735
778.35	0.713
778.53	0.704
778.71	0.712
778.89	0.700
779.07	0.690
779.24	0.694
779.42	0.698
779.60	0.716
779.78	0.709
779.96	0.715
780.14	0.724
780.32	0.745
780.50	0.726
780.68	0.723
780.86	0.716
781.04	0.732
781.22	0.735
781.40	0.746
781.58	0.736
781.75	0.728
781.93	0.711
782.11	0.711
782.29	0.699
782.47	0.698
782.65	0.685
782.83	0.713
783.01	0.706
783.19	0.700
783.37	0.686
783.55	0.691
783.72	0.710
783.90	0.723
784.08	0.715
784.26	0.727
784.44	0.746
784.62	0.748
784.80	0.714
784.98	0.719
785.16	0.727
785.33	0.740
785.51	0.724
785.69	0.709
785.87	0.706
786.05	0.715
786.23	0.711
786.41	0.708
786.59	0.716
786.77	0.719
786.94	0.707
787.12	0.710
787.30	0.712
787.48	0.711
787.66	0.699
787.84	0.702
788.02	0.693
788.19	0.690
788.37	0.677
788.55	0.680
788.73	0.678
788.91	0.672
789.09	0.655
789.27	0.645
789.44	0.655
789.62	0.661
789.80	0.669
789.98	0.694
790.16	0.680
790.34	0.675
790.51	0.661
790.69	0.679
790.87	0.687
791.05	0.686
791.23	0.680
791.41	0.683
791.58	0.689
791.76	0.667
791.94	0.638
792.12	0.648
792.30	0.652
792.48	0.649
792.65	0.644
792.83	0.650
793.01	0.657
793.19	0.656
793.37	0.640
793.54	0.637
793.72	0.650
793.90	0.649
794.08	0.638
794.26	0.639
794.43	0.649
794.61	0.631
794.79	0.620
794.97	0.617
795.15	0.623
795.32	0.627
795.50	0.615
795.68	0.610
795.86	0.614
796.04	0.614
796.21	0.608
796.39	0.605
796.57	0.620
796.75	0.628
796.92	0.629
797.10	0.633
797.28	0.636
797.46	0.640
797.64	0.641
797.81	0.648
797.99	0.652
798.17	0.657
798.35	0.652
798.52	0.655
798.70	0.650
798.88	0.660
799.06	0.658
799.23	0.659
799.41	0.668
799.59	0.662
799.77	0.650
799.94	0.660
800.12	0.670
800.30	0.686
800.48	0.684
800.65	0.686
800.83	0.675
801.01	0.666
801.19	0.665
801.36	0.660
801.54	0.663
801.72	0.672
801.90	0.657
802.07	0.651
802.25	0.638
802.43	0.622
802.60	0.619
802.78	0.626
802.96	0.633
803.14	0.627
803.31	0.625
803.49	0.626
803.67	0.623
803.84	0.627
804.02	0.618
804.20	0.621
804.38	0.626
804.55	0.625
804.73	0.611
804.91	0.610
805.08	0.623
805.26	0.621
805.44	0.682
805.61	0.687
805.79	0.684
805.97	0.688
806.15	0.679
806.32	0.676
806.50	0.682
806.68	0.682
806.85	0.675
807.03	0.663
807.21	0.677
807.38	0.613
807.56	0.601
807.74	0.613
807.91	0.617
808.09	0.620
808.27	0.638
808.44	0.662
808.62	0.673
808.80	0.674
808.97	0.669
809.15	0.666
809.33	0.683
809.50	0.689
809.68	0.673
809.86	0.682
810.03	0.712
810.21	0.690
810.39	0.672
810.56	0.677
810.74	0.701
810.91	0.772
811.09	0.759
811.27	0.778
811.44	0.786
811.62	0.789
811.80	0.771
811.97	0.743
812.15	0.743
812.33	0.740
812.50	0.725
812.68	0.713
812.85	0.658
813.03	0.660
813.21	0.631
813.38	0.625
813.56	0.628
813.74	0.639
813.91	0.644
814.09	0.676
814.26	0.669
814.44	0.672
814.62	0.663
814.79	0.669
814.97	0.674
815.14	0.678
815.32	0.684
815.50	0.702
815.67	0.703
815.85	0.695
816.02	0.681
816.20	0.688
816.38	0.702
816.55	0.705
816.73	0.703
816.90	0.712
817.08	0.745
817.26	0.748
817.43	0.727
817.61	0.749
817.78	0.770
817.96	0.750
818.13	0.740
818.31	0.743
818.49	0.758
818.66	0.746
818.84	0.732
819.01	0.708
819.19	0.715
819.36	0.718
819.54	0.690
819.71	0.731
819.89	0.744
820.07	0.754
820.24	0.748
820.42	0.748
820.59	0.772
820.77	0.792
820.94	0.781
821.12	0.797
821.29	0.812
821.47	0.815
821.64	0.750
821.82	0.763
822.00	0.764
822.17	0.761
822.35	0.754
822.52	0.753
822.70	0.741
822.87	0.750
823.05	0.730
823.22	0.740
823.40	0.763
823.57	0.788
823.75	0.770
823.92	0.793
824.10	0.809
824.27	0.847
824.45	0.835
824.62	0.896
824.80	0.918
824.97	0.935
825.15	0.919
825.32	0.940
825.50	0.942
825.67	0.953
825.85	0.931
826.02	0.948
826.20	0.976
826.37	1.103
826.55	1.018
826.72	1.212
826.90	1.294
827.07	1.363
827.25	1.284
827.42	1.468
827.60	1.650
827.77	1.836
827.95	1.760
828.12	1.871
828.30	1.449
828.47	1.589
828.65	1.195
828.82	1.226
829.00	1.282
829.17	1.350
829.34	1.331
829.52	1.359
829.69	-0.000
829.87	-0.000
830.04	-0.000
830.22	-0.000
830.39	-0.000
830.57	-0.000
830.74	-0.000
830.92	-0.000
831.09	-0.000
831.26	-0.000
831.44	-0.000
831.61	-0.000
831.79	-0.000
831.96	-0.000
832.14	-0.000
832.31	-0.000
832.49	-0.000
832.66	-0.000
832.83	-0.000
833.01	-0.000
833.18	-0.000
833.36	-0.000
833.53	-0.000
833.70	-0.000
833.88	-0.000
834.05	-0.000
834.23	-0.000
834.40	-0.000
834.58	-0.000
834.75	-0.000
834.92	-0.000
835.10	-0.000
835.27	-0.000
835.45	-0.000
835.62	-0.000
835.79	-0.000
835.97	-0.000
836.14	-0.000
836.32	-0.000
836.49	-0.000
836.66	-0.000
836.84	-0.000
837.01	-0.000
837.18	-0.000
837.36	-0.000
837.53	-0.000
837.71	-0.000
837.88	-0.000
838.05	-0.000
838.23	-0.000
838.40	-0.000
838.58	-0.000
838.75	-0.000
838.92	-0.000
839.10	-0.000
839.27	-0.000
839.44	-0.000
839.62	-0.000
839.79	-0.000
839.96	-0.000
840.14	-0.000
840.31	-0.000
840.48	-0.000
840.66	-0.000
840.83	-0.000
841.01	-0.000
841.18	-0.000
841.35	-0.000
841.53	-0.000
841.70	-0.000
841.87	-0.000
842.05	-0.000
842.22	-0.000
842.39	-0.000
842.57	-0.000
842.74	-0.000
842.91	-0.000
843.09	-0.000
843.26	-0.000
843.43	-0.000
843.60	-0.000
843.78	-0.000
843.95	-0.000
844.12	-0.000
844.30	-0.000
844.47	-0.000
844.64	-0.000
844.82	-0.000
844.99	-0.000
845.16	-0.000
845.34	-0.000
845.51	-0.000
845.68	-0.000
845.85	-0.000
846.03	-0.000
846.20	-0.000
846.37	-0.000
846.55	-0.000
846.72	-0.000
846.89	-0.000
847.06	-0.000
847.24	-0.000
847.41	-0.000
847.58	-0.000
847.76	-0.000
847.93	-0.000
848.10	-0.000
848.27	-0.000
848.45	-0.000
848.62	-0.000
848.79	-0.000
848.97	-0.000
849.14	-0.000
849.31	-0.000
849.48	-0.000
849.66	-0.000
849.83	-0.000
850.00	-0.000
850.17	-0.000
850.35	-0.000
850.52	-0.000
850.69	-0.000
850.86	-0.000
851.04	-0.000
851.21	-0.000
851.38	-0.000
851.55	-0.000
851.72	-0.000
851.90	-0.000
852.07	-0.000
852.24	-0.000
852.41	-0.000
852.59	-0.000
852.76	-0.000
852.93	-0.000
853.10	-0.000
853.28	-0.000
853.45	-0.000
853.62	-0.000
853.79	-0.000
853.96	-0.000
854.14	-0.000
854.31	-0.000
854.48	-0.000
854.65	-0.000
854.82	-0.000
855.00	-0.000
855.17	-0.000
855.34	-0.000
855.51	-0.000
855.68	-0.000
855.86	-0.000
856.03	-0.000
856.20	-0.000
856.37	-0.000
856.54	-0.000
856.72	-0.000
856.89	-0.000
857.06	-0.000
857.23	-0.000
857.40	-0.000
857.57	-0.000
857.75	-0.000
857.92	-0.000
858.09	-0.000
858.26	-0.000
858.43	-0.000
858.60	-0.000
858.78	-0.000
858.95	-0.000
859.12	-0.000
859.29	-0.000
859.46	-0.000
859.63	-0.000
859.81	-0.000
859.98	-0.000
860.15	-0.000
860.32	-0.000
860.49	-0.000
860.66	-0.000
860.83	-0.000
861.01	-0.000
861.18	-0.000
861.35	-0.000
861.52	-0.000
861.69	-0.000
861.86	-0.000
862.03	-0.000
862.21	-0.000
862.38	-0.000
862.55	-0.000
862.72	-0.000
862.89	-0.000
863.06	-0.000
863.23	-0.000
863.40	-0.000
863.58	-0.000
863.75	-0.000
863.92	-0.000
864.09	-0.000
864.26	-0.000
864.43	-0.000
864.60	-0.000
864.77	-0.000
864.94	-0.000
865.11	-0.000
865.29	-0.000
865.46	-0.000
865.63	-0.000
865.80	-0.000
865.97	-0.000
866.14	-0.000
866.31	-0.000
866.48	-0.000
866.65	-0.000
866.82	-0.000
866.99	-0.000
867.16	-0.000
867.34	-0.000
867.51	-0.000
867.68	-0.000
867.85	-0.000
868.02	-0.000
868.19	-0.000
868.36	-0.000
868.53	-0.000
868.70	-0.000
868.87	-0.000
869.04	-0.000
869.21	-0.000
869.38	-0.000
869.55	-0.000
869.72	-0.000
869.89	-0.000
870.06	-0.000
870.24	-0.000
870.41	-0.000
870.58	-0.000
870.75	-0.000
870.92	-0.000
871.09	-0.000
871.26	-0.000
871.43	-0.000
871.60	-0.000
871.77	-0.000
871.94	-0.000
872.11	-0.000
872.28	-0.000
872.45	-0.000
872.62	-0.000
872.79	-0.000
872.96	-0.000
873.13	-0.000
873.30	-0.000
873.47	-0.000
873.64	-0.000
873.81	-0.000
873.98	-0.000
874.15	-0.000
874.32	-0.000
874.49	-0.000
874.66	-0.000
874.83	-0.000
875.00	-0.000
875.17	-0.000
875.34	-0.000
875.51	-0.000
875.68	-0.000
875.85	-0.000
876.02	-0.000
876.19	-0.000
876.36	-0.000
876.53	-0.000
876.70	-0.000
876.87	-0.000
877.04	-0.000
877.21	-0.000
877.38	-0.000
877.55	-0.000
877.72	-0.000
877.89	-0.000
878.06	-0.000
878.23	-0.000
878.39	-0.000
878.56	-0.000
878.73	-0.000
878.90	-0.000
879.07	-0.000
879.24	-0.000
879.41	-0.000
879.58	-0.000
879.75	-0.000
879.92	-0.000
880.09	-0.000
880.26	-0.000
880.43	-0.000
880.60	-0.000
880.77	-0.000
880.94	-0.000
881.11	-0.000
881.27	-0.000
881.44	-0.000
881.61	-0.000
881.78	-0.000
881.95	-0.000
882.12	-0.000
882.29	-0.000
882.46	-0.000
882.63	-0.000
882.80	-0.000
882.97	-0.000
883.14	-0.000
883.30	-0.000
883.47	-0.000
883.64	-0.000
883.81	-0.000
883.98	-0.000
884.15	-0.000
884.32	-0.000
884.49	-0.000
884.66	-0.000
884.82	-0.000
884.99	-0.000
885.16	-0.000
885.33	-0.000
885.50	-0.000
885.67	-0.000
885.84	-0.000
886.01	-0.000
886.17	-0.000
886.34	-0.000
886.51	-0.000
886.68	-0.000
886.85	-0.000
887.02	-0.000
887.19	-0.000
887.36	-0.000
887.52	-0.000
887.69	-0.000
887.86	-0.000
888.03	-0.000
888.20	-0.000
888.37	-0.000
888.54	-0.000
888.70	-0.000
888.87	-0.000
889.04	-0.000
889.21	-0.000
889.38	-0.000
889.55	-0.000
889.71	-0.000
889.88	-0.000
890.05	-0.000
890.22	-0.000
890.39	-0.000
>>>>>End Processed Spectral Data<<<<<
