SpectraSuite Data File
++++++++++++++++++++++++++++++++++++
Date: Fri Jun 19 12:50:59 CEST 2015
User: introlabs
Dark Spectrum Present: Yes
Reference Spectrum Present: Yes
Number of Sampled Component Spectra: 1
Spectrometers: USB4H08886
Integration Time (usec): 745692 (USB4H08886)
Spectra Averaged: 5 (USB4H08886)
Boxcar Smoothing: 5 (USB4H08886)
Correct for Electrical Dark: Yes (USB4H08886)
Strobe/Lamp Enabled: No (USB4H08886)
Correct for Detector Non-linearity: Yes (USB4H08886)
Correct for Stray Light: Yes (USB4H08886)
Number of Pixels in Processed Spectrum: 3648
>>>>>Begin Processed Spectral Data<<<<<
178.14	-0.000
178.36	-0.000
178.57	-0.000
178.79	-0.000
179.01	-0.000
179.22	-0.000
179.44	-0.000
179.65	-0.000
179.87	-0.000
180.08	-0.000
180.30	-0.000
180.52	-0.000
180.73	-0.000
180.95	-0.000
181.16	-0.000
181.38	-0.000
181.59	-0.000
181.81	-0.000
182.03	-0.000
182.24	-0.000
182.46	-0.000
182.67	-0.000
182.89	-0.000
183.10	-0.000
183.32	-0.000
183.54	-0.000
183.75	-0.000
183.97	-0.000
184.18	-0.000
184.40	-0.000
184.61	-0.000
184.83	-0.000
185.04	-0.000
185.26	-0.000
185.48	-0.000
185.69	-0.000
185.91	-0.000
186.12	-0.000
186.34	-0.000
186.55	-0.000
186.77	-0.000
186.98	-0.000
187.20	-0.000
187.42	-0.000
187.63	-0.000
187.85	-0.000
188.06	-0.000
188.28	-0.000
188.49	-0.000
188.71	-0.000
188.92	-0.000
189.14	-0.000
189.36	-0.000
189.57	-0.000
189.79	-0.000
190.00	-0.000
190.22	-0.000
190.43	-0.000
190.65	-0.000
190.86	-0.000
191.08	-0.000
191.29	-0.000
191.51	-0.000
191.72	-0.000
191.94	-0.000
192.16	-0.000
192.37	-0.000
192.59	-0.000
192.80	-0.000
193.02	-0.000
193.23	-0.000
193.45	-0.000
193.66	-0.000
193.88	-0.000
194.09	-0.000
194.31	-0.000
194.52	-0.000
194.74	-0.000
194.95	-0.000
195.17	-0.000
195.38	-0.000
195.60	-0.000
195.81	-0.000
196.03	-0.000
196.25	-0.000
196.46	-0.000
196.68	-0.000
196.89	-0.000
197.11	-0.000
197.32	-0.000
197.54	-0.000
197.75	-0.000
197.97	-0.000
198.18	-0.000
198.40	-0.000
198.61	-0.000
198.83	-0.000
199.04	-0.000
199.26	-0.000
199.47	-0.000
199.69	-0.000
199.90	-0.000
200.12	-0.000
200.33	-0.000
200.55	-0.000
200.76	-0.000
200.98	-0.000
201.19	-0.000
201.41	-0.000
201.62	-0.000
201.84	-0.000
202.05	-0.000
202.27	-0.000
202.48	-0.000
202.70	-0.000
202.91	-0.000
203.13	-0.000
203.34	-0.000
203.56	-0.000
203.77	-0.000
203.99	-0.000
204.20	-0.000
204.42	-0.000
204.63	-0.000
204.85	-0.000
205.06	-0.000
205.28	-0.000
205.49	-0.000
205.71	-0.000
205.92	-0.000
206.14	-0.000
206.35	-0.000
206.56	-0.000
206.78	-0.000
206.99	-0.000
207.21	-0.000
207.42	-0.000
207.64	-0.000
207.85	-0.000
208.07	-0.000
208.28	-0.000
208.50	-0.000
208.71	-0.000
208.93	-0.000
209.14	-0.000
209.36	-0.000
209.57	-0.000
209.79	-0.000
210.00	-0.000
210.22	-0.000
210.43	-0.000
210.64	-0.000
210.86	-0.000
211.07	-0.000
211.29	-0.000
211.50	-0.000
211.72	-0.000
211.93	-0.000
212.15	-0.000
212.36	-0.000
212.58	-0.000
212.79	-0.000
213.01	-0.000
213.22	-0.000
213.43	-0.000
213.65	-0.000
213.86	-0.000
214.08	-0.000
214.29	-0.000
214.51	-0.000
214.72	-0.000
214.94	-0.000
215.15	-0.000
215.36	-0.000
215.58	-0.000
215.79	-0.000
216.01	-0.000
216.22	-0.000
216.44	-0.000
216.65	-0.000
216.87	-0.000
217.08	-0.000
217.29	-0.000
217.51	-0.000
217.72	-0.000
217.94	-0.000
218.15	-0.000
218.37	-0.000
218.58	-0.000
218.80	-0.000
219.01	-0.000
219.22	-0.000
219.44	-0.000
219.65	-0.000
219.87	-0.000
220.08	-0.000
220.30	-0.000
220.51	-0.000
220.72	-0.000
220.94	-0.000
221.15	-0.000
221.37	-0.000
221.58	-0.000
221.79	-0.000
222.01	-0.000
222.22	-0.000
222.44	-0.000
222.65	-0.000
222.87	-0.000
223.08	-0.000
223.29	-0.000
223.51	-0.000
223.72	-0.000
223.94	-0.000
224.15	-0.000
224.36	-0.000
224.58	-0.000
224.79	-0.000
225.01	-0.000
225.22	-0.000
225.44	-0.000
225.65	-0.000
225.86	-0.000
226.08	-0.000
226.29	-0.000
226.51	-0.000
226.72	-0.000
226.93	-0.000
227.15	-0.000
227.36	-0.000
227.58	-0.000
227.79	-0.000
228.00	-0.000
228.22	-0.000
228.43	-0.000
228.65	-0.000
228.86	-0.000
229.07	-0.000
229.29	-0.000
229.50	-0.000
229.72	-0.000
229.93	-0.000
230.14	-0.000
230.36	-0.000
230.57	-0.000
230.78	-0.000
231.00	-0.000
231.21	-0.000
231.43	-0.000
231.64	-0.000
231.85	-0.000
232.07	-0.000
232.28	-0.000
232.50	-0.000
232.71	-0.000
232.92	-0.000
233.14	-0.000
233.35	-0.000
233.56	-0.000
233.78	-0.000
233.99	-0.000
234.21	-0.000
234.42	-0.000
234.63	-0.000
234.85	-0.000
235.06	-0.000
235.27	-0.000
235.49	-0.000
235.70	-0.000
235.91	-0.000
236.13	-0.000
236.34	-0.000
236.56	-0.000
236.77	-0.000
236.98	-0.000
237.20	-0.000
237.41	-0.000
237.62	-0.000
237.84	-0.000
238.05	-0.000
238.26	-0.000
238.48	-0.000
238.69	-0.000
238.91	-0.000
239.12	-0.000
239.33	-0.000
239.55	-0.000
239.76	-0.000
239.97	-0.000
240.19	-0.000
240.40	-0.000
240.61	-0.000
240.83	-0.000
241.04	-0.000
241.25	-0.000
241.47	-0.000
241.68	-0.000
241.89	-0.000
242.11	-0.000
242.32	-0.000
242.53	-0.000
242.75	-0.000
242.96	-0.000
243.17	-0.000
243.39	-0.000
243.60	-0.000
243.81	-0.000
244.03	-0.000
244.24	-0.000
244.45	-0.000
244.67	-0.000
244.88	-0.000
245.09	-0.000
245.31	-0.000
245.52	-0.000
245.73	-0.000
245.95	-0.000
246.16	-0.000
246.37	-0.000
246.59	-0.000
246.80	-0.000
247.01	-0.000
247.23	-0.000
247.44	-0.000
247.65	-0.000
247.87	-0.000
248.08	-0.000
248.29	-0.000
248.51	-0.000
248.72	-0.000
248.93	-0.000
249.15	-0.000
249.36	-0.000
249.57	-0.000
249.78	-0.000
250.00	-0.000
250.21	-0.000
250.42	-0.000
250.64	-0.000
250.85	-0.000
251.06	-0.000
251.28	-0.000
251.49	-0.000
251.70	-0.000
251.92	-0.000
252.13	-0.000
252.34	-0.000
252.55	-0.000
252.77	-0.000
252.98	-0.000
253.19	-0.000
253.41	-0.000
253.62	-0.000
253.83	-0.000
254.05	-0.000
254.26	-0.000
254.47	-0.000
254.68	-0.000
254.90	-0.000
255.11	-0.000
255.32	-0.000
255.54	-0.000
255.75	-0.000
255.96	-0.000
256.17	-0.000
256.39	-0.000
256.60	-0.000
256.81	-0.000
257.03	-0.000
257.24	-0.000
257.45	-0.000
257.66	-0.000
257.88	-0.000
258.09	-0.000
258.30	-0.000
258.51	-0.000
258.73	-0.000
258.94	-0.000
259.15	-0.000
259.37	-0.000
259.58	-0.000
259.79	-0.000
260.00	-0.000
260.22	-0.000
260.43	-0.000
260.64	-0.000
260.85	-0.000
261.07	-0.000
261.28	-0.000
261.49	-0.000
261.71	-0.000
261.92	-0.000
262.13	-0.000
262.34	-0.000
262.56	-0.000
262.77	-0.000
262.98	-0.000
263.19	-0.000
263.41	-0.000
263.62	-0.000
263.83	-0.000
264.04	-0.000
264.26	-0.000
264.47	-0.000
264.68	-0.000
264.89	-0.000
265.11	-0.000
265.32	-0.000
265.53	-0.000
265.74	-0.000
265.96	-0.000
266.17	-0.000
266.38	-0.000
266.59	-0.000
266.81	-0.000
267.02	-0.000
267.23	-0.000
267.44	-0.000
267.65	-0.000
267.87	-0.000
268.08	-0.000
268.29	-0.000
268.50	-0.000
268.72	-0.000
268.93	-0.000
269.14	-0.000
269.35	-0.000
269.57	-0.000
269.78	-0.000
269.99	-0.000
270.20	-0.000
270.41	-0.000
270.63	-0.000
270.84	-0.000
271.05	-0.000
271.26	-0.000
271.48	-0.000
271.69	-0.000
271.90	-0.000
272.11	-0.000
272.32	-0.000
272.54	-0.000
272.75	-0.000
272.96	-0.000
273.17	-0.000
273.39	-0.000
273.60	-0.000
273.81	-0.000
274.02	-0.000
274.23	-0.000
274.45	-0.000
274.66	-0.000
274.87	-0.000
275.08	-0.000
275.29	-0.000
275.51	-0.000
275.72	-0.000
275.93	-0.000
276.14	-0.000
276.35	-0.000
276.57	-0.000
276.78	-0.000
276.99	-0.000
277.20	-0.000
277.41	-0.000
277.63	-0.000
277.84	-0.000
278.05	-0.000
278.26	-0.000
278.47	-0.000
278.69	-0.000
278.90	-0.000
279.11	-0.000
279.32	-0.000
279.53	-0.000
279.74	-0.000
279.96	-0.000
280.17	-0.000
280.38	-0.000
280.59	-0.000
280.80	-0.000
281.02	-0.000
281.23	-0.000
281.44	-0.000
281.65	-0.000
281.86	-0.000
282.07	-0.000
282.29	-0.000
282.50	-0.000
282.71	-0.000
282.92	-0.000
283.13	-0.000
283.35	-0.000
283.56	-0.000
283.77	-0.000
283.98	-0.000
284.19	-0.000
284.40	-0.000
284.62	-0.000
284.83	-0.000
285.04	-0.000
285.25	-0.000
285.46	-0.000
285.67	-0.000
285.88	-0.000
286.10	-0.000
286.31	-0.000
286.52	-0.000
286.73	-0.000
286.94	-0.000
287.15	-0.000
287.37	-0.000
287.58	-0.000
287.79	-0.000
288.00	-0.000
288.21	-0.000
288.42	-0.000
288.63	-0.000
288.85	-0.000
289.06	-0.000
289.27	-0.000
289.48	-0.000
289.69	-0.000
289.90	-0.000
290.11	-0.000
290.33	-0.000
290.54	-0.000
290.75	-0.000
290.96	-0.000
291.17	-0.000
291.38	-0.000
291.59	-0.000
291.81	-0.000
292.02	-0.000
292.23	-0.000
292.44	-0.000
292.65	-0.000
292.86	-0.000
293.07	-0.000
293.28	-0.000
293.50	-0.000
293.71	-0.000
293.92	-0.000
294.13	-0.000
294.34	-0.000
294.55	-0.000
294.76	-0.000
294.97	-0.000
295.19	-0.000
295.40	-0.000
295.61	-0.000
295.82	-0.000
296.03	-0.000
296.24	-0.000
296.45	-0.000
296.66	2.137
296.87	2.181
297.09	2.513
297.30	-0.000
297.51	2.018
297.72	1.950
297.93	2.209
298.14	2.089
298.35	2.001
298.56	1.934
298.77	2.292
298.99	2.217
299.20	2.077
299.41	2.007
299.62	1.932
299.83	1.900
300.04	1.765
300.25	1.736
300.46	1.818
300.67	1.766
300.88	1.671
301.10	1.668
301.31	1.789
301.52	1.694
301.73	1.602
301.94	1.595
302.15	1.633
302.36	1.574
302.57	1.489
302.78	1.499
302.99	1.557
303.20	1.579
303.41	1.459
303.63	1.430
303.84	1.450
304.05	1.448
304.26	1.376
304.47	1.377
304.68	1.387
304.89	1.371
305.10	1.315
305.31	1.300
305.52	1.346
305.73	1.338
305.94	1.292
306.15	1.278
306.37	1.301
306.58	1.309
306.79	1.272
307.00	1.289
307.21	1.337
307.42	1.334
307.63	1.292
307.84	1.259
308.05	1.300
308.26	1.303
308.47	1.274
308.68	1.272
308.89	1.277
309.10	1.277
309.31	1.233
309.52	1.224
309.73	1.240
309.95	1.231
310.16	1.197
310.37	1.187
310.58	1.206
310.79	1.205
311.00	1.197
311.21	1.196
311.42	1.198
311.63	1.191
311.84	1.168
312.05	1.165
312.26	1.191
312.47	1.206
312.68	1.178
312.89	1.161
313.10	1.172
313.31	1.145
313.52	1.145
313.73	1.146
313.94	1.152
314.15	1.134
314.36	1.111
314.57	1.102
314.78	1.089
314.99	1.083
315.21	1.066
315.42	1.068
315.63	1.082
315.84	1.058
316.05	1.043
316.26	1.049
316.47	1.069
316.68	1.064
316.89	1.044
317.10	1.064
317.31	1.070
317.52	1.074
317.73	1.050
317.94	1.051
318.15	1.095
318.36	1.093
318.57	1.073
318.78	1.063
318.99	1.101
319.20	1.098
319.41	1.064
319.62	1.065
319.83	1.079
320.04	1.075
320.25	1.059
320.46	1.026
320.67	1.032
320.88	1.029
321.09	1.013
321.30	0.998
321.51	1.013
321.72	1.010
321.93	0.993
322.14	0.985
322.35	1.012
322.56	1.013
322.77	0.998
322.98	1.008
323.19	1.018
323.40	1.023
323.61	1.000
323.82	0.997
324.03	1.005
324.24	1.001
324.45	0.987
324.66	0.969
324.87	0.968
325.08	0.968
325.29	0.947
325.50	0.938
325.71	0.946
325.92	0.953
326.13	0.936
326.34	0.937
326.55	0.946
326.76	0.944
326.97	0.932
327.18	0.925
327.39	0.952
327.60	0.953
327.80	0.952
328.01	0.947
328.22	0.948
328.43	0.951
328.64	0.938
328.85	0.944
329.06	0.947
329.27	0.946
329.48	0.940
329.69	0.920
329.90	0.931
330.11	0.924
330.32	0.917
330.53	0.911
330.74	0.913
330.95	0.912
331.16	0.895
331.37	0.902
331.58	0.903
331.79	0.904
332.00	0.895
332.21	0.889
332.42	0.895
332.63	0.887
332.83	0.881
333.04	0.884
333.25	0.896
333.46	0.895
333.67	0.882
333.88	0.883
334.09	0.892
334.30	0.889
334.51	0.878
334.72	0.873
334.93	0.877
335.14	0.877
335.35	0.867
335.56	0.863
335.77	0.873
335.98	0.871
336.18	0.865
336.39	0.859
336.60	0.864
336.81	0.862
337.02	0.860
337.23	0.864
337.44	0.868
337.65	0.869
337.86	0.857
338.07	0.851
338.28	0.858
338.49	0.855
338.70	0.847
338.91	0.855
339.11	0.863
339.32	0.860
339.53	0.847
339.74	0.843
339.95	0.842
340.16	0.840
340.37	0.831
340.58	0.830
340.79	0.835
341.00	0.835
341.21	0.822
341.41	0.822
341.62	0.825
341.83	0.827
342.04	0.822
342.25	0.832
342.46	0.838
342.67	0.837
342.88	0.828
343.09	0.828
343.30	0.837
343.50	0.840
343.71	0.829
343.92	0.828
344.13	0.832
344.34	0.831
344.55	0.814
344.76	0.812
344.97	0.818
345.18	0.816
345.38	0.812
345.59	0.807
345.80	0.806
346.01	0.805
346.22	0.799
346.43	0.794
346.64	0.804
346.85	0.802
347.06	0.795
347.26	0.796
347.47	0.800
347.68	0.796
347.89	0.791
348.10	0.787
348.31	0.796
348.52	0.795
348.73	0.791
348.93	0.788
349.14	0.792
349.35	0.792
349.56	0.785
349.77	0.782
349.98	0.789
350.19	0.786
350.39	0.779
350.60	0.774
350.81	0.791
351.02	0.790
351.23	0.784
351.44	0.785
351.65	0.789
351.86	0.786
352.06	0.783
352.27	0.783
352.48	0.785
352.69	0.784
352.90	0.779
353.11	0.765
353.31	0.773
353.52	0.769
353.73	0.761
353.94	0.763
354.15	0.770
354.36	0.770
354.57	0.761
354.77	0.763
354.98	0.764
355.19	0.763
355.40	0.763
355.61	0.768
355.82	0.774
356.02	0.773
356.23	0.766
356.44	0.768
356.65	0.771
356.86	0.773
357.07	0.766
357.27	0.769
357.48	0.773
357.69	0.768
357.90	0.753
358.11	0.750
358.32	0.755
358.52	0.757
358.73	0.747
358.94	0.749
359.15	0.754
359.36	0.756
359.56	0.750
359.77	0.746
359.98	0.753
360.19	0.752
360.40	0.748
360.61	0.748
360.81	0.748
361.02	0.749
361.23	0.740
361.44	0.739
361.65	0.740
361.85	0.740
362.06	0.739
362.27	0.740
362.48	0.742
362.69	0.744
362.89	0.738
363.10	0.739
363.31	0.744
363.52	0.748
363.73	0.742
363.93	0.742
364.14	0.745
364.35	0.747
364.56	0.736
364.77	0.738
364.97	0.741
365.18	0.742
365.39	0.736
365.60	0.733
365.81	0.734
366.01	0.733
366.22	0.730
366.43	0.728
366.64	0.730
366.84	0.736
367.05	0.732
367.26	0.731
367.47	0.733
367.68	0.733
367.88	0.730
368.09	0.728
368.30	0.731
368.51	0.731
368.71	0.730
368.92	0.734
369.13	0.732
369.34	0.732
369.55	0.730
369.75	0.730
369.96	0.736
370.17	0.736
370.38	0.731
370.58	0.730
370.79	0.737
371.00	0.735
371.21	0.725
371.41	0.730
371.62	0.735
371.83	0.731
372.04	0.728
372.24	0.722
372.45	0.724
372.66	0.726
372.87	0.722
373.07	0.718
373.28	0.720
373.49	0.725
373.70	0.715
373.90	0.714
374.11	0.723
374.32	0.723
374.53	0.721
374.73	0.722
374.94	0.724
375.15	0.725
375.36	0.721
375.56	0.730
375.77	0.730
375.98	0.731
376.19	0.727
376.39	0.722
376.60	0.727
376.81	0.727
377.02	0.724
377.22	0.723
377.43	0.723
377.64	0.724
377.84	0.713
378.05	0.718
378.26	0.724
378.47	0.723
378.67	0.719
378.88	0.716
379.09	0.716
379.30	0.717
379.50	0.714
379.71	0.716
379.92	0.720
380.12	0.719
380.33	0.710
380.54	0.707
380.75	0.715
380.95	0.714
381.16	0.712
381.37	0.712
381.57	0.714
381.78	0.714
381.99	0.713
382.20	0.712
382.40	0.715
382.61	0.715
382.82	0.711
383.02	0.704
383.23	0.708
383.44	0.707
383.64	0.705
383.85	0.707
384.06	0.711
384.27	0.709
384.47	0.706
384.68	0.707
384.89	0.714
385.09	0.713
385.30	0.712
385.51	0.711
385.71	0.714
385.92	0.714
386.13	0.711
386.33	0.713
386.54	0.714
386.75	0.714
386.95	0.709
387.16	0.704
387.37	0.707
387.58	0.706
387.78	0.704
387.99	0.701
388.20	0.704
388.40	0.701
388.61	0.696
388.82	0.699
389.02	0.702
389.23	0.702
389.44	0.699
389.64	0.700
389.85	0.712
390.06	0.711
390.26	0.711
390.47	0.710
390.68	0.712
390.88	0.711
391.09	0.706
391.30	0.705
391.50	0.705
391.71	0.705
391.92	0.702
392.12	0.694
392.33	0.695
392.53	0.695
392.74	0.694
392.95	0.693
393.15	0.696
393.36	0.698
393.57	0.695
393.77	0.698
393.98	0.700
394.19	0.700
394.39	0.699
394.60	0.701
394.81	0.702
395.01	0.699
395.22	0.698
395.43	0.698
395.63	0.702
395.84	0.703
396.04	0.698
396.25	0.700
396.46	0.702
396.66	0.700
396.87	0.697
397.08	0.694
397.28	0.696
397.49	0.697
397.69	0.692
397.90	0.688
398.11	0.689
398.31	0.689
398.52	0.685
398.73	0.686
398.93	0.685
399.14	0.684
399.34	0.682
399.55	0.683
399.76	0.684
399.96	0.685
400.17	0.682
400.37	0.681
400.58	0.688
400.79	0.690
400.99	0.688
401.20	0.693
401.41	0.696
401.61	0.696
401.82	0.701
402.02	0.700
402.23	0.702
402.44	0.702
402.64	0.702
402.85	0.696
403.05	0.695
403.26	0.694
403.47	0.688
403.67	0.687
403.88	0.688
404.08	0.682
404.29	0.680
404.50	0.680
404.70	0.680
404.91	0.678
405.11	0.675
405.32	0.675
405.52	0.676
405.73	0.675
405.94	0.673
406.14	0.676
406.35	0.678
406.55	0.678
406.76	0.676
406.97	0.677
407.17	0.680
407.38	0.679
407.58	0.677
407.79	0.680
407.99	0.683
408.20	0.684
408.41	0.679
408.61	0.677
408.82	0.678
409.02	0.677
409.23	0.675
409.43	0.673
409.64	0.675
409.84	0.674
410.05	0.671
410.26	0.669
410.46	0.669
410.67	0.668
410.87	0.669
411.08	0.671
411.28	0.673
411.49	0.674
411.69	0.671
411.90	0.672
412.11	0.674
412.31	0.675
412.52	0.672
412.72	0.674
412.93	0.675
413.13	0.674
413.34	0.670
413.54	0.672
413.75	0.674
413.95	0.674
414.16	0.670
414.37	0.673
414.57	0.673
414.78	0.676
414.98	0.674
415.19	0.674
415.39	0.673
415.60	0.674
415.80	0.673
416.01	0.672
416.21	0.675
416.42	0.675
416.62	0.669
416.83	0.670
417.03	0.670
417.24	0.670
417.44	0.667
417.65	0.667
417.86	0.667
418.06	0.666
418.27	0.663
418.47	0.664
418.68	0.666
418.88	0.666
419.09	0.664
419.29	0.665
419.50	0.665
419.70	0.665
419.91	0.663
420.11	0.662
420.32	0.665
420.52	0.664
420.73	0.663
420.93	0.663
421.14	0.665
421.34	0.664
421.55	0.661
421.75	0.661
421.96	0.663
422.16	0.663
422.37	0.662
422.57	0.659
422.78	0.661
422.98	0.658
423.19	0.656
423.39	0.655
423.60	0.658
423.80	0.660
424.01	0.658
424.21	0.660
424.42	0.661
424.62	0.661
424.83	0.660
425.03	0.660
425.23	0.663
425.44	0.663
425.64	0.663
425.85	0.661
426.05	0.662
426.26	0.663
426.46	0.659
426.67	0.658
426.87	0.663
427.08	0.664
427.28	0.662
427.49	0.663
427.69	0.664
427.90	0.663
428.10	0.660
428.31	0.660
428.51	0.662
428.71	0.662
428.92	0.663
429.12	0.660
429.33	0.661
429.53	0.665
429.74	0.668
429.94	0.669
430.15	0.669
430.35	0.669
430.56	0.666
430.76	0.666
430.96	0.667
431.17	0.664
431.37	0.661
431.58	0.659
431.78	0.657
431.99	0.650
432.19	0.652
432.40	0.654
432.60	0.655
432.80	0.658
433.01	0.656
433.21	0.656
433.42	0.658
433.62	0.659
433.83	0.658
434.03	0.660
434.23	0.664
434.44	0.662
434.64	0.660
434.85	0.665
435.05	0.665
435.26	0.665
435.46	0.663
435.66	0.663
435.87	0.663
436.07	0.664
436.28	0.659
436.48	0.657
436.69	0.657
436.89	0.658
437.09	0.651
437.30	0.650
437.50	0.651
437.71	0.664
437.91	0.662
438.11	0.664
438.32	0.669
438.52	0.669
438.73	0.668
438.93	0.666
439.13	0.666
439.34	0.669
439.54	0.667
439.75	0.667
439.95	0.658
440.15	0.662
440.36	0.660
440.56	0.658
440.77	0.659
440.97	0.659
441.17	0.658
441.38	0.659
441.58	0.657
441.79	0.657
441.99	0.656
442.19	0.655
442.40	0.653
442.60	0.653
442.81	0.651
443.01	0.651
443.21	0.653
443.42	0.652
443.62	0.651
443.82	0.650
444.03	0.652
444.23	0.651
444.44	0.651
444.64	0.650
444.84	0.652
445.05	0.651
445.25	0.648
445.45	0.648
445.66	0.651
445.86	0.650
446.06	0.651
446.27	0.650
446.47	0.654
446.68	0.652
446.88	0.651
447.08	0.650
447.29	0.652
447.49	0.653
447.69	0.652
447.90	0.651
448.10	0.655
448.30	0.653
448.51	0.654
448.71	0.651
448.91	0.655
449.12	0.653
449.32	0.654
449.52	0.654
449.73	0.658
449.93	0.657
450.14	0.657
450.34	0.656
450.54	0.659
450.75	0.657
450.95	0.656
451.15	0.655
451.36	0.658
451.56	0.655
451.76	0.653
451.97	0.650
452.17	0.652
452.37	0.650
452.58	0.647
452.78	0.646
452.98	0.649
453.19	0.649
453.39	0.649
453.59	0.649
453.79	0.650
454.00	0.650
454.20	0.649
454.40	0.649
454.61	0.652
454.81	0.653
455.01	0.650
455.22	0.651
455.42	0.654
455.62	0.651
455.83	0.650
456.03	0.654
456.23	0.655
456.44	0.656
456.64	0.655
456.84	0.655
457.04	0.655
457.25	0.655
457.45	0.652
457.65	0.651
457.86	0.652
458.06	0.651
458.26	0.646
458.47	0.646
458.67	0.647
458.87	0.648
459.07	0.645
459.28	0.647
459.48	0.649
459.68	0.649
459.89	0.648
460.09	0.647
460.29	0.649
460.49	0.650
460.70	0.649
460.90	0.648
461.10	0.650
461.31	0.649
461.51	0.646
461.71	0.648
461.91	0.650
462.12	0.649
462.32	0.649
462.52	0.650
462.72	0.653
462.93	0.653
463.13	0.652
463.33	0.653
463.53	0.655
463.74	0.654
463.94	0.650
464.14	0.651
464.35	0.653
464.55	0.653
464.75	0.650
464.95	0.648
465.16	0.650
465.36	0.649
465.56	0.648
465.76	0.647
465.97	0.648
466.17	0.648
466.37	0.646
466.57	0.646
466.78	0.648
466.98	0.648
467.18	0.645
467.38	0.644
467.59	0.645
467.79	0.647
467.99	0.645
468.19	0.646
468.39	0.650
468.60	0.651
468.80	0.648
469.00	0.650
469.20	0.651
469.41	0.652
469.61	0.651
469.81	0.651
470.01	0.651
470.22	0.651
470.42	0.649
470.62	0.647
470.82	0.649
471.02	0.648
471.23	0.645
471.43	0.646
471.63	0.649
471.83	0.648
472.04	0.646
472.24	0.645
472.44	0.650
472.64	0.650
472.84	0.648
473.05	0.648
473.25	0.651
473.45	0.650
473.65	0.647
473.85	0.648
474.06	0.650
474.26	0.649
474.46	0.650
474.66	0.647
474.86	0.649
475.07	0.649
475.27	0.646
475.47	0.644
475.67	0.645
475.87	0.647
476.08	0.643
476.28	0.644
476.48	0.646
476.68	0.644
476.88	0.642
477.09	0.643
477.29	0.645
477.49	0.645
477.69	0.644
477.89	0.644
478.09	0.643
478.30	0.646
478.50	0.643
478.70	0.642
478.90	0.642
479.10	0.645
479.31	0.646
479.51	0.644
479.71	0.645
479.91	0.646
480.11	0.644
480.31	0.645
480.52	0.644
480.72	0.644
480.92	0.642
481.12	0.642
481.32	0.639
481.52	0.637
481.72	0.637
481.93	0.640
482.13	0.640
482.33	0.640
482.53	0.637
482.73	0.637
482.93	0.638
483.14	0.638
483.34	0.638
483.54	0.639
483.74	0.638
483.94	0.638
484.14	0.634
484.34	0.634
484.55	0.635
484.75	0.635
484.95	0.634
485.15	0.634
485.35	0.634
485.55	0.634
485.75	0.631
485.96	0.632
486.16	0.634
486.36	0.634
486.56	0.632
486.76	0.632
486.96	0.632
487.16	0.631
487.36	0.629
487.57	0.629
487.77	0.630
487.97	0.630
488.17	0.628
488.37	0.626
488.57	0.627
488.77	0.628
488.97	0.626
489.18	0.626
489.38	0.628
489.58	0.629
489.78	0.629
489.98	0.628
490.18	0.628
490.38	0.629
490.58	0.627
490.78	0.628
490.98	0.630
491.19	0.630
491.39	0.630
491.59	0.628
491.79	0.631
491.99	0.632
492.19	0.631
492.39	0.634
492.59	0.634
492.79	0.637
492.99	0.636
493.20	0.636
493.40	0.636
493.60	0.637
493.80	0.636
494.00	0.634
494.20	0.635
494.40	0.635
494.60	0.632
494.80	0.637
495.00	0.636
495.20	0.635
495.40	0.633
495.61	0.636
495.81	0.636
496.01	0.639
496.21	0.640
496.41	0.639
496.61	0.639
496.81	0.638
497.01	0.633
497.21	0.633
497.41	0.634
497.61	0.634
497.81	0.631
498.01	0.631
498.21	0.629
498.41	0.627
498.61	0.627
498.82	0.628
499.02	0.631
499.22	0.632
499.42	0.630
499.62	0.632
499.82	0.632
500.02	0.634
500.22	0.632
500.42	0.634
500.62	0.635
500.82	0.635
501.02	0.633
501.22	0.634
501.42	0.633
501.62	0.636
501.82	0.635
502.02	0.636
502.22	0.635
502.42	0.637
502.62	0.635
502.82	0.635
503.02	0.635
503.22	0.635
503.42	0.633
503.63	0.633
503.83	0.631
504.03	0.630
504.23	0.628
504.43	0.628
504.63	0.630
504.83	0.629
505.03	0.628
505.23	0.630
505.43	0.632
505.63	0.633
505.83	0.632
506.03	0.634
506.23	0.636
506.43	0.636
506.63	0.635
506.83	0.633
507.03	0.636
507.23	0.636
507.43	0.633
507.63	0.634
507.83	0.634
508.03	0.635
508.23	0.634
508.43	0.632
508.63	0.635
508.83	0.636
509.03	0.636
509.23	0.635
509.43	0.637
509.63	0.637
509.83	0.635
510.03	0.638
510.23	0.640
510.43	0.641
510.63	0.641
510.83	0.640
511.03	0.642
511.23	0.640
511.43	0.639
511.63	0.640
511.83	0.643
512.03	0.643
512.22	0.639
512.42	0.638
512.62	0.639
512.82	0.638
513.02	0.637
513.22	0.636
513.42	0.639
513.62	0.642
513.82	0.640
514.02	0.639
514.22	0.641
514.42	0.641
514.62	0.641
514.82	0.642
515.02	0.645
515.22	0.649
515.42	0.647
515.62	0.649
515.82	0.648
516.02	0.649
516.22	0.649
516.42	0.650
516.62	0.652
516.82	0.653
517.01	0.651
517.21	0.649
517.41	0.653
517.61	0.654
517.81	0.650
518.01	0.649
518.21	0.649
518.41	0.648
518.61	0.646
518.81	0.647
519.01	0.648
519.21	0.648
519.41	0.647
519.61	0.641
519.81	0.645
520.00	0.644
520.20	0.645
520.40	0.648
520.60	0.649
520.80	0.649
521.00	0.649
521.20	0.650
521.40	0.655
521.60	0.655
521.80	0.654
522.00	0.654
522.20	0.657
522.39	0.656
522.59	0.652
522.79	0.654
522.99	0.657
523.19	0.655
523.39	0.652
523.59	0.650
523.79	0.654
523.99	0.656
524.19	0.654
524.38	0.653
524.58	0.654
524.78	0.655
524.98	0.653
525.18	0.655
525.38	0.657
525.58	0.658
525.78	0.655
525.98	0.653
526.18	0.654
526.37	0.654
526.57	0.655
526.77	0.655
526.97	0.656
527.17	0.656
527.37	0.652
527.57	0.654
527.77	0.656
527.96	0.657
528.16	0.656
528.36	0.657
528.56	0.659
528.76	0.657
528.96	0.656
529.16	0.657
529.36	0.661
529.55	0.661
529.75	0.657
529.95	0.657
530.15	0.659
530.35	0.662
530.55	0.659
530.75	0.660
530.94	0.660
531.14	0.661
531.34	0.658
531.54	0.656
531.74	0.660
531.94	0.663
532.13	0.661
532.33	0.662
532.53	0.661
532.73	0.660
532.93	0.657
533.13	0.659
533.33	0.659
533.52	0.659
533.72	0.662
533.92	0.660
534.12	0.659
534.32	0.659
534.52	0.657
534.71	0.659
534.91	0.663
535.11	0.665
535.31	0.663
535.51	0.666
535.71	0.668
535.90	0.665
536.10	0.667
536.30	0.668
536.50	0.669
536.70	0.668
536.89	0.665
537.09	0.665
537.29	0.667
537.49	0.667
537.69	0.665
537.89	0.665
538.08	0.665
538.28	0.663
538.48	0.663
538.68	0.666
538.88	0.669
539.07	0.668
539.27	0.666
539.47	0.665
539.67	0.666
539.87	0.668
540.06	0.665
540.26	0.666
540.46	0.669
540.66	0.666
540.86	0.662
541.05	0.662
541.25	0.665
541.45	0.664
541.65	0.662
541.84	0.664
542.04	0.666
542.24	0.666
542.44	0.664
542.64	0.665
542.83	0.668
543.03	0.669
543.23	0.666
543.43	0.667
543.62	0.669
543.82	0.669
544.02	0.666
544.22	0.667
544.42	0.670
544.61	0.670
544.81	0.668
545.01	0.667
545.21	0.669
545.40	0.669
545.60	0.667
545.80	0.670
546.00	0.672
546.19	0.671
546.39	0.669
546.59	0.667
546.79	0.669
546.98	0.670
547.18	0.668
547.38	0.670
547.58	0.672
547.77	0.672
547.97	0.667
548.17	0.668
548.37	0.669
548.56	0.670
548.76	0.669
548.96	0.671
549.16	0.674
549.35	0.674
549.55	0.671
549.75	0.672
549.95	0.676
550.14	0.677
550.34	0.675
550.54	0.680
550.73	0.684
550.93	0.685
551.13	0.681
551.33	0.678
551.52	0.679
551.72	0.679
551.92	0.677
552.12	0.677
552.31	0.678
552.51	0.678
552.71	0.672
552.90	0.672
553.10	0.673
553.30	0.673
553.50	0.672
553.69	0.674
553.89	0.675
554.09	0.675
554.28	0.671
554.48	0.673
554.68	0.675
554.87	0.675
555.07	0.672
555.27	0.672
555.47	0.674
555.66	0.675
555.86	0.673
556.06	0.676
556.25	0.678
556.45	0.686
556.65	0.684
556.84	0.687
557.04	0.691
557.24	0.692
557.43	0.691
557.63	0.694
557.83	0.696
558.02	0.697
558.22	0.701
558.42	0.701
558.61	0.694
558.81	0.694
559.01	0.690
559.21	0.690
559.40	0.692
559.60	0.692
559.80	0.687
559.99	0.688
560.19	0.691
560.39	0.684
560.58	0.681
560.78	0.682
560.97	0.686
561.17	0.684
561.37	0.681
561.56	0.682
561.76	0.683
561.96	0.683
562.15	0.680
562.35	0.682
562.55	0.684
562.74	0.684
562.94	0.683
563.14	0.681
563.33	0.682
563.53	0.683
563.73	0.680
563.92	0.682
564.12	0.686
564.31	0.688
564.51	0.686
564.71	0.687
564.90	0.690
565.10	0.690
565.30	0.692
565.49	0.693
565.69	0.696
565.89	0.696
566.08	0.693
566.28	0.693
566.47	0.695
566.67	0.694
566.87	0.691
567.06	0.693
567.26	0.699
567.46	0.694
567.65	0.693
567.85	0.694
568.04	0.698
568.24	0.697
568.44	0.694
568.63	0.692
568.83	0.694
569.02	0.692
569.22	0.688
569.42	0.684
569.61	0.687
569.81	0.685
570.00	0.683
570.20	0.684
570.40	0.686
570.59	0.685
570.79	0.683
570.98	0.681
571.18	0.683
571.38	0.683
571.57	0.679
571.77	0.677
571.96	0.681
572.16	0.678
572.35	0.673
572.55	0.674
572.75	0.672
572.94	0.672
573.14	0.670
573.33	0.670
573.53	0.671
573.73	0.670
573.92	0.668
574.12	0.666
574.31	0.668
574.51	0.669
574.70	0.666
574.90	0.668
575.09	0.670
575.29	0.670
575.49	0.667
575.68	0.668
575.88	0.670
576.07	0.671
576.27	0.669
576.46	0.668
576.66	0.668
576.86	0.667
577.05	0.665
577.25	0.663
577.44	0.666
577.64	0.665
577.83	0.662
578.03	0.663
578.22	0.663
578.42	0.662
578.61	0.660
578.81	0.661
579.00	0.662
579.20	0.661
579.40	0.660
579.59	0.658
579.79	0.659
579.98	0.659
580.18	0.658
580.37	0.659
580.57	0.661
580.76	0.666
580.96	0.664
581.15	0.665
581.35	0.667
581.54	0.666
581.74	0.666
581.93	0.667
582.13	0.669
582.32	0.666
582.52	0.664
582.71	0.663
582.91	0.660
583.10	0.660
583.30	0.658
583.49	0.657
583.69	0.662
583.88	0.663
584.08	0.662
584.27	0.664
584.47	0.667
584.66	0.668
584.86	0.667
585.05	0.669
585.25	0.672
585.44	0.671
585.64	0.669
585.83	0.666
586.03	0.667
586.22	0.665
586.42	0.661
586.61	0.663
586.81	0.666
587.00	0.666
587.20	0.663
587.39	0.664
587.59	0.667
587.78	0.668
587.98	0.668
588.17	0.669
588.37	0.671
588.56	0.673
588.76	0.668
588.95	0.668
589.15	0.673
589.34	0.675
589.54	0.673
589.73	0.674
589.92	0.677
590.12	0.677
590.31	0.673
590.51	0.679
590.70	0.681
590.90	0.681
591.09	0.679
591.29	0.677
591.48	0.677
591.68	0.678
591.87	0.676
592.06	0.675
592.26	0.678
592.45	0.679
592.65	0.672
592.84	0.671
593.04	0.674
593.23	0.676
593.43	0.674
593.62	0.673
593.81	0.674
594.01	0.674
594.20	0.672
594.40	0.671
594.59	0.673
594.79	0.675
594.98	0.673
595.17	0.672
595.37	0.674
595.56	0.675
595.76	0.674
595.95	0.675
596.14	0.678
596.34	0.679
596.53	0.676
596.73	0.678
596.92	0.679
597.12	0.681
597.31	0.681
597.50	0.679
597.70	0.682
597.89	0.681
598.09	0.677
598.28	0.679
598.47	0.682
598.67	0.681
598.86	0.677
599.06	0.679
599.25	0.680
599.44	0.678
599.64	0.675
599.83	0.673
600.03	0.677
600.22	0.678
600.41	0.677
600.61	0.675
600.80	0.677
601.00	0.677
601.19	0.673
601.38	0.672
601.58	0.675
601.77	0.676
601.96	0.677
602.16	0.676
602.35	0.686
602.55	0.683
602.74	0.684
602.93	0.685
603.13	0.691
603.32	0.692
603.51	0.691
603.71	0.694
603.90	0.696
604.09	0.697
604.29	0.694
604.48	0.688
604.68	0.691
604.87	0.689
605.06	0.686
605.26	0.683
605.45	0.684
605.64	0.684
605.84	0.678
606.03	0.677
606.22	0.676
606.42	0.675
606.61	0.671
606.80	0.671
607.00	0.674
607.19	0.675
607.38	0.673
607.58	0.674
607.77	0.677
607.96	0.677
608.16	0.675
608.35	0.680
608.54	0.684
608.74	0.687
608.93	0.691
609.12	0.694
609.32	0.697
609.51	0.700
609.70	0.699
609.90	0.701
610.09	0.706
610.28	0.711
610.48	0.704
610.67	0.705
610.86	0.707
611.06	0.701
611.25	0.698
611.44	0.698
611.64	0.698
611.83	0.701
612.02	0.696
612.21	0.695
612.41	0.695
612.60	0.694
612.79	0.689
612.99	0.690
613.18	0.692
613.37	0.690
613.57	0.687
613.76	0.689
613.95	0.687
614.14	0.686
614.34	0.684
614.53	0.685
614.72	0.688
614.92	0.689
615.11	0.685
615.30	0.682
615.49	0.685
615.69	0.688
615.88	0.683
616.07	0.685
616.26	0.688
616.46	0.689
616.65	0.686
616.84	0.684
617.04	0.687
617.23	0.691
617.42	0.691
617.61	0.694
617.81	0.696
618.00	0.698
618.19	0.696
618.38	0.699
618.58	0.703
618.77	0.704
618.96	0.703
619.15	0.704
619.35	0.705
619.54	0.706
619.73	0.700
619.92	0.702
620.12	0.707
620.31	0.707
620.50	0.701
620.69	0.701
620.89	0.706
621.08	0.706
621.27	0.706
621.46	0.704
621.66	0.710
621.85	0.710
622.04	0.705
622.23	0.705
622.43	0.706
622.62	0.707
622.81	0.705
623.00	0.705
623.19	0.709
623.39	0.708
623.58	0.705
623.77	0.702
623.96	0.706
624.16	0.707
624.35	0.702
624.54	0.704
624.73	0.709
624.92	0.706
625.12	0.703
625.31	0.704
625.50	0.707
625.69	0.709
625.88	0.705
626.08	0.704
626.27	0.706
626.46	0.706
626.65	0.704
626.84	0.704
627.04	0.709
627.23	0.709
627.42	0.704
627.61	0.707
627.80	0.709
628.00	0.710
628.19	0.708
628.38	0.711
628.57	0.715
628.76	0.713
628.96	0.709
629.15	0.711
629.34	0.714
629.53	0.715
629.72	0.708
629.91	0.709
630.11	0.714
630.30	0.714
630.49	0.717
630.68	0.717
630.87	0.722
631.06	0.724
631.26	0.719
631.45	0.720
631.64	0.729
631.83	0.732
632.02	0.728
632.21	0.728
632.41	0.737
632.60	0.730
632.79	0.728
632.98	0.728
633.17	0.730
633.36	0.732
633.55	0.727
633.75	0.723
633.94	0.725
634.13	0.725
634.32	0.721
634.51	0.715
634.70	0.719
634.89	0.718
635.09	0.714
635.28	0.715
635.47	0.717
635.66	0.720
635.85	0.714
636.04	0.716
636.23	0.721
636.43	0.722
636.62	0.720
636.81	0.718
637.00	0.722
637.19	0.725
637.38	0.721
637.57	0.721
637.76	0.724
637.95	0.725
638.15	0.721
638.34	0.718
638.53	0.723
638.72	0.725
638.91	0.721
639.10	0.718
639.29	0.719
639.48	0.720
639.67	0.720
639.87	0.718
640.06	0.723
640.25	0.723
640.44	0.723
640.63	0.723
640.82	0.727
641.01	0.727
641.20	0.726
641.39	0.728
641.58	0.732
641.78	0.730
641.97	0.726
642.16	0.742
642.35	0.742
642.54	0.739
642.73	0.733
642.92	0.732
643.11	0.737
643.30	0.738
643.49	0.731
643.68	0.733
643.87	0.736
644.06	0.736
644.25	0.714
644.45	0.718
644.64	0.721
644.83	0.720
645.02	0.716
645.21	0.715
645.40	0.717
645.59	0.717
645.78	0.710
645.97	0.712
646.16	0.713
646.35	0.713
646.54	0.710
646.73	0.711
646.92	0.714
647.11	0.714
647.30	0.709
647.49	0.710
647.68	0.710
647.88	0.708
648.07	0.700
648.26	0.704
648.45	0.706
648.64	0.702
648.83	0.698
649.02	0.701
649.21	0.712
649.40	0.711
649.59	0.705
649.78	0.706
649.97	0.722
650.16	0.722
650.35	0.716
650.54	0.718
650.73	0.727
650.92	0.725
651.11	0.717
651.30	0.715
651.49	0.720
651.68	0.721
651.87	0.718
652.06	0.707
652.25	0.710
652.44	0.711
652.63	0.706
652.82	0.705
653.01	0.705
653.20	0.702
653.39	0.688
653.58	0.686
653.77	0.686
653.96	0.681
654.15	0.673
654.34	0.671
654.53	0.667
654.72	0.663
654.91	0.653
655.10	0.649
655.29	0.648
655.48	0.646
655.67	0.641
655.86	0.638
656.05	0.638
656.24	0.637
656.43	0.632
656.62	0.631
656.81	0.632
657.00	0.631
657.19	0.629
657.38	0.630
657.57	0.630
657.76	0.634
657.95	0.632
658.14	0.636
658.33	0.639
658.51	0.644
658.70	0.644
658.89	0.645
659.08	0.653
659.27	0.661
659.46	0.660
659.65	0.667
659.84	0.670
660.03	0.674
660.22	0.674
660.41	0.678
660.60	0.678
660.79	0.679
660.98	0.685
661.17	0.684
661.36	0.684
661.55	0.684
661.74	0.680
661.92	0.682
662.11	0.685
662.30	0.683
662.49	0.675
662.68	0.675
662.87	0.680
663.06	0.674
663.25	0.673
663.44	0.673
663.63	0.675
663.82	0.674
664.01	0.668
664.20	0.667
664.38	0.669
664.57	0.670
664.76	0.669
664.95	0.668
665.14	0.673
665.33	0.669
665.52	0.677
665.71	0.681
665.90	0.681
666.09	0.683
666.28	0.680
666.46	0.679
666.65	0.681
666.84	0.679
667.03	0.673
667.22	0.671
667.41	0.674
667.60	0.663
667.79	0.656
667.98	0.657
668.16	0.659
668.35	0.658
668.54	0.654
668.73	0.654
668.92	0.655
669.11	0.655
669.30	0.649
669.49	0.645
669.67	0.646
669.86	0.649
670.05	0.646
670.24	0.644
670.43	0.642
670.62	0.642
670.81	0.636
671.00	0.637
671.18	0.638
671.37	0.637
671.56	0.635
671.75	0.634
671.94	0.631
672.13	0.628
672.32	0.623
672.50	0.623
672.69	0.623
672.88	0.624
673.07	0.618
673.26	0.620
673.45	0.622
673.63	0.621
673.82	0.618
674.01	0.619
674.20	0.619
674.39	0.618
674.58	0.617
674.76	0.617
674.95	0.616
675.14	0.616
675.33	0.611
675.52	0.609
675.71	0.610
675.89	0.609
676.08	0.605
676.27	0.605
676.46	0.606
676.65	0.605
676.84	0.604
677.02	0.606
677.21	0.609
677.40	0.609
677.59	0.606
677.78	0.606
677.96	0.609
678.15	0.608
678.34	0.605
678.53	0.607
678.72	0.606
678.90	0.603
679.09	0.598
679.28	0.594
679.47	0.594
679.66	0.594
679.84	0.591
680.03	0.589
680.22	0.588
680.41	0.590
680.60	0.586
680.78	0.586
680.97	0.589
681.16	0.590
681.35	0.589
681.53	0.587
681.72	0.589
681.91	0.590
682.10	0.588
682.29	0.591
682.47	0.589
682.66	0.588
682.85	0.586
683.04	0.584
683.22	0.584
683.41	0.584
683.60	0.583
683.79	0.584
683.97	0.584
684.16	0.582
684.35	0.578
684.54	0.580
684.72	0.581
684.91	0.581
685.10	0.579
685.29	0.581
685.47	0.579
685.66	0.578
685.85	0.574
686.04	0.574
686.22	0.577
686.41	0.580
686.60	0.576
686.79	0.579
686.97	0.580
687.16	0.581
687.35	0.578
687.54	0.582
687.72	0.587
687.91	0.586
688.10	0.588
688.29	0.588
688.47	0.586
688.66	0.585
688.85	0.581
689.03	0.578
689.22	0.583
689.41	0.583
689.60	0.577
689.78	0.575
689.97	0.576
690.16	0.573
690.34	0.569
690.53	0.569
690.72	0.569
690.91	0.567
691.09	0.565
691.28	0.559
691.47	0.558
691.65	0.558
691.84	0.555
692.03	0.554
692.21	0.552
692.40	0.551
692.59	0.549
692.77	0.548
692.96	0.550
693.15	0.551
693.34	0.548
693.52	0.547
693.71	0.548
693.90	0.549
694.08	0.549
694.27	0.550
694.46	0.561
694.64	0.562
694.83	0.561
695.02	0.559
695.20	0.559
695.39	0.559
695.58	0.559
695.76	0.560
695.95	0.560
696.14	0.559
696.32	0.556
696.51	0.546
696.70	0.546
696.88	0.548
697.07	0.546
697.26	0.547
697.44	0.548
697.63	0.547
697.81	0.545
698.00	0.543
698.19	0.543
698.37	0.544
698.56	0.543
698.75	0.543
698.93	0.543
699.12	0.543
699.31	0.542
699.49	0.541
699.68	0.542
699.87	0.545
700.05	0.545
700.24	0.543
700.42	0.545
700.61	0.544
700.80	0.542
700.98	0.541
701.17	0.544
701.36	0.543
701.54	0.542
701.73	0.544
701.91	0.541
702.10	0.541
702.29	0.539
702.47	0.538
702.66	0.540
702.84	0.541
703.03	0.539
703.22	0.541
703.40	0.541
703.59	0.543
703.77	0.541
703.96	0.541
704.15	0.542
704.33	0.543
704.52	0.542
704.70	0.541
704.89	0.541
705.08	0.539
705.26	0.534
705.45	0.533
705.63	0.533
705.82	0.530
706.00	0.529
706.19	0.528
706.38	0.528
706.56	0.528
706.75	0.525
706.93	0.525
707.12	0.526
707.30	0.527
707.49	0.525
707.68	0.522
707.86	0.523
708.05	0.523
708.23	0.519
708.42	0.520
708.60	0.523
708.79	0.524
708.98	0.522
709.16	0.521
709.35	0.524
709.53	0.528
709.72	0.527
709.90	0.529
710.09	0.531
710.27	0.533
710.46	0.536
710.64	0.534
710.83	0.536
711.02	0.538
711.20	0.535
711.39	0.533
711.57	0.531
711.76	0.532
711.94	0.529
712.13	0.530
712.31	0.530
712.50	0.525
712.68	0.523
712.87	0.524
713.05	0.524
713.24	0.525
713.42	0.524
713.61	0.524
713.79	0.525
713.98	0.526
714.16	0.526
714.35	0.526
714.54	0.527
714.72	0.527
714.91	0.524
715.09	0.530
715.28	0.534
715.46	0.534
715.65	0.531
715.83	0.531
716.02	0.534
716.20	0.530
716.39	0.529
716.57	0.530
716.76	0.533
716.94	0.534
717.12	0.525
717.31	0.527
717.49	0.530
717.68	0.532
717.86	0.532
718.05	0.533
718.23	0.536
718.42	0.538
718.60	0.540
718.79	0.548
718.97	0.551
719.16	0.552
719.34	0.550
719.53	0.549
719.71	0.550
719.90	0.552
720.08	0.548
720.27	0.548
720.45	0.548
720.63	0.546
720.82	0.539
721.00	0.541
721.19	0.545
721.37	0.544
721.56	0.544
721.74	0.547
721.93	0.555
722.11	0.562
722.30	0.560
722.48	0.566
722.66	0.567
722.85	0.567
723.03	0.566
723.22	0.564
723.40	0.568
723.59	0.567
723.77	0.572
723.95	0.565
724.14	0.568
724.32	0.570
724.51	0.568
724.69	0.570
724.88	0.570
725.06	0.568
725.24	0.569
725.43	0.570
725.61	0.573
725.80	0.565
725.98	0.562
726.16	0.559
726.35	0.565
726.53	0.564
726.72	0.562
726.90	0.573
727.09	0.575
727.27	0.581
727.45	0.577
727.64	0.587
727.82	0.597
728.01	0.603
728.19	0.599
728.37	0.605
728.56	0.611
728.74	0.617
728.92	0.604
729.11	0.607
729.29	0.606
729.48	0.608
729.66	0.596
729.84	0.596
730.03	0.600
730.21	0.602
730.40	0.591
730.58	0.593
730.76	0.594
730.95	0.596
731.13	0.595
731.31	0.609
731.50	0.619
731.68	0.622
731.86	0.616
732.05	0.632
732.23	0.635
732.42	0.637
732.60	0.639
732.78	0.644
732.97	0.665
733.15	0.671
733.33	0.657
733.52	0.665
733.70	0.678
733.88	0.688
734.07	0.671
734.25	0.699
734.43	0.712
734.62	0.715
734.80	0.709
734.98	0.700
735.17	0.709
735.35	0.717
735.53	0.704
735.72	0.708
735.90	0.734
736.08	0.754
736.27	0.728
736.45	0.737
736.63	0.753
736.82	0.764
737.00	0.763
737.18	0.774
737.37	0.812
737.55	0.837
737.73	0.827
737.92	0.830
738.10	0.829
738.28	0.851
738.46	0.837
738.65	0.853
738.83	0.882
739.01	0.940
739.20	0.925
739.38	0.905
739.56	0.898
739.75	0.905
739.93	0.863
740.11	0.890
740.29	0.894
740.48	0.900
740.66	0.871
740.84	0.861
741.03	0.828
741.21	0.840
741.39	0.817
741.57	0.833
741.76	0.854
741.94	0.860
742.12	0.818
742.31	0.823
742.49	0.845
742.67	0.871
742.85	0.884
743.04	0.885
743.22	0.898
743.40	0.954
743.58	0.930
743.77	0.950
743.95	0.995
744.13	1.055
744.31	1.029
744.50	1.026
744.68	1.030
744.86	0.994
745.04	1.007
745.23	1.087
745.41	1.077
745.59	1.082
745.77	1.037
745.96	1.021
746.14	1.037
746.32	1.031
746.50	1.017
746.69	1.001
746.87	1.030
747.05	1.007
747.23	0.919
747.42	0.906
747.60	0.944
747.78	0.947
747.96	0.978
748.14	0.925
748.33	0.963
748.51	0.953
748.69	0.938
748.87	0.973
749.06	0.980
749.24	0.979
749.42	0.954
749.60	0.929
749.78	0.944
749.97	0.892
750.15	0.885
750.33	0.890
750.51	0.928
750.69	0.936
750.88	0.931
751.06	0.940
751.24	0.970
751.42	0.959
751.60	0.947
751.79	1.028
751.97	1.094
752.15	1.089
752.33	1.042
752.51	1.114
752.69	1.139
752.88	1.091
753.06	1.148
753.24	1.116
753.42	1.176
753.60	1.406
753.78	1.201
753.97	1.217
754.15	1.254
754.33	1.302
754.51	1.132
754.69	1.105
754.87	1.154
755.06	1.061
755.24	1.059
755.42	1.062
755.60	0.951
755.78	0.957
755.96	0.893
756.15	0.895
756.33	0.900
756.51	0.918
756.69	0.900
756.87	0.865
757.05	0.888
757.23	0.870
757.42	0.831
757.60	0.829
757.78	0.822
757.96	0.818
758.14	0.797
758.32	0.782
758.50	0.798
758.69	0.798
758.87	0.786
759.05	0.792
759.23	0.807
759.41	0.805
759.59	0.794
759.77	0.820
759.95	0.855
760.13	0.909
760.32	0.906
760.50	0.901
760.68	0.934
760.86	0.933
761.04	0.896
761.22	0.895
761.40	0.958
761.58	0.961
761.76	0.925
761.95	0.905
762.13	0.859
762.31	0.857
762.49	0.818
762.67	0.836
762.85	0.855
763.03	0.852
763.21	0.831
763.39	0.809
763.57	0.814
763.75	0.808
763.94	0.788
764.12	0.783
764.30	0.814
764.48	0.820
764.66	0.777
764.84	0.773
765.02	0.816
765.20	0.826
765.38	0.802
765.56	0.811
765.74	0.857
765.92	0.858
766.10	0.870
766.28	0.864
766.46	0.900
766.65	0.903
766.83	0.888
767.01	0.869
767.19	0.878
767.37	0.878
767.55	0.858
767.73	0.836
767.91	0.844
768.09	0.831
768.27	0.813
768.45	0.802
768.63	0.808
768.81	0.809
768.99	0.779
769.17	0.807
769.35	0.829
769.53	0.827
769.71	0.802
769.89	0.812
770.07	0.822
770.25	0.806
770.43	0.778
770.61	0.804
770.79	0.811
770.97	0.820
771.15	0.781
771.33	0.783
771.51	0.787
771.69	0.799
771.87	0.803
772.05	0.807
772.24	0.819
772.42	0.829
772.60	0.803
772.78	0.873
772.96	0.907
773.14	0.904
773.32	0.871
773.49	0.880
773.67	0.883
773.85	0.859
774.03	0.845
774.21	0.877
774.39	0.896
774.57	0.923
774.75	0.837
774.93	0.831
775.11	0.859
775.29	0.868
775.47	0.865
775.65	0.876
775.83	0.903
776.01	0.929
776.19	0.873
776.37	0.875
776.55	0.875
776.73	0.873
776.91	0.867
777.09	0.849
777.27	0.850
777.45	0.837
777.63	0.807
777.81	0.799
777.99	0.788
778.17	0.790
778.35	0.765
778.53	0.752
778.71	0.760
778.89	0.745
779.07	0.732
779.24	0.736
779.42	0.741
779.60	0.763
779.78	0.756
779.96	0.764
780.14	0.775
780.32	0.799
780.50	0.779
780.68	0.777
780.86	0.773
781.04	0.792
781.22	0.798
781.40	0.811
781.58	0.802
781.75	0.796
781.93	0.769
782.11	0.768
782.29	0.752
782.47	0.752
782.65	0.738
782.83	0.769
783.01	0.763
783.19	0.754
783.37	0.734
783.55	0.738
783.72	0.758
783.90	0.770
784.08	0.758
784.26	0.772
784.44	0.794
784.62	0.793
784.80	0.753
784.98	0.757
785.16	0.767
785.33	0.784
785.51	0.762
785.69	0.747
785.87	0.749
786.05	0.760
786.23	0.753
786.41	0.752
786.59	0.764
786.77	0.763
786.94	0.749
787.12	0.752
787.30	0.755
787.48	0.752
787.66	0.739
787.84	0.739
788.02	0.730
788.19	0.726
788.37	0.709
788.55	0.710
788.73	0.712
788.91	0.705
789.09	0.687
789.27	0.676
789.44	0.691
789.62	0.698
789.80	0.706
789.98	0.735
790.16	0.722
790.34	0.720
790.51	0.705
790.69	0.728
790.87	0.735
791.05	0.731
791.23	0.722
791.41	0.722
791.58	0.733
791.76	0.709
791.94	0.673
792.12	0.684
792.30	0.687
792.48	0.684
792.65	0.675
792.83	0.684
793.01	0.694
793.19	0.691
793.37	0.673
793.54	0.669
793.72	0.683
793.90	0.684
794.08	0.670
794.26	0.673
794.43	0.685
794.61	0.667
794.79	0.653
794.97	0.654
795.15	0.663
795.32	0.670
795.50	0.657
795.68	0.653
795.86	0.658
796.04	0.660
796.21	0.653
796.39	0.651
796.57	0.668
796.75	0.676
796.92	0.675
797.10	0.679
797.28	0.682
797.46	0.685
797.64	0.684
797.81	0.690
797.99	0.697
798.17	0.701
798.35	0.691
798.52	0.693
798.70	0.692
798.88	0.701
799.06	0.698
799.23	0.701
799.41	0.709
799.59	0.703
799.77	0.688
799.94	0.696
800.12	0.708
800.30	0.728
800.48	0.725
800.65	0.724
800.83	0.717
801.01	0.707
801.19	0.703
801.36	0.701
801.54	0.706
801.72	0.719
801.90	0.703
802.07	0.697
802.25	0.683
802.43	0.665
802.60	0.659
802.78	0.665
802.96	0.673
803.14	0.666
803.31	0.662
803.49	0.662
803.67	0.661
803.84	0.665
804.02	0.655
804.20	0.659
804.38	0.667
804.55	0.666
804.73	0.648
804.91	0.647
805.08	0.662
805.26	0.657
805.44	0.718
805.61	0.720
805.79	0.719
805.97	0.717
806.15	0.705
806.32	0.699
806.50	0.708
806.68	0.710
806.85	0.701
807.03	0.690
807.21	0.711
807.38	0.647
807.56	0.636
807.74	0.648
807.91	0.657
808.09	0.660
808.27	0.681
808.44	0.711
808.62	0.722
808.80	0.722
808.97	0.716
809.15	0.709
809.33	0.729
809.50	0.734
809.68	0.719
809.86	0.728
810.03	0.766
810.21	0.742
810.39	0.719
810.56	0.724
810.74	0.754
810.91	0.835
811.09	0.821
811.27	0.844
811.44	0.855
811.62	0.853
811.80	0.833
811.97	0.795
812.15	0.793
812.33	0.790
812.50	0.771
812.68	0.759
812.85	0.701
813.03	0.704
813.21	0.670
813.38	0.662
813.56	0.670
813.74	0.681
813.91	0.687
814.09	0.722
814.26	0.715
814.44	0.720
814.62	0.706
814.79	0.710
814.97	0.717
815.14	0.721
815.32	0.724
815.50	0.740
815.67	0.748
815.85	0.739
816.02	0.728
816.20	0.736
816.38	0.756
816.55	0.762
816.73	0.760
816.90	0.772
817.08	0.809
817.26	0.818
817.43	0.793
817.61	0.815
817.78	0.842
817.96	0.818
818.13	0.805
818.31	0.804
818.49	0.823
818.66	0.809
818.84	0.790
819.01	0.767
819.19	0.777
819.36	0.779
819.54	0.747
819.71	0.792
819.89	0.810
820.07	0.823
820.24	0.816
820.42	0.815
820.59	0.841
820.77	0.866
820.94	0.849
821.12	0.870
821.29	0.893
821.47	0.891
821.64	0.817
821.82	0.832
822.00	0.830
822.17	0.829
822.35	0.818
822.52	0.823
822.70	0.816
822.87	0.828
823.05	0.798
823.22	0.811
823.40	0.847
823.57	0.871
823.75	0.842
823.92	0.882
824.10	0.906
824.27	0.953
824.45	0.933
824.62	1.013
824.80	1.041
824.97	1.064
825.15	1.047
825.32	1.063
825.50	1.073
825.67	1.089
825.85	1.045
826.02	1.083
826.20	1.134
826.37	1.349
826.55	1.204
826.72	1.580
826.90	1.821
827.07	2.103
827.25	1.798
827.42	-0.000
827.60	-0.000
827.77	-0.000
827.95	-0.000
828.12	-0.000
828.30	-0.000
828.47	-0.000
828.65	1.825
828.82	2.278
829.00	-0.000
829.17	-0.000
829.34	-0.000
829.52	-0.000
829.69	-0.000
829.87	-0.000
830.04	-0.000
830.22	-0.000
830.39	-0.000
830.57	-0.000
830.74	-0.000
830.92	-0.000
831.09	-0.000
831.26	-0.000
831.44	-0.000
831.61	-0.000
831.79	-0.000
831.96	-0.000
832.14	-0.000
832.31	-0.000
832.49	-0.000
832.66	-0.000
832.83	-0.000
833.01	-0.000
833.18	-0.000
833.36	-0.000
833.53	-0.000
833.70	-0.000
833.88	-0.000
834.05	-0.000
834.23	-0.000
834.40	-0.000
834.58	-0.000
834.75	-0.000
834.92	-0.000
835.10	-0.000
835.27	-0.000
835.45	-0.000
835.62	-0.000
835.79	-0.000
835.97	-0.000
836.14	-0.000
836.32	-0.000
836.49	-0.000
836.66	-0.000
836.84	-0.000
837.01	-0.000
837.18	-0.000
837.36	-0.000
837.53	-0.000
837.71	-0.000
837.88	-0.000
838.05	-0.000
838.23	-0.000
838.40	-0.000
838.58	-0.000
838.75	-0.000
838.92	-0.000
839.10	-0.000
839.27	-0.000
839.44	-0.000
839.62	-0.000
839.79	-0.000
839.96	-0.000
840.14	-0.000
840.31	-0.000
840.48	-0.000
840.66	-0.000
840.83	-0.000
841.01	-0.000
841.18	-0.000
841.35	-0.000
841.53	-0.000
841.70	-0.000
841.87	-0.000
842.05	-0.000
842.22	-0.000
842.39	-0.000
842.57	-0.000
842.74	-0.000
842.91	-0.000
843.09	-0.000
843.26	-0.000
843.43	-0.000
843.60	-0.000
843.78	-0.000
843.95	-0.000
844.12	-0.000
844.30	-0.000
844.47	-0.000
844.64	-0.000
844.82	-0.000
844.99	-0.000
845.16	-0.000
845.34	-0.000
845.51	-0.000
845.68	-0.000
845.85	-0.000
846.03	-0.000
846.20	-0.000
846.37	-0.000
846.55	-0.000
846.72	-0.000
846.89	-0.000
847.06	-0.000
847.24	-0.000
847.41	-0.000
847.58	-0.000
847.76	-0.000
847.93	-0.000
848.10	-0.000
848.27	-0.000
848.45	-0.000
848.62	-0.000
848.79	-0.000
848.97	-0.000
849.14	-0.000
849.31	-0.000
849.48	-0.000
849.66	-0.000
849.83	-0.000
850.00	-0.000
850.17	-0.000
850.35	-0.000
850.52	-0.000
850.69	-0.000
850.86	-0.000
851.04	-0.000
851.21	-0.000
851.38	-0.000
851.55	-0.000
851.72	-0.000
851.90	-0.000
852.07	-0.000
852.24	-0.000
852.41	-0.000
852.59	-0.000
852.76	-0.000
852.93	-0.000
853.10	-0.000
853.28	-0.000
853.45	-0.000
853.62	-0.000
853.79	-0.000
853.96	-0.000
854.14	-0.000
854.31	-0.000
854.48	-0.000
854.65	-0.000
854.82	-0.000
855.00	-0.000
855.17	-0.000
855.34	-0.000
855.51	-0.000
855.68	-0.000
855.86	-0.000
856.03	-0.000
856.20	-0.000
856.37	-0.000
856.54	-0.000
856.72	-0.000
856.89	-0.000
857.06	-0.000
857.23	-0.000
857.40	-0.000
857.57	-0.000
857.75	-0.000
857.92	-0.000
858.09	-0.000
858.26	-0.000
858.43	-0.000
858.60	-0.000
858.78	-0.000
858.95	-0.000
859.12	-0.000
859.29	-0.000
859.46	-0.000
859.63	-0.000
859.81	-0.000
859.98	-0.000
860.15	-0.000
860.32	-0.000
860.49	-0.000
860.66	-0.000
860.83	-0.000
861.01	-0.000
861.18	-0.000
861.35	-0.000
861.52	-0.000
861.69	-0.000
861.86	-0.000
862.03	-0.000
862.21	-0.000
862.38	-0.000
862.55	-0.000
862.72	-0.000
862.89	-0.000
863.06	-0.000
863.23	-0.000
863.40	-0.000
863.58	-0.000
863.75	-0.000
863.92	-0.000
864.09	-0.000
864.26	-0.000
864.43	-0.000
864.60	-0.000
864.77	-0.000
864.94	-0.000
865.11	-0.000
865.29	-0.000
865.46	-0.000
865.63	-0.000
865.80	-0.000
865.97	-0.000
866.14	-0.000
866.31	-0.000
866.48	-0.000
866.65	-0.000
866.82	-0.000
866.99	-0.000
867.16	-0.000
867.34	-0.000
867.51	-0.000
867.68	-0.000
867.85	-0.000
868.02	-0.000
868.19	-0.000
868.36	-0.000
868.53	-0.000
868.70	-0.000
868.87	-0.000
869.04	-0.000
869.21	-0.000
869.38	-0.000
869.55	-0.000
869.72	-0.000
869.89	-0.000
870.06	-0.000
870.24	-0.000
870.41	-0.000
870.58	-0.000
870.75	-0.000
870.92	-0.000
871.09	-0.000
871.26	-0.000
871.43	-0.000
871.60	-0.000
871.77	-0.000
871.94	-0.000
872.11	-0.000
872.28	-0.000
872.45	-0.000
872.62	-0.000
872.79	-0.000
872.96	-0.000
873.13	-0.000
873.30	-0.000
873.47	-0.000
873.64	-0.000
873.81	-0.000
873.98	-0.000
874.15	-0.000
874.32	-0.000
874.49	-0.000
874.66	-0.000
874.83	-0.000
875.00	-0.000
875.17	-0.000
875.34	-0.000
875.51	-0.000
875.68	-0.000
875.85	-0.000
876.02	-0.000
876.19	-0.000
876.36	-0.000
876.53	-0.000
876.70	-0.000
876.87	-0.000
877.04	-0.000
877.21	-0.000
877.38	-0.000
877.55	-0.000
877.72	-0.000
877.89	-0.000
878.06	-0.000
878.23	-0.000
878.39	-0.000
878.56	-0.000
878.73	-0.000
878.90	-0.000
879.07	-0.000
879.24	-0.000
879.41	-0.000
879.58	-0.000
879.75	-0.000
879.92	-0.000
880.09	-0.000
880.26	-0.000
880.43	-0.000
880.60	-0.000
880.77	-0.000
880.94	-0.000
881.11	-0.000
881.27	-0.000
881.44	-0.000
881.61	-0.000
881.78	-0.000
881.95	-0.000
882.12	-0.000
882.29	-0.000
882.46	-0.000
882.63	-0.000
882.80	-0.000
882.97	-0.000
883.14	-0.000
883.30	-0.000
883.47	-0.000
883.64	-0.000
883.81	-0.000
883.98	-0.000
884.15	-0.000
884.32	-0.000
884.49	-0.000
884.66	-0.000
884.82	-0.000
884.99	-0.000
885.16	-0.000
885.33	-0.000
885.50	-0.000
885.67	-0.000
885.84	-0.000
886.01	-0.000
886.17	-0.000
886.34	-0.000
886.51	-0.000
886.68	-0.000
886.85	-0.000
887.02	-0.000
887.19	-0.000
887.36	-0.000
887.52	-0.000
887.69	-0.000
887.86	-0.000
888.03	-0.000
888.20	-0.000
888.37	-0.000
888.54	-0.000
888.70	-0.000
888.87	-0.000
889.04	-0.000
889.21	-0.000
889.38	-0.000
889.55	-0.000
889.71	-0.000
889.88	-0.000
890.05	-0.000
890.22	-0.000
890.39	-0.000
>>>>>End Processed Spectral Data<<<<<
