SpectraSuite Data File
++++++++++++++++++++++++++++++++++++
Date: Fri Jun 19 11:35:57 CEST 2015
User: introlabs
Dark Spectrum Present: Yes
Reference Spectrum Present: Yes
Number of Sampled Component Spectra: 1
Spectrometers: USB4H08886
Integration Time (usec): 5245692 (USB4H08886)
Spectra Averaged: 5 (USB4H08886)
Boxcar Smoothing: 5 (USB4H08886)
Correct for Electrical Dark: Yes (USB4H08886)
Strobe/Lamp Enabled: No (USB4H08886)
Correct for Detector Non-linearity: Yes (USB4H08886)
Correct for Stray Light: Yes (USB4H08886)
Number of Pixels in Processed Spectrum: 3648
>>>>>Begin Processed Spectral Data<<<<<
178.14	-0.000
178.36	-0.000
178.57	-0.000
178.79	-0.000
179.01	-0.000
179.22	-0.000
179.44	-0.000
179.65	-0.000
179.87	-0.000
180.08	-0.000
180.30	-0.000
180.52	-0.000
180.73	-0.000
180.95	-0.000
181.16	-0.000
181.38	-0.000
181.59	-0.000
181.81	-0.000
182.03	-0.000
182.24	-0.000
182.46	-0.000
182.67	-0.000
182.89	-0.000
183.10	-0.000
183.32	-0.000
183.54	-0.000
183.75	-0.000
183.97	-0.000
184.18	-0.000
184.40	-0.000
184.61	-0.000
184.83	-0.000
185.04	-0.000
185.26	-0.000
185.48	-0.000
185.69	-0.000
185.91	-0.000
186.12	-0.000
186.34	-0.000
186.55	-0.000
186.77	-0.000
186.98	-0.000
187.20	-0.000
187.42	-0.000
187.63	-0.000
187.85	-0.000
188.06	-0.000
188.28	-0.000
188.49	-0.000
188.71	-0.000
188.92	-0.000
189.14	-0.000
189.36	-0.000
189.57	-0.000
189.79	-0.000
190.00	-0.000
190.22	-0.000
190.43	-0.000
190.65	-0.000
190.86	-0.000
191.08	-0.000
191.29	-0.000
191.51	-0.000
191.72	-0.000
191.94	-0.000
192.16	-0.000
192.37	-0.000
192.59	-0.000
192.80	-0.000
193.02	-0.000
193.23	-0.000
193.45	-0.000
193.66	-0.000
193.88	-0.000
194.09	-0.000
194.31	-0.000
194.52	-0.000
194.74	-0.000
194.95	-0.000
195.17	-0.000
195.38	-0.000
195.60	-0.000
195.81	-0.000
196.03	-0.000
196.25	-0.000
196.46	-0.000
196.68	-0.000
196.89	-0.000
197.11	-0.000
197.32	-0.000
197.54	-0.000
197.75	-0.000
197.97	-0.000
198.18	-0.000
198.40	-0.000
198.61	-0.000
198.83	-0.000
199.04	-0.000
199.26	-0.000
199.47	-0.000
199.69	-0.000
199.90	-0.000
200.12	-0.000
200.33	-0.000
200.55	-0.000
200.76	-0.000
200.98	-0.000
201.19	-0.000
201.41	-0.000
201.62	-0.000
201.84	-0.000
202.05	-0.000
202.27	-0.000
202.48	-0.000
202.70	-0.000
202.91	-0.000
203.13	-0.000
203.34	-0.000
203.56	-0.000
203.77	-0.000
203.99	-0.000
204.20	-0.000
204.42	-0.000
204.63	-0.000
204.85	-0.000
205.06	-0.000
205.28	-0.000
205.49	-0.000
205.71	-0.000
205.92	-0.000
206.14	-0.000
206.35	-0.000
206.56	-0.000
206.78	-0.000
206.99	-0.000
207.21	-0.000
207.42	-0.000
207.64	-0.000
207.85	-0.000
208.07	-0.000
208.28	-0.000
208.50	-0.000
208.71	-0.000
208.93	-0.000
209.14	-0.000
209.36	-0.000
209.57	-0.000
209.79	-0.000
210.00	-0.000
210.22	-0.000
210.43	-0.000
210.64	-0.000
210.86	-0.000
211.07	-0.000
211.29	-0.000
211.50	-0.000
211.72	-0.000
211.93	-0.000
212.15	-0.000
212.36	-0.000
212.58	-0.000
212.79	-0.000
213.01	-0.000
213.22	-0.000
213.43	-0.000
213.65	-0.000
213.86	-0.000
214.08	-0.000
214.29	-0.000
214.51	-0.000
214.72	-0.000
214.94	-0.000
215.15	-0.000
215.36	-0.000
215.58	-0.000
215.79	-0.000
216.01	-0.000
216.22	-0.000
216.44	-0.000
216.65	-0.000
216.87	-0.000
217.08	-0.000
217.29	-0.000
217.51	-0.000
217.72	-0.000
217.94	-0.000
218.15	-0.000
218.37	-0.000
218.58	-0.000
218.80	-0.000
219.01	-0.000
219.22	-0.000
219.44	-0.000
219.65	-0.000
219.87	-0.000
220.08	-0.000
220.30	-0.000
220.51	-0.000
220.72	-0.000
220.94	-0.000
221.15	-0.000
221.37	-0.000
221.58	-0.000
221.79	-0.000
222.01	-0.000
222.22	-0.000
222.44	-0.000
222.65	-0.000
222.87	-0.000
223.08	-0.000
223.29	-0.000
223.51	-0.000
223.72	-0.000
223.94	-0.000
224.15	-0.000
224.36	-0.000
224.58	-0.000
224.79	-0.000
225.01	-0.000
225.22	-0.000
225.44	-0.000
225.65	-0.000
225.86	-0.000
226.08	-0.000
226.29	-0.000
226.51	-0.000
226.72	-0.000
226.93	-0.000
227.15	-0.000
227.36	-0.000
227.58	-0.000
227.79	-0.000
228.00	-0.000
228.22	-0.000
228.43	-0.000
228.65	-0.000
228.86	-0.000
229.07	-0.000
229.29	-0.000
229.50	-0.000
229.72	-0.000
229.93	-0.000
230.14	-0.000
230.36	-0.000
230.57	-0.000
230.78	-0.000
231.00	-0.000
231.21	-0.000
231.43	-0.000
231.64	-0.000
231.85	-0.000
232.07	-0.000
232.28	-0.000
232.50	-0.000
232.71	-0.000
232.92	-0.000
233.14	-0.000
233.35	-0.000
233.56	-0.000
233.78	-0.000
233.99	-0.000
234.21	-0.000
234.42	-0.000
234.63	-0.000
234.85	-0.000
235.06	-0.000
235.27	-0.000
235.49	-0.000
235.70	-0.000
235.91	-0.000
236.13	-0.000
236.34	-0.000
236.56	-0.000
236.77	-0.000
236.98	-0.000
237.20	-0.000
237.41	-0.000
237.62	-0.000
237.84	-0.000
238.05	-0.000
238.26	-0.000
238.48	-0.000
238.69	-0.000
238.91	-0.000
239.12	-0.000
239.33	-0.000
239.55	-0.000
239.76	-0.000
239.97	-0.000
240.19	-0.000
240.40	-0.000
240.61	-0.000
240.83	-0.000
241.04	-0.000
241.25	-0.000
241.47	-0.000
241.68	-0.000
241.89	-0.000
242.11	-0.000
242.32	-0.000
242.53	-0.000
242.75	-0.000
242.96	-0.000
243.17	-0.000
243.39	-0.000
243.60	-0.000
243.81	-0.000
244.03	-0.000
244.24	-0.000
244.45	-0.000
244.67	-0.000
244.88	-0.000
245.09	-0.000
245.31	-0.000
245.52	-0.000
245.73	-0.000
245.95	-0.000
246.16	-0.000
246.37	-0.000
246.59	-0.000
246.80	-0.000
247.01	-0.000
247.23	-0.000
247.44	-0.000
247.65	-0.000
247.87	-0.000
248.08	-0.000
248.29	-0.000
248.51	-0.000
248.72	-0.000
248.93	-0.000
249.15	-0.000
249.36	-0.000
249.57	-0.000
249.78	-0.000
250.00	-0.000
250.21	-0.000
250.42	-0.000
250.64	-0.000
250.85	-0.000
251.06	-0.000
251.28	-0.000
251.49	-0.000
251.70	-0.000
251.92	-0.000
252.13	-0.000
252.34	-0.000
252.55	-0.000
252.77	-0.000
252.98	-0.000
253.19	-0.000
253.41	-0.000
253.62	-0.000
253.83	-0.000
254.05	-0.000
254.26	-0.000
254.47	-0.000
254.68	-0.000
254.90	-0.000
255.11	-0.000
255.32	-0.000
255.54	-0.000
255.75	-0.000
255.96	-0.000
256.17	-0.000
256.39	-0.000
256.60	-0.000
256.81	-0.000
257.03	-0.000
257.24	-0.000
257.45	-0.000
257.66	-0.000
257.88	2.708
258.09	1.773
258.30	1.686
258.51	1.566
258.73	1.396
258.94	1.178
259.15	1.089
259.37	1.051
259.58	0.970
259.79	0.965
260.00	1.025
260.22	1.114
260.43	1.106
260.64	1.032
260.85	1.075
261.07	0.998
261.28	1.087
261.49	1.089
261.71	1.088
261.92	1.267
262.13	1.156
262.34	1.074
262.56	1.004
262.77	0.981
262.98	0.963
263.19	0.972
263.41	1.064
263.62	1.043
263.83	1.045
264.04	1.028
264.26	0.910
264.47	0.928
264.68	0.956
264.89	1.001
265.11	0.988
265.32	1.026
265.53	0.972
265.74	0.944
265.96	0.924
266.17	0.940
266.38	0.895
266.59	0.956
266.81	0.933
267.02	0.864
267.23	0.800
267.44	0.830
267.65	0.785
267.87	0.788
268.08	0.761
268.29	0.727
268.50	0.708
268.72	0.707
268.93	0.665
269.14	0.661
269.35	0.662
269.57	0.654
269.78	0.627
269.99	0.633
270.20	0.620
270.41	0.612
270.63	0.611
270.84	0.610
271.05	0.596
271.26	0.595
271.48	0.596
271.69	0.605
271.90	0.601
272.11	0.598
272.32	0.610
272.54	0.596
272.75	0.588
272.96	0.583
273.17	0.563
273.39	0.567
273.60	0.563
273.81	0.573
274.02	0.564
274.23	0.569
274.45	0.570
274.66	0.550
274.87	0.553
275.08	0.546
275.29	0.553
275.51	0.556
275.72	0.543
275.93	0.539
276.14	0.511
276.35	0.515
276.57	0.506
276.78	0.513
276.99	0.509
277.20	0.516
277.41	0.506
277.63	0.486
277.84	0.476
278.05	0.477
278.26	0.471
278.47	0.475
278.69	0.453
278.90	0.446
279.11	0.429
279.32	0.423
279.53	0.408
279.74	0.415
279.96	0.412
280.17	0.408
280.38	0.409
280.59	0.407
280.80	0.407
281.02	0.409
281.23	0.407
281.44	0.407
281.65	0.405
281.86	0.411
282.07	0.402
282.29	0.404
282.50	0.404
282.71	0.392
282.92	0.385
283.13	0.376
283.35	0.374
283.56	0.368
283.77	0.369
283.98	0.368
284.19	0.358
284.40	0.359
284.62	0.350
284.83	0.345
285.04	0.342
285.25	0.340
285.46	0.335
285.67	0.329
285.88	0.330
286.10	0.325
286.31	0.324
286.52	0.324
286.73	0.320
286.94	0.316
287.15	0.312
287.37	0.314
287.58	0.311
287.79	0.309
288.00	0.306
288.21	0.302
288.42	0.296
288.63	0.292
288.85	0.285
289.06	0.279
289.27	0.278
289.48	0.276
289.69	0.271
289.90	0.268
290.11	0.267
290.33	0.263
290.54	0.261
290.75	0.262
290.96	0.258
291.17	0.259
291.38	0.258
291.59	0.255
291.81	0.254
292.02	0.253
292.23	0.252
292.44	0.250
292.65	0.248
292.86	0.245
293.07	0.241
293.28	0.242
293.50	0.240
293.71	0.238
293.92	0.236
294.13	0.235
294.34	0.232
294.55	0.231
294.76	0.230
294.97	0.230
295.19	0.229
295.40	0.228
295.61	0.226
295.82	0.227
296.03	0.227
296.24	0.226
296.45	0.225
296.66	0.226
296.87	0.225
297.09	0.225
297.30	0.224
297.51	0.223
297.72	0.223
297.93	0.221
298.14	0.218
298.35	0.217
298.56	0.217
298.77	0.216
298.99	0.215
299.20	0.214
299.41	0.213
299.62	0.213
299.83	0.212
300.04	0.212
300.25	0.211
300.46	0.211
300.67	0.210
300.88	0.209
301.10	0.208
301.31	0.206
301.52	0.206
301.73	0.205
301.94	0.204
302.15	0.204
302.36	0.203
302.57	0.203
302.78	0.201
302.99	0.201
303.20	0.200
303.41	0.199
303.63	0.200
303.84	0.200
304.05	0.199
304.26	0.198
304.47	0.197
304.68	0.196
304.89	0.195
305.10	0.196
305.31	0.195
305.52	0.195
305.73	0.195
305.94	0.194
306.15	0.193
306.37	0.192
306.58	0.191
306.79	0.192
307.00	0.191
307.21	0.191
307.42	0.189
307.63	0.189
307.84	0.190
308.05	0.189
308.26	0.188
308.47	0.188
308.68	0.188
308.89	0.188
309.10	0.187
309.31	0.187
309.52	0.187
309.73	0.186
309.95	0.186
310.16	0.184
310.37	0.184
310.58	0.183
310.79	0.182
311.00	0.180
311.21	0.180
311.42	0.180
311.63	0.179
311.84	0.179
312.05	0.178
312.26	0.177
312.47	0.177
312.68	0.176
312.89	0.177
313.10	0.178
313.31	0.178
313.52	0.178
313.73	0.177
313.94	0.177
314.15	0.178
314.36	0.177
314.57	0.177
314.78	0.177
314.99	0.177
315.21	0.176
315.42	0.175
315.63	0.174
315.84	0.174
316.05	0.174
316.26	0.173
316.47	0.172
316.68	0.173
316.89	0.172
317.10	0.172
317.31	0.172
317.52	0.173
317.73	0.173
317.94	0.172
318.15	0.172
318.36	0.173
318.57	0.173
318.78	0.173
318.99	0.173
319.20	0.173
319.41	0.173
319.62	0.172
319.83	0.172
320.04	0.171
320.25	0.171
320.46	0.171
320.67	0.170
320.88	0.170
321.09	0.169
321.30	0.168
321.51	0.167
321.72	0.167
321.93	0.166
322.14	0.166
322.35	0.165
322.56	0.164
322.77	0.164
322.98	0.163
323.19	0.163
323.40	0.162
323.61	0.162
323.82	0.161
324.03	0.161
324.24	0.161
324.45	0.161
324.66	0.161
324.87	0.162
325.08	0.161
325.29	0.162
325.50	0.162
325.71	0.163
325.92	0.162
326.13	0.163
326.34	0.163
326.55	0.163
326.76	0.163
326.97	0.162
327.18	0.162
327.39	0.162
327.60	0.161
327.80	0.161
328.01	0.160
328.22	0.160
328.43	0.160
328.64	0.159
328.85	0.158
329.06	0.158
329.27	0.158
329.48	0.157
329.69	0.157
329.90	0.157
330.11	0.158
330.32	0.158
330.53	0.158
330.74	0.157
330.95	0.157
331.16	0.157
331.37	0.158
331.58	0.157
331.79	0.157
332.00	0.157
332.21	0.157
332.42	0.156
332.63	0.156
332.83	0.156
333.04	0.156
333.25	0.155
333.46	0.154
333.67	0.154
333.88	0.154
334.09	0.153
334.30	0.154
334.51	0.154
334.72	0.153
334.93	0.153
335.14	0.153
335.35	0.152
335.56	0.152
335.77	0.152
335.98	0.152
336.18	0.151
336.39	0.151
336.60	0.150
336.81	0.150
337.02	0.150
337.23	0.149
337.44	0.149
337.65	0.149
337.86	0.149
338.07	0.149
338.28	0.149
338.49	0.150
338.70	0.150
338.91	0.149
339.11	0.149
339.32	0.149
339.53	0.150
339.74	0.150
339.95	0.150
340.16	0.150
340.37	0.150
340.58	0.149
340.79	0.149
341.00	0.149
341.21	0.148
341.41	0.147
341.62	0.147
341.83	0.147
342.04	0.146
342.25	0.145
342.46	0.145
342.67	0.145
342.88	0.145
343.09	0.144
343.30	0.144
343.50	0.144
343.71	0.145
343.92	0.145
344.13	0.144
344.34	0.144
344.55	0.144
344.76	0.144
344.97	0.144
345.18	0.143
345.38	0.143
345.59	0.143
345.80	0.143
346.01	0.143
346.22	0.143
346.43	0.143
346.64	0.143
346.85	0.143
347.06	0.143
347.26	0.143
347.47	0.142
347.68	0.142
347.89	0.142
348.10	0.142
348.31	0.142
348.52	0.142
348.73	0.142
348.93	0.142
349.14	0.142
349.35	0.142
349.56	0.142
349.77	0.142
349.98	0.142
350.19	0.142
350.39	0.141
350.60	0.141
350.81	0.141
351.02	0.140
351.23	0.140
351.44	0.140
351.65	0.140
351.86	0.140
352.06	0.140
352.27	0.139
352.48	0.140
352.69	0.139
352.90	0.140
353.11	0.139
353.31	0.140
353.52	0.140
353.73	0.140
353.94	0.139
354.15	0.139
354.36	0.138
354.57	0.138
354.77	0.138
354.98	0.138
355.19	0.138
355.40	0.138
355.61	0.137
355.82	0.137
356.02	0.136
356.23	0.136
356.44	0.136
356.65	0.136
356.86	0.135
357.07	0.135
357.27	0.135
357.48	0.135
357.69	0.134
357.90	0.135
358.11	0.135
358.32	0.135
358.52	0.135
358.73	0.135
358.94	0.135
359.15	0.135
359.36	0.135
359.56	0.135
359.77	0.135
359.98	0.136
360.19	0.135
360.40	0.135
360.61	0.135
360.81	0.135
361.02	0.135
361.23	0.134
361.44	0.135
361.65	0.134
361.85	0.134
362.06	0.135
362.27	0.134
362.48	0.134
362.69	0.134
362.89	0.134
363.10	0.135
363.31	0.135
363.52	0.135
363.73	0.134
363.93	0.134
364.14	0.134
364.35	0.134
364.56	0.134
364.77	0.134
364.97	0.134
365.18	0.134
365.39	0.133
365.60	0.132
365.81	0.132
366.01	0.132
366.22	0.132
366.43	0.132
366.64	0.132
366.84	0.131
367.05	0.131
367.26	0.130
367.47	0.131
367.68	0.131
367.88	0.131
368.09	0.131
368.30	0.131
368.51	0.130
368.71	0.130
368.92	0.130
369.13	0.130
369.34	0.130
369.55	0.131
369.75	0.131
369.96	0.131
370.17	0.131
370.38	0.131
370.58	0.130
370.79	0.130
371.00	0.130
371.21	0.130
371.41	0.130
371.62	0.129
371.83	0.129
372.04	0.128
372.24	0.129
372.45	0.128
372.66	0.128
372.87	0.129
373.07	0.129
373.28	0.129
373.49	0.129
373.70	0.129
373.90	0.129
374.11	0.129
374.32	0.129
374.53	0.129
374.73	0.129
374.94	0.128
375.15	0.128
375.36	0.128
375.56	0.128
375.77	0.127
375.98	0.127
376.19	0.127
376.39	0.127
376.60	0.127
376.81	0.127
377.02	0.127
377.22	0.127
377.43	0.127
377.64	0.127
377.84	0.127
378.05	0.127
378.26	0.127
378.47	0.127
378.67	0.127
378.88	0.127
379.09	0.126
379.30	0.126
379.50	0.126
379.71	0.125
379.92	0.125
380.12	0.125
380.33	0.125
380.54	0.125
380.75	0.124
380.95	0.124
381.16	0.124
381.37	0.124
381.57	0.124
381.78	0.124
381.99	0.124
382.20	0.124
382.40	0.124
382.61	0.124
382.82	0.124
383.02	0.124
383.23	0.123
383.44	0.124
383.64	0.123
383.85	0.123
384.06	0.124
384.27	0.123
384.47	0.124
384.68	0.124
384.89	0.123
385.09	0.123
385.30	0.124
385.51	0.124
385.71	0.123
385.92	0.123
386.13	0.123
386.33	0.122
386.54	0.122
386.75	0.122
386.95	0.121
387.16	0.121
387.37	0.121
387.58	0.121
387.78	0.121
387.99	0.121
388.20	0.120
388.40	0.121
388.61	0.121
388.82	0.121
389.02	0.120
389.23	0.120
389.44	0.120
389.64	0.120
389.85	0.120
390.06	0.120
390.26	0.119
390.47	0.119
390.68	0.119
390.88	0.119
391.09	0.118
391.30	0.118
391.50	0.118
391.71	0.117
391.92	0.117
392.12	0.117
392.33	0.117
392.53	0.117
392.74	0.117
392.95	0.116
393.15	0.116
393.36	0.116
393.57	0.116
393.77	0.116
393.98	0.116
394.19	0.116
394.39	0.116
394.60	0.116
394.81	0.116
395.01	0.116
395.22	0.116
395.43	0.116
395.63	0.115
395.84	0.115
396.04	0.115
396.25	0.114
396.46	0.114
396.66	0.114
396.87	0.114
397.08	0.114
397.28	0.114
397.49	0.114
397.69	0.113
397.90	0.113
398.11	0.114
398.31	0.114
398.52	0.114
398.73	0.114
398.93	0.114
399.14	0.113
399.34	0.113
399.55	0.113
399.76	0.113
399.96	0.113
400.17	0.113
400.37	0.113
400.58	0.113
400.79	0.112
400.99	0.112
401.20	0.112
401.41	0.112
401.61	0.112
401.82	0.112
402.02	0.111
402.23	0.111
402.44	0.111
402.64	0.110
402.85	0.111
403.05	0.111
403.26	0.111
403.47	0.111
403.67	0.110
403.88	0.111
404.08	0.110
404.29	0.110
404.50	0.111
404.70	0.111
404.91	0.110
405.11	0.110
405.32	0.110
405.52	0.110
405.73	0.110
405.94	0.110
406.14	0.109
406.35	0.109
406.55	0.109
406.76	0.108
406.97	0.108
407.17	0.108
407.38	0.108
407.58	0.107
407.79	0.107
407.99	0.107
408.20	0.107
408.41	0.107
408.61	0.107
408.82	0.107
409.02	0.107
409.23	0.107
409.43	0.106
409.64	0.106
409.84	0.107
410.05	0.107
410.26	0.107
410.46	0.106
410.67	0.107
410.87	0.107
411.08	0.106
411.28	0.106
411.49	0.105
411.69	0.106
411.90	0.106
412.11	0.106
412.31	0.106
412.52	0.106
412.72	0.106
412.93	0.105
413.13	0.105
413.34	0.106
413.54	0.106
413.75	0.106
413.95	0.106
414.16	0.106
414.37	0.105
414.57	0.105
414.78	0.105
414.98	0.105
415.19	0.105
415.39	0.105
415.60	0.105
415.80	0.105
416.01	0.104
416.21	0.104
416.42	0.104
416.62	0.104
416.83	0.104
417.03	0.104
417.24	0.104
417.44	0.104
417.65	0.104
417.86	0.105
418.06	0.105
418.27	0.105
418.47	0.105
418.68	0.105
418.88	0.105
419.09	0.105
419.29	0.105
419.50	0.104
419.70	0.104
419.91	0.104
420.11	0.104
420.32	0.104
420.52	0.104
420.73	0.104
420.93	0.103
421.14	0.103
421.34	0.103
421.55	0.103
421.75	0.103
421.96	0.103
422.16	0.103
422.37	0.102
422.57	0.102
422.78	0.102
422.98	0.102
423.19	0.102
423.39	0.102
423.60	0.102
423.80	0.102
424.01	0.102
424.21	0.102
424.42	0.102
424.62	0.102
424.83	0.102
425.03	0.103
425.23	0.103
425.44	0.103
425.64	0.103
425.85	0.102
426.05	0.102
426.26	0.102
426.46	0.102
426.67	0.102
426.87	0.102
427.08	0.102
427.28	0.101
427.49	0.101
427.69	0.101
427.90	0.101
428.10	0.102
428.31	0.101
428.51	0.102
428.71	0.102
428.92	0.102
429.12	0.102
429.33	0.102
429.53	0.102
429.74	0.101
429.94	0.101
430.15	0.102
430.35	0.101
430.56	0.101
430.76	0.101
430.96	0.101
431.17	0.101
431.37	0.101
431.58	0.101
431.78	0.101
431.99	0.101
432.19	0.101
432.40	0.101
432.60	0.101
432.80	0.102
433.01	0.102
433.21	0.102
433.42	0.102
433.62	0.102
433.83	0.102
434.03	0.102
434.23	0.102
434.44	0.103
434.64	0.103
434.85	0.102
435.05	0.103
435.26	0.103
435.46	0.103
435.66	0.102
435.87	0.102
436.07	0.102
436.28	0.102
436.48	0.102
436.69	0.102
436.89	0.102
437.09	0.102
437.30	0.102
437.50	0.102
437.71	0.102
437.91	0.102
438.11	0.102
438.32	0.102
438.52	0.102
438.73	0.101
438.93	0.101
439.13	0.101
439.34	0.102
439.54	0.102
439.75	0.102
439.95	0.102
440.15	0.102
440.36	0.102
440.56	0.102
440.77	0.102
440.97	0.102
441.17	0.102
441.38	0.102
441.58	0.102
441.79	0.101
441.99	0.101
442.19	0.102
442.40	0.102
442.60	0.102
442.81	0.101
443.01	0.102
443.21	0.102
443.42	0.102
443.62	0.102
443.82	0.102
444.03	0.102
444.23	0.102
444.44	0.102
444.64	0.102
444.84	0.102
445.05	0.102
445.25	0.102
445.45	0.102
445.66	0.102
445.86	0.102
446.06	0.102
446.27	0.102
446.47	0.102
446.68	0.102
446.88	0.102
447.08	0.102
447.29	0.102
447.49	0.102
447.69	0.102
447.90	0.102
448.10	0.102
448.30	0.102
448.51	0.102
448.71	0.102
448.91	0.102
449.12	0.102
449.32	0.101
449.52	0.100
449.73	0.100
449.93	0.101
450.14	0.101
450.34	0.101
450.54	0.100
450.75	0.101
450.95	0.101
451.15	0.100
451.36	0.100
451.56	0.101
451.76	0.101
451.97	0.101
452.17	0.102
452.37	0.102
452.58	0.102
452.78	0.103
452.98	0.103
453.19	0.103
453.39	0.103
453.59	0.103
453.79	0.103
454.00	0.103
454.20	0.103
454.40	0.103
454.61	0.103
454.81	0.103
455.01	0.102
455.22	0.102
455.42	0.102
455.62	0.102
455.83	0.103
456.03	0.102
456.23	0.102
456.44	0.102
456.64	0.103
456.84	0.102
457.04	0.103
457.25	0.103
457.45	0.103
457.65	0.103
457.86	0.103
458.06	0.103
458.26	0.104
458.47	0.104
458.67	0.104
458.87	0.104
459.07	0.104
459.28	0.103
459.48	0.103
459.68	0.103
459.89	0.103
460.09	0.102
460.29	0.102
460.49	0.102
460.70	0.102
460.90	0.102
461.10	0.102
461.31	0.102
461.51	0.102
461.71	0.102
461.91	0.102
462.12	0.102
462.32	0.102
462.52	0.102
462.72	0.103
462.93	0.102
463.13	0.102
463.33	0.102
463.53	0.102
463.74	0.103
463.94	0.102
464.14	0.102
464.35	0.102
464.55	0.103
464.75	0.103
464.95	0.103
465.16	0.103
465.36	0.103
465.56	0.103
465.76	0.103
465.97	0.102
466.17	0.102
466.37	0.102
466.57	0.102
466.78	0.102
466.98	0.101
467.18	0.101
467.38	0.101
467.59	0.101
467.79	0.101
467.99	0.101
468.19	0.101
468.39	0.101
468.60	0.101
468.80	0.102
469.00	0.102
469.20	0.102
469.41	0.102
469.61	0.103
469.81	0.103
470.01	0.103
470.22	0.103
470.42	0.103
470.62	0.103
470.82	0.103
471.02	0.103
471.23	0.103
471.43	0.103
471.63	0.103
471.83	0.102
472.04	0.102
472.24	0.102
472.44	0.102
472.64	0.102
472.84	0.102
473.05	0.102
473.25	0.101
473.45	0.101
473.65	0.101
473.85	0.101
474.06	0.101
474.26	0.101
474.46	0.101
474.66	0.100
474.86	0.100
475.07	0.100
475.27	0.100
475.47	0.100
475.67	0.100
475.87	0.100
476.08	0.100
476.28	0.100
476.48	0.100
476.68	0.100
476.88	0.100
477.09	0.099
477.29	0.100
477.49	0.100
477.69	0.100
477.89	0.100
478.09	0.100
478.30	0.100
478.50	0.100
478.70	0.099
478.90	0.099
479.10	0.100
479.31	0.100
479.51	0.100
479.71	0.100
479.91	0.099
480.11	0.099
480.31	0.099
480.52	0.099
480.72	0.099
480.92	0.099
481.12	0.099
481.32	0.099
481.52	0.098
481.72	0.098
481.93	0.098
482.13	0.098
482.33	0.099
482.53	0.099
482.73	0.099
482.93	0.098
483.14	0.098
483.34	0.098
483.54	0.098
483.74	0.098
483.94	0.097
484.14	0.097
484.34	0.097
484.55	0.097
484.75	0.097
484.95	0.096
485.15	0.096
485.35	0.096
485.55	0.096
485.75	0.096
485.96	0.096
486.16	0.096
486.36	0.096
486.56	0.096
486.76	0.096
486.96	0.097
487.16	0.097
487.36	0.097
487.57	0.097
487.77	0.097
487.97	0.097
488.17	0.097
488.37	0.097
488.57	0.097
488.77	0.097
488.97	0.097
489.18	0.097
489.38	0.097
489.58	0.097
489.78	0.097
489.98	0.097
490.18	0.097
490.38	0.097
490.58	0.097
490.78	0.097
490.98	0.097
491.19	0.098
491.39	0.098
491.59	0.098
491.79	0.098
491.99	0.097
492.19	0.098
492.39	0.098
492.59	0.098
492.79	0.097
492.99	0.097
493.20	0.097
493.40	0.097
493.60	0.096
493.80	0.096
494.00	0.096
494.20	0.096
494.40	0.096
494.60	0.096
494.80	0.096
495.00	0.096
495.20	0.096
495.40	0.096
495.61	0.096
495.81	0.096
496.01	0.096
496.21	0.096
496.41	0.097
496.61	0.097
496.81	0.097
497.01	0.097
497.21	0.097
497.41	0.097
497.61	0.097
497.81	0.097
498.01	0.097
498.21	0.097
498.41	0.097
498.61	0.097
498.82	0.097
499.02	0.097
499.22	0.097
499.42	0.098
499.62	0.098
499.82	0.098
500.02	0.098
500.22	0.098
500.42	0.098
500.62	0.098
500.82	0.098
501.02	0.098
501.22	0.098
501.42	0.098
501.62	0.098
501.82	0.098
502.02	0.098
502.22	0.098
502.42	0.098
502.62	0.098
502.82	0.098
503.02	0.098
503.22	0.098
503.42	0.098
503.63	0.098
503.83	0.098
504.03	0.098
504.23	0.098
504.43	0.098
504.63	0.098
504.83	0.098
505.03	0.098
505.23	0.098
505.43	0.098
505.63	0.098
505.83	0.098
506.03	0.098
506.23	0.098
506.43	0.098
506.63	0.098
506.83	0.098
507.03	0.098
507.23	0.098
507.43	0.098
507.63	0.098
507.83	0.099
508.03	0.099
508.23	0.099
508.43	0.099
508.63	0.099
508.83	0.099
509.03	0.100
509.23	0.100
509.43	0.100
509.63	0.100
509.83	0.100
510.03	0.100
510.23	0.100
510.43	0.100
510.63	0.100
510.83	0.100
511.03	0.100
511.23	0.100
511.43	0.100
511.63	0.100
511.83	0.100
512.03	0.100
512.22	0.101
512.42	0.101
512.62	0.101
512.82	0.101
513.02	0.101
513.22	0.101
513.42	0.101
513.62	0.102
513.82	0.102
514.02	0.102
514.22	0.102
514.42	0.102
514.62	0.102
514.82	0.101
515.02	0.101
515.22	0.101
515.42	0.101
515.62	0.101
515.82	0.102
516.02	0.102
516.22	0.102
516.42	0.102
516.62	0.102
516.82	0.102
517.01	0.102
517.21	0.102
517.41	0.102
517.61	0.102
517.81	0.102
518.01	0.101
518.21	0.101
518.41	0.102
518.61	0.102
518.81	0.102
519.01	0.102
519.21	0.102
519.41	0.103
519.61	0.102
519.81	0.103
520.00	0.103
520.20	0.104
520.40	0.103
520.60	0.103
520.80	0.103
521.00	0.103
521.20	0.103
521.40	0.103
521.60	0.103
521.80	0.103
522.00	0.103
522.20	0.102
522.39	0.102
522.59	0.102
522.79	0.103
522.99	0.103
523.19	0.103
523.39	0.104
523.59	0.104
523.79	0.104
523.99	0.104
524.19	0.104
524.38	0.104
524.58	0.104
524.78	0.104
524.98	0.104
525.18	0.104
525.38	0.104
525.58	0.104
525.78	0.104
525.98	0.104
526.18	0.104
526.37	0.104
526.57	0.104
526.77	0.104
526.97	0.104
527.17	0.104
527.37	0.104
527.57	0.104
527.77	0.104
527.96	0.104
528.16	0.104
528.36	0.104
528.56	0.104
528.76	0.104
528.96	0.104
529.16	0.105
529.36	0.105
529.55	0.105
529.75	0.106
529.95	0.106
530.15	0.106
530.35	0.106
530.55	0.106
530.75	0.106
530.94	0.106
531.14	0.106
531.34	0.106
531.54	0.106
531.74	0.106
531.94	0.105
532.13	0.105
532.33	0.105
532.53	0.105
532.73	0.105
532.93	0.105
533.13	0.105
533.33	0.105
533.52	0.105
533.72	0.105
533.92	0.105
534.12	0.105
534.32	0.105
534.52	0.105
534.71	0.105
534.91	0.105
535.11	0.105
535.31	0.105
535.51	0.105
535.71	0.105
535.90	0.105
536.10	0.105
536.30	0.104
536.50	0.104
536.70	0.104
536.89	0.104
537.09	0.105
537.29	0.105
537.49	0.105
537.69	0.105
537.89	0.105
538.08	0.105
538.28	0.105
538.48	0.105
538.68	0.105
538.88	0.105
539.07	0.105
539.27	0.105
539.47	0.105
539.67	0.106
539.87	0.106
540.06	0.106
540.26	0.106
540.46	0.106
540.66	0.106
540.86	0.106
541.05	0.107
541.25	0.107
541.45	0.107
541.65	0.107
541.84	0.107
542.04	0.107
542.24	0.107
542.44	0.107
542.64	0.108
542.83	0.107
543.03	0.107
543.23	0.108
543.43	0.108
543.62	0.108
543.82	0.108
544.02	0.108
544.22	0.108
544.42	0.108
544.61	0.108
544.81	0.108
545.01	0.108
545.21	0.108
545.40	0.107
545.60	0.107
545.80	0.107
546.00	0.106
546.19	0.106
546.39	0.106
546.59	0.106
546.79	0.106
546.98	0.106
547.18	0.106
547.38	0.106
547.58	0.106
547.77	0.107
547.97	0.107
548.17	0.107
548.37	0.107
548.56	0.108
548.76	0.108
548.96	0.108
549.16	0.108
549.35	0.109
549.55	0.109
549.75	0.109
549.95	0.109
550.14	0.109
550.34	0.109
550.54	0.109
550.73	0.109
550.93	0.109
551.13	0.109
551.33	0.109
551.52	0.109
551.72	0.110
551.92	0.110
552.12	0.110
552.31	0.109
552.51	0.109
552.71	0.109
552.90	0.109
553.10	0.109
553.30	0.108
553.50	0.108
553.69	0.109
553.89	0.108
554.09	0.108
554.28	0.108
554.48	0.108
554.68	0.108
554.87	0.108
555.07	0.108
555.27	0.109
555.47	0.109
555.66	0.109
555.86	0.109
556.06	0.108
556.25	0.109
556.45	0.109
556.65	0.110
556.84	0.110
557.04	0.111
557.24	0.111
557.43	0.111
557.63	0.111
557.83	0.112
558.02	0.112
558.22	0.112
558.42	0.112
558.61	0.112
558.81	0.112
559.01	0.113
559.21	0.112
559.40	0.112
559.60	0.112
559.80	0.112
559.99	0.112
560.19	0.112
560.39	0.112
560.58	0.111
560.78	0.111
560.97	0.111
561.17	0.110
561.37	0.110
561.56	0.110
561.76	0.110
561.96	0.110
562.15	0.110
562.35	0.110
562.55	0.110
562.74	0.110
562.94	0.109
563.14	0.109
563.33	0.109
563.53	0.109
563.73	0.110
563.92	0.110
564.12	0.110
564.31	0.109
564.51	0.110
564.71	0.110
564.90	0.110
565.10	0.110
565.30	0.111
565.49	0.111
565.69	0.110
565.89	0.111
566.08	0.111
566.28	0.111
566.47	0.111
566.67	0.111
566.87	0.112
567.06	0.111
567.26	0.111
567.46	0.111
567.65	0.111
567.85	0.111
568.04	0.110
568.24	0.110
568.44	0.109
568.63	0.109
568.83	0.109
569.02	0.108
569.22	0.108
569.42	0.108
569.61	0.108
569.81	0.108
570.00	0.107
570.20	0.106
570.40	0.106
570.59	0.106
570.79	0.106
570.98	0.105
571.18	0.105
571.38	0.105
571.57	0.105
571.77	0.105
571.96	0.104
572.16	0.104
572.35	0.104
572.55	0.104
572.75	0.104
572.94	0.104
573.14	0.104
573.33	0.104
573.53	0.103
573.73	0.103
573.92	0.103
574.12	0.103
574.31	0.103
574.51	0.103
574.70	0.103
574.90	0.103
575.09	0.103
575.29	0.103
575.49	0.103
575.68	0.103
575.88	0.103
576.07	0.102
576.27	0.102
576.46	0.102
576.66	0.102
576.86	0.102
577.05	0.102
577.25	0.102
577.44	0.102
577.64	0.102
577.83	0.102
578.03	0.102
578.22	0.102
578.42	0.102
578.61	0.101
578.81	0.101
579.00	0.100
579.20	0.100
579.40	0.100
579.59	0.100
579.79	0.100
579.98	0.100
580.18	0.100
580.37	0.100
580.57	0.099
580.76	0.099
580.96	0.100
581.15	0.100
581.35	0.100
581.54	0.100
581.74	0.099
581.93	0.099
582.13	0.099
582.32	0.100
582.52	0.100
582.71	0.100
582.91	0.100
583.10	0.100
583.30	0.100
583.49	0.100
583.69	0.101
583.88	0.101
584.08	0.101
584.27	0.101
584.47	0.102
584.66	0.102
584.86	0.102
585.05	0.102
585.25	0.102
585.44	0.102
585.64	0.102
585.83	0.102
586.03	0.102
586.22	0.102
586.42	0.102
586.61	0.102
586.81	0.102
587.00	0.102
587.20	0.102
587.39	0.102
587.59	0.102
587.78	0.103
587.98	0.103
588.17	0.103
588.37	0.103
588.56	0.103
588.76	0.104
588.95	0.104
589.15	0.104
589.34	0.104
589.54	0.104
589.73	0.105
589.92	0.105
590.12	0.105
590.31	0.105
590.51	0.105
590.70	0.105
590.90	0.105
591.09	0.105
591.29	0.104
591.48	0.105
591.68	0.105
591.87	0.104
592.06	0.104
592.26	0.104
592.45	0.104
592.65	0.104
592.84	0.104
593.04	0.104
593.23	0.105
593.43	0.105
593.62	0.105
593.81	0.105
594.01	0.105
594.20	0.105
594.40	0.105
594.59	0.106
594.79	0.106
594.98	0.106
595.17	0.106
595.37	0.107
595.56	0.107
595.76	0.107
595.95	0.107
596.14	0.107
596.34	0.107
596.53	0.107
596.73	0.106
596.92	0.106
597.12	0.106
597.31	0.105
597.50	0.105
597.70	0.105
597.89	0.104
598.09	0.104
598.28	0.103
598.47	0.103
598.67	0.103
598.86	0.103
599.06	0.103
599.25	0.103
599.44	0.102
599.64	0.102
599.83	0.102
600.03	0.102
600.22	0.103
600.41	0.103
600.61	0.103
600.80	0.103
601.00	0.103
601.19	0.104
601.38	0.104
601.58	0.104
601.77	0.105
601.96	0.105
602.16	0.105
602.35	0.105
602.55	0.105
602.74	0.106
602.93	0.106
603.13	0.106
603.32	0.107
603.51	0.107
603.71	0.107
603.90	0.107
604.09	0.107
604.29	0.107
604.48	0.107
604.68	0.106
604.87	0.106
605.06	0.106
605.26	0.106
605.45	0.105
605.64	0.105
605.84	0.105
606.03	0.105
606.22	0.105
606.42	0.105
606.61	0.105
606.80	0.105
607.00	0.105
607.19	0.105
607.38	0.106
607.58	0.106
607.77	0.106
607.96	0.106
608.16	0.106
608.35	0.107
608.54	0.107
608.74	0.107
608.93	0.107
609.12	0.107
609.32	0.108
609.51	0.108
609.70	0.109
609.90	0.109
610.09	0.109
610.28	0.110
610.48	0.111
610.67	0.111
610.86	0.111
611.06	0.111
611.25	0.112
611.44	0.112
611.64	0.111
611.83	0.111
612.02	0.111
612.21	0.111
612.41	0.111
612.60	0.110
612.79	0.111
612.99	0.110
613.18	0.110
613.37	0.110
613.57	0.110
613.76	0.110
613.95	0.110
614.14	0.110
614.34	0.110
614.53	0.110
614.72	0.110
614.92	0.110
615.11	0.110
615.30	0.110
615.49	0.110
615.69	0.111
615.88	0.111
616.07	0.111
616.26	0.112
616.46	0.112
616.65	0.112
616.84	0.113
617.04	0.113
617.23	0.113
617.42	0.114
617.61	0.114
617.81	0.114
618.00	0.115
618.19	0.115
618.38	0.115
618.58	0.115
618.77	0.115
618.96	0.116
619.15	0.116
619.35	0.117
619.54	0.117
619.73	0.117
619.92	0.117
620.12	0.117
620.31	0.117
620.50	0.118
620.69	0.118
620.89	0.118
621.08	0.118
621.27	0.117
621.46	0.118
621.66	0.117
621.85	0.117
622.04	0.118
622.23	0.118
622.43	0.118
622.62	0.118
622.81	0.117
623.00	0.117
623.19	0.117
623.39	0.117
623.58	0.116
623.77	0.117
623.96	0.117
624.16	0.117
624.35	0.117
624.54	0.117
624.73	0.116
624.92	0.116
625.12	0.116
625.31	0.116
625.50	0.116
625.69	0.116
625.88	0.116
626.08	0.117
626.27	0.117
626.46	0.117
626.65	0.117
626.84	0.117
627.04	0.118
627.23	0.119
627.42	0.119
627.61	0.119
627.80	0.119
628.00	0.119
628.19	0.119
628.38	0.119
628.57	0.119
628.76	0.120
628.96	0.120
629.15	0.120
629.34	0.120
629.53	0.120
629.72	0.120
629.91	0.120
630.11	0.121
630.30	0.121
630.49	0.121
630.68	0.121
630.87	0.122
631.06	0.122
631.26	0.123
631.45	0.123
631.64	0.123
631.83	0.124
632.02	0.124
632.21	0.125
632.41	0.125
632.60	0.126
632.79	0.126
632.98	0.126
633.17	0.126
633.36	0.126
633.55	0.127
633.75	0.127
633.94	0.127
634.13	0.127
634.32	0.127
634.51	0.127
634.70	0.127
634.89	0.127
635.09	0.128
635.28	0.127
635.47	0.127
635.66	0.126
635.85	0.127
636.04	0.127
636.23	0.127
636.43	0.126
636.62	0.126
636.81	0.126
637.00	0.126
637.19	0.125
637.38	0.126
637.57	0.126
637.76	0.127
637.95	0.127
638.15	0.126
638.34	0.126
638.53	0.126
638.72	0.126
638.91	0.127
639.10	0.127
639.29	0.127
639.48	0.127
639.67	0.126
639.87	0.126
640.06	0.126
640.25	0.126
640.44	0.126
640.63	0.126
640.82	0.126
641.01	0.126
641.20	0.127
641.39	0.127
641.58	0.127
641.78	0.128
641.97	0.128
642.16	0.127
642.35	0.128
642.54	0.128
642.73	0.128
642.92	0.128
643.11	0.128
643.30	0.128
643.49	0.127
643.68	0.127
643.87	0.127
644.06	0.126
644.25	0.128
644.45	0.128
644.64	0.129
644.83	0.129
645.02	0.129
645.21	0.129
645.40	0.129
645.59	0.129
645.78	0.129
645.97	0.129
646.16	0.129
646.35	0.128
646.54	0.127
646.73	0.126
646.92	0.126
647.11	0.125
647.30	0.125
647.49	0.124
647.68	0.124
647.88	0.123
648.07	0.122
648.26	0.122
648.45	0.122
648.64	0.123
648.83	0.122
649.02	0.121
649.21	0.121
649.40	0.120
649.59	0.120
649.78	0.121
649.97	0.121
650.16	0.120
650.35	0.120
650.54	0.120
650.73	0.119
650.92	0.119
651.11	0.120
651.30	0.121
651.49	0.121
651.68	0.120
651.87	0.120
652.06	0.120
652.25	0.121
652.44	0.121
652.63	0.121
652.82	0.120
653.01	0.118
653.20	0.116
653.39	0.115
653.58	0.113
653.77	0.112
653.96	0.110
654.15	0.109
654.34	0.107
654.53	0.106
654.72	0.104
654.91	0.104
655.10	0.103
655.29	0.103
655.48	0.102
655.67	0.102
655.86	0.102
656.05	0.102
656.24	0.101
656.43	0.101
656.62	0.100
656.81	0.100
657.00	0.100
657.19	0.100
657.38	0.100
657.57	0.101
657.76	0.101
657.95	0.102
658.14	0.103
658.33	0.104
658.51	0.106
658.70	0.108
658.89	0.110
659.08	0.112
659.27	0.113
659.46	0.115
659.65	0.116
659.84	0.117
660.03	0.118
660.22	0.119
660.41	0.119
660.60	0.119
660.79	0.120
660.98	0.120
661.17	0.120
661.36	0.120
661.55	0.120
661.74	0.120
661.92	0.119
662.11	0.120
662.30	0.120
662.49	0.120
662.68	0.120
662.87	0.119
663.06	0.119
663.25	0.119
663.44	0.119
663.63	0.118
663.82	0.118
664.01	0.118
664.20	0.118
664.38	0.118
664.57	0.118
664.76	0.117
664.95	0.118
665.14	0.118
665.33	0.118
665.52	0.118
665.71	0.118
665.90	0.118
666.09	0.118
666.28	0.117
666.46	0.117
666.65	0.117
666.84	0.117
667.03	0.118
667.22	0.118
667.41	0.117
667.60	0.117
667.79	0.117
667.98	0.117
668.16	0.116
668.35	0.116
668.54	0.116
668.73	0.115
668.92	0.115
669.11	0.115
669.30	0.115
669.49	0.115
669.67	0.114
669.86	0.114
670.05	0.113
670.24	0.112
670.43	0.112
670.62	0.112
670.81	0.112
671.00	0.111
671.18	0.110
671.37	0.110
671.56	0.110
671.75	0.109
671.94	0.109
672.13	0.109
672.32	0.110
672.50	0.110
672.69	0.109
672.88	0.110
673.07	0.110
673.26	0.109
673.45	0.109
673.63	0.110
673.82	0.110
674.01	0.109
674.20	0.109
674.39	0.109
674.58	0.109
674.76	0.109
674.95	0.109
675.14	0.109
675.33	0.109
675.52	0.109
675.71	0.109
675.89	0.109
676.08	0.109
676.27	0.109
676.46	0.109
676.65	0.109
676.84	0.108
677.02	0.108
677.21	0.107
677.40	0.107
677.59	0.107
677.78	0.107
677.96	0.106
678.15	0.106
678.34	0.105
678.53	0.105
678.72	0.104
678.90	0.105
679.09	0.105
679.28	0.104
679.47	0.104
679.66	0.103
679.84	0.104
680.03	0.104
680.22	0.104
680.41	0.104
680.60	0.105
680.78	0.105
680.97	0.105
681.16	0.105
681.35	0.105
681.53	0.105
681.72	0.105
681.91	0.105
682.10	0.105
682.29	0.104
682.47	0.103
682.66	0.103
682.85	0.103
683.04	0.102
683.22	0.101
683.41	0.101
683.60	0.101
683.79	0.100
683.97	0.100
684.16	0.099
684.35	0.099
684.54	0.099
684.72	0.098
684.91	0.098
685.10	0.098
685.29	0.098
685.47	0.099
685.66	0.099
685.85	0.099
686.04	0.099
686.22	0.099
686.41	0.099
686.60	0.099
686.79	0.099
686.97	0.099
687.16	0.099
687.35	0.099
687.54	0.099
687.72	0.099
687.91	0.099
688.10	0.099
688.29	0.098
688.47	0.099
688.66	0.099
688.85	0.099
689.03	0.099
689.22	0.099
689.41	0.099
689.60	0.099
689.78	0.099
689.97	0.099
690.16	0.099
690.34	0.099
690.53	0.099
690.72	0.099
690.91	0.098
691.09	0.098
691.28	0.098
691.47	0.099
691.65	0.099
691.84	0.098
692.03	0.098
692.21	0.098
692.40	0.098
692.59	0.098
692.77	0.098
692.96	0.098
693.15	0.098
693.34	0.098
693.52	0.098
693.71	0.097
693.90	0.097
694.08	0.097
694.27	0.096
694.46	0.096
694.64	0.096
694.83	0.096
695.02	0.096
695.20	0.096
695.39	0.096
695.58	0.095
695.76	0.095
695.95	0.095
696.14	0.096
696.32	0.095
696.51	0.095
696.70	0.095
696.88	0.095
697.07	0.095
697.26	0.094
697.44	0.094
697.63	0.095
697.81	0.095
698.00	0.094
698.19	0.094
698.37	0.095
698.56	0.095
698.75	0.095
698.93	0.096
699.12	0.096
699.31	0.096
699.49	0.096
699.68	0.096
699.87	0.096
700.05	0.096
700.24	0.096
700.42	0.096
700.61	0.097
700.80	0.097
700.98	0.097
701.17	0.097
701.36	0.097
701.54	0.097
701.73	0.097
701.91	0.097
702.10	0.096
702.29	0.097
702.47	0.097
702.66	0.097
702.84	0.097
703.03	0.097
703.22	0.097
703.40	0.097
703.59	0.097
703.77	0.097
703.96	0.097
704.15	0.098
704.33	0.097
704.52	0.097
704.70	0.097
704.89	0.097
705.08	0.096
705.26	0.096
705.45	0.096
705.63	0.095
705.82	0.095
706.00	0.095
706.19	0.095
706.38	0.095
706.56	0.095
706.75	0.095
706.93	0.095
707.12	0.095
707.30	0.095
707.49	0.095
707.68	0.095
707.86	0.094
708.05	0.094
708.23	0.094
708.42	0.094
708.60	0.094
708.79	0.094
708.98	0.094
709.16	0.094
709.35	0.094
709.53	0.094
709.72	0.094
709.90	0.094
710.09	0.095
710.27	0.095
710.46	0.095
710.64	0.095
710.83	0.096
711.02	0.096
711.20	0.097
711.39	0.096
711.57	0.096
711.76	0.096
711.94	0.096
712.13	0.096
712.31	0.096
712.50	0.096
712.68	0.096
712.87	0.096
713.05	0.096
713.24	0.095
713.42	0.096
713.61	0.096
713.79	0.096
713.98	0.097
714.16	0.097
714.35	0.097
714.54	0.098
714.72	0.098
714.91	0.098
715.09	0.098
715.28	0.098
715.46	0.099
715.65	0.099
715.83	0.100
716.02	0.100
716.20	0.100
716.39	0.101
716.57	0.101
716.76	0.101
716.94	0.101
717.12	0.102
717.31	0.102
717.49	0.103
717.68	0.103
717.86	0.103
718.05	0.103
718.23	0.103
718.42	0.102
718.60	0.102
718.79	0.103
718.97	0.103
719.16	0.103
719.34	0.103
719.53	0.103
719.71	0.104
719.90	0.104
720.08	0.104
720.27	0.105
720.45	0.105
720.63	0.106
720.82	0.106
721.00	0.106
721.19	0.106
721.37	0.106
721.56	0.106
721.74	0.106
721.93	0.107
722.11	0.107
722.30	0.108
722.48	0.108
722.66	0.109
722.85	0.109
723.03	0.110
723.22	0.111
723.40	0.111
723.59	0.112
723.77	0.112
723.95	0.112
724.14	0.113
724.32	0.113
724.51	0.113
724.69	0.114
724.88	0.115
725.06	0.115
725.24	0.116
725.43	0.117
725.61	0.117
725.80	0.118
725.98	0.118
726.16	0.119
726.35	0.120
726.53	0.121
726.72	0.121
726.90	0.121
727.09	0.121
727.27	0.121
727.45	0.121
727.64	0.121
727.82	0.122
728.01	0.122
728.19	0.123
728.37	0.123
728.56	0.123
728.74	0.123
728.92	0.125
729.11	0.126
729.29	0.127
729.48	0.127
729.66	0.129
729.84	0.130
730.03	0.131
730.21	0.131
730.40	0.132
730.58	0.134
730.76	0.135
730.95	0.136
731.13	0.136
731.31	0.136
731.50	0.137
731.68	0.138
731.86	0.139
732.05	0.139
732.23	0.140
732.42	0.142
732.60	0.142
732.78	0.142
732.97	0.142
733.15	0.142
733.33	0.144
733.52	0.144
733.70	0.146
733.88	0.145
734.07	0.146
734.25	0.147
734.43	0.148
734.62	0.150
734.80	0.152
734.98	0.155
735.17	0.156
735.35	0.158
735.53	0.160
735.72	0.160
735.90	0.162
736.08	0.164
736.27	0.166
736.45	0.167
736.63	0.170
736.82	0.170
737.00	0.171
737.18	0.173
737.37	0.174
737.55	0.175
737.73	0.176
737.92	0.179
738.10	0.182
738.28	0.183
738.46	0.184
738.65	0.183
738.83	0.187
739.01	0.188
739.20	0.189
739.38	0.190
739.56	0.195
739.75	0.197
739.93	0.200
740.11	0.199
740.29	0.199
740.48	0.201
740.66	0.205
740.84	0.205
741.03	0.207
741.21	0.209
741.39	0.214
741.57	0.214
741.76	0.215
741.94	0.216
742.12	0.220
742.31	0.222
742.49	0.226
742.67	0.227
742.85	0.227
743.04	0.232
743.22	0.234
743.40	0.230
743.58	0.233
743.77	0.235
743.95	0.238
744.13	0.236
744.31	0.238
744.50	0.235
744.68	0.235
744.86	0.236
745.04	0.232
745.23	0.233
745.41	0.235
745.59	0.234
745.77	0.237
745.96	0.239
746.14	0.241
746.32	0.246
746.50	0.247
746.69	0.251
746.87	0.254
747.05	0.255
747.23	0.261
747.42	0.263
747.60	0.263
747.78	0.261
747.96	0.255
748.14	0.255
748.33	0.251
748.51	0.251
748.69	0.254
748.87	0.252
749.06	0.254
749.24	0.247
749.42	0.245
749.60	0.244
749.78	0.244
749.97	0.247
750.15	0.251
750.33	0.249
750.51	0.250
750.69	0.244
750.88	0.242
751.06	0.241
751.24	0.242
751.42	0.244
751.60	0.243
751.79	0.240
751.97	0.241
752.15	0.239
752.33	0.240
752.51	0.237
752.69	0.241
752.88	0.240
753.06	0.239
753.24	0.240
753.42	0.237
753.60	0.235
753.78	0.237
753.97	0.231
754.15	0.232
754.33	0.229
754.51	0.229
754.69	0.226
754.87	0.223
755.06	0.223
755.24	0.219
755.42	0.220
755.60	0.221
755.78	0.216
755.96	0.215
756.15	0.212
756.33	0.210
756.51	0.207
756.69	0.208
756.87	0.209
757.05	0.206
757.23	0.205
757.42	0.204
757.60	0.204
757.78	0.206
757.96	0.206
758.14	0.204
758.32	0.204
758.50	0.203
758.69	0.201
758.87	0.202
759.05	0.202
759.23	0.203
759.41	0.203
759.59	0.203
759.77	0.201
759.95	0.202
760.13	0.202
760.32	0.203
760.50	0.203
760.68	0.203
760.86	0.202
761.04	0.202
761.22	0.204
761.40	0.202
761.58	0.199
761.76	0.198
761.95	0.195
762.13	0.197
762.31	0.197
762.49	0.199
762.67	0.196
762.85	0.196
763.03	0.197
763.21	0.197
763.39	0.196
763.57	0.197
763.75	0.197
763.94	0.199
764.12	0.195
764.30	0.194
764.48	0.191
764.66	0.193
764.84	0.192
765.02	0.189
765.20	0.188
765.38	0.189
765.56	0.189
765.74	0.188
765.92	0.188
766.10	0.190
766.28	0.190
766.46	0.190
766.65	0.189
766.83	0.190
767.01	0.191
767.19	0.191
767.37	0.191
767.55	0.192
767.73	0.193
767.91	0.194
768.09	0.194
768.27	0.194
768.45	0.195
768.63	0.194
768.81	0.194
768.99	0.195
769.17	0.195
769.35	0.193
769.53	0.192
769.71	0.192
769.89	0.192
770.07	0.194
770.25	0.196
770.43	0.199
770.61	0.200
770.79	0.200
770.97	0.200
771.15	0.199
771.33	0.202
771.51	0.204
771.69	0.204
771.87	0.205
772.05	0.205
772.24	0.204
772.42	0.201
772.60	0.202
772.78	0.204
772.96	0.203
773.14	0.207
773.32	0.208
773.49	0.207
773.67	0.207
773.85	0.207
774.03	0.207
774.21	0.207
774.39	0.209
774.57	0.208
774.75	0.208
774.93	0.207
775.11	0.204
775.29	0.202
775.47	0.200
775.65	0.201
775.83	0.202
776.01	0.201
776.19	0.203
776.37	0.202
776.55	0.205
776.73	0.204
776.91	0.204
777.09	0.207
777.27	0.209
777.45	0.213
777.63	0.215
777.81	0.213
777.99	0.212
778.17	0.211
778.35	0.211
778.53	0.212
778.71	0.212
778.89	0.211
779.07	0.209
779.24	0.207
779.42	0.203
779.60	0.200
779.78	0.198
779.96	0.196
780.14	0.196
780.32	0.193
780.50	0.190
780.68	0.188
780.86	0.188
781.04	0.187
781.22	0.185
781.40	0.184
781.58	0.184
781.75	0.185
781.93	0.187
782.11	0.185
782.29	0.185
782.47	0.186
782.65	0.189
782.83	0.188
783.01	0.189
783.19	0.189
783.37	0.190
783.55	0.189
783.72	0.190
783.90	0.188
784.08	0.188
784.26	0.189
784.44	0.187
784.62	0.187
784.80	0.187
784.98	0.184
785.16	0.186
785.33	0.185
785.51	0.187
785.69	0.186
785.87	0.188
786.05	0.187
786.23	0.185
786.41	0.186
786.59	0.186
786.77	0.185
786.94	0.184
787.12	0.182
787.30	0.181
787.48	0.178
787.66	0.179
787.84	0.177
788.02	0.178
788.19	0.178
788.37	0.177
788.55	0.175
788.73	0.175
788.91	0.176
789.09	0.176
789.27	0.177
789.44	0.179
789.62	0.177
789.80	0.176
789.98	0.174
790.16	0.175
790.34	0.174
790.51	0.175
790.69	0.175
790.87	0.175
791.05	0.176
791.23	0.175
791.41	0.173
791.58	0.172
791.76	0.174
791.94	0.174
792.12	0.172
792.30	0.171
792.48	0.170
792.65	0.169
792.83	0.167
793.01	0.165
793.19	0.166
793.37	0.165
793.54	0.166
793.72	0.164
793.90	0.164
794.08	0.164
794.26	0.165
794.43	0.166
794.61	0.167
794.79	0.168
794.97	0.167
795.15	0.166
795.32	0.166
795.50	0.167
795.68	0.168
795.86	0.169
796.04	0.169
796.21	0.168
796.39	0.168
796.57	0.168
796.75	0.168
796.92	0.168
797.10	0.170
797.28	0.172
797.46	0.172
797.64	0.172
797.81	0.172
797.99	0.173
798.17	0.173
798.35	0.173
798.52	0.172
798.70	0.173
798.88	0.173
799.06	0.172
799.23	0.169
799.41	0.168
799.59	0.169
799.77	0.169
799.94	0.168
800.12	0.168
800.30	0.168
800.48	0.168
800.65	0.169
800.83	0.170
801.01	0.171
801.19	0.172
801.36	0.172
801.54	0.172
801.72	0.171
801.90	0.173
802.07	0.172
802.25	0.173
802.43	0.175
802.60	0.174
802.78	0.173
802.96	0.175
803.14	0.176
803.31	0.176
803.49	0.176
803.67	0.177
803.84	0.175
804.02	0.176
804.20	0.176
804.38	0.175
804.55	0.175
804.73	0.176
804.91	0.174
805.08	0.172
805.26	0.172
805.44	0.171
805.61	0.171
805.79	0.172
805.97	0.171
806.15	0.171
806.32	0.171
806.50	0.170
806.68	0.170
806.85	0.169
807.03	0.170
807.21	0.168
807.38	0.169
807.56	0.169
807.74	0.168
807.91	0.169
808.09	0.170
808.27	0.171
808.44	0.170
808.62	0.171
808.80	0.174
808.97	0.174
809.15	0.176
809.33	0.175
809.50	0.176
809.68	0.179
809.86	0.178
810.03	0.176
810.21	0.177
810.39	0.178
810.56	0.178
810.74	0.176
810.91	0.176
811.09	0.177
811.27	0.177
811.44	0.178
811.62	0.178
811.80	0.179
811.97	0.181
812.15	0.183
812.33	0.183
812.50	0.185
812.68	0.184
812.85	0.185
813.03	0.185
813.21	0.186
813.38	0.186
813.56	0.185
813.74	0.183
813.91	0.183
814.09	0.182
814.26	0.183
814.44	0.181
814.62	0.183
814.79	0.183
814.97	0.185
815.14	0.185
815.32	0.182
815.50	0.183
815.67	0.185
815.85	0.186
816.02	0.187
816.20	0.188
816.38	0.190
816.55	0.190
816.73	0.190
816.90	0.189
817.08	0.190
817.26	0.192
817.43	0.196
817.61	0.195
817.78	0.195
817.96	0.197
818.13	0.198
818.31	0.198
818.49	0.199
818.66	0.201
818.84	0.203
819.01	0.205
819.19	0.207
819.36	0.209
819.54	0.211
819.71	0.213
819.89	0.213
820.07	0.214
820.24	0.214
820.42	0.217
820.59	0.218
820.77	0.219
820.94	0.220
821.12	0.220
821.29	0.219
821.47	0.221
821.64	0.223
821.82	0.224
822.00	0.226
822.17	0.230
822.35	0.230
822.52	0.232
822.70	0.236
822.87	0.236
823.05	0.240
823.22	0.242
823.40	0.245
823.57	0.246
823.75	0.253
823.92	0.256
824.10	0.256
824.27	0.257
824.45	0.262
824.62	0.262
824.80	0.266
824.97	0.271
825.15	0.272
825.32	0.274
825.50	0.278
825.67	0.277
825.85	0.281
826.02	0.286
826.20	0.291
826.37	0.288
826.55	0.300
826.72	0.305
826.90	0.307
827.07	0.311
827.25	0.316
827.42	0.322
827.60	0.328
827.77	0.334
827.95	0.345
828.12	0.358
828.30	0.373
828.47	0.373
828.65	0.385
828.82	0.406
829.00	0.425
829.17	0.442
829.34	0.460
829.52	0.480
829.69	0.502
829.87	0.523
830.04	0.538
830.22	0.551
830.39	0.576
830.57	0.607
830.74	0.616
830.92	0.628
831.09	0.632
831.26	0.664
831.44	0.685
831.61	0.718
831.79	0.707
831.96	0.731
832.14	0.823
832.31	0.857
832.49	0.871
832.66	0.932
832.83	1.117
833.01	1.335
833.18	1.817
833.36	2.000
833.53	2.153
833.70	-0.000
833.88	-0.000
834.05	3.385
834.23	-0.000
834.40	-0.000
834.58	-0.000
834.75	-0.000
834.92	2.114
835.10	1.634
835.27	-0.000
835.45	-0.000
835.62	-0.000
835.79	-0.000
835.97	-0.000
836.14	-0.000
836.32	-0.000
836.49	-0.000
836.66	-0.000
836.84	-0.000
837.01	-0.000
837.18	-0.000
837.36	-0.000
837.53	-0.000
837.71	-0.000
837.88	-0.000
838.05	-0.000
838.23	-0.000
838.40	-0.000
838.58	-0.000
838.75	-0.000
838.92	-0.000
839.10	-0.000
839.27	-0.000
839.44	-0.000
839.62	-0.000
839.79	-0.000
839.96	-0.000
840.14	-0.000
840.31	-0.000
840.48	-0.000
840.66	-0.000
840.83	-0.000
841.01	-0.000
841.18	-0.000
841.35	-0.000
841.53	-0.000
841.70	-0.000
841.87	-0.000
842.05	-0.000
842.22	-0.000
842.39	-0.000
842.57	-0.000
842.74	-0.000
842.91	-0.000
843.09	-0.000
843.26	-0.000
843.43	-0.000
843.60	-0.000
843.78	-0.000
843.95	-0.000
844.12	-0.000
844.30	-0.000
844.47	-0.000
844.64	-0.000
844.82	-0.000
844.99	-0.000
845.16	-0.000
845.34	-0.000
845.51	-0.000
845.68	-0.000
845.85	-0.000
846.03	-0.000
846.20	-0.000
846.37	-0.000
846.55	-0.000
846.72	-0.000
846.89	-0.000
847.06	-0.000
847.24	-0.000
847.41	-0.000
847.58	-0.000
847.76	-0.000
847.93	-0.000
848.10	-0.000
848.27	-0.000
848.45	-0.000
848.62	-0.000
848.79	-0.000
848.97	-0.000
849.14	-0.000
849.31	-0.000
849.48	-0.000
849.66	-0.000
849.83	-0.000
850.00	-0.000
850.17	-0.000
850.35	-0.000
850.52	-0.000
850.69	-0.000
850.86	-0.000
851.04	-0.000
851.21	-0.000
851.38	-0.000
851.55	-0.000
851.72	-0.000
851.90	-0.000
852.07	-0.000
852.24	-0.000
852.41	-0.000
852.59	-0.000
852.76	-0.000
852.93	-0.000
853.10	-0.000
853.28	-0.000
853.45	-0.000
853.62	-0.000
853.79	-0.000
853.96	-0.000
854.14	-0.000
854.31	-0.000
854.48	-0.000
854.65	-0.000
854.82	-0.000
855.00	-0.000
855.17	-0.000
855.34	-0.000
855.51	-0.000
855.68	-0.000
855.86	-0.000
856.03	-0.000
856.20	-0.000
856.37	-0.000
856.54	-0.000
856.72	-0.000
856.89	-0.000
857.06	-0.000
857.23	-0.000
857.40	-0.000
857.57	-0.000
857.75	-0.000
857.92	-0.000
858.09	-0.000
858.26	-0.000
858.43	-0.000
858.60	-0.000
858.78	-0.000
858.95	-0.000
859.12	-0.000
859.29	-0.000
859.46	-0.000
859.63	-0.000
859.81	-0.000
859.98	-0.000
860.15	-0.000
860.32	-0.000
860.49	-0.000
860.66	-0.000
860.83	-0.000
861.01	-0.000
861.18	-0.000
861.35	-0.000
861.52	-0.000
861.69	-0.000
861.86	-0.000
862.03	-0.000
862.21	-0.000
862.38	-0.000
862.55	-0.000
862.72	-0.000
862.89	-0.000
863.06	-0.000
863.23	-0.000
863.40	-0.000
863.58	-0.000
863.75	-0.000
863.92	-0.000
864.09	-0.000
864.26	-0.000
864.43	-0.000
864.60	-0.000
864.77	-0.000
864.94	-0.000
865.11	-0.000
865.29	-0.000
865.46	-0.000
865.63	-0.000
865.80	-0.000
865.97	-0.000
866.14	-0.000
866.31	-0.000
866.48	-0.000
866.65	-0.000
866.82	-0.000
866.99	-0.000
867.16	-0.000
867.34	-0.000
867.51	-0.000
867.68	-0.000
867.85	-0.000
868.02	-0.000
868.19	-0.000
868.36	-0.000
868.53	-0.000
868.70	-0.000
868.87	-0.000
869.04	-0.000
869.21	-0.000
869.38	-0.000
869.55	-0.000
869.72	-0.000
869.89	-0.000
870.06	-0.000
870.24	-0.000
870.41	-0.000
870.58	-0.000
870.75	-0.000
870.92	-0.000
871.09	-0.000
871.26	-0.000
871.43	-0.000
871.60	-0.000
871.77	-0.000
871.94	-0.000
872.11	-0.000
872.28	-0.000
872.45	-0.000
872.62	-0.000
872.79	-0.000
872.96	-0.000
873.13	-0.000
873.30	-0.000
873.47	-0.000
873.64	-0.000
873.81	-0.000
873.98	-0.000
874.15	-0.000
874.32	-0.000
874.49	-0.000
874.66	-0.000
874.83	-0.000
875.00	-0.000
875.17	-0.000
875.34	-0.000
875.51	-0.000
875.68	-0.000
875.85	-0.000
876.02	-0.000
876.19	-0.000
876.36	-0.000
876.53	-0.000
876.70	-0.000
876.87	-0.000
877.04	-0.000
877.21	-0.000
877.38	-0.000
877.55	-0.000
877.72	-0.000
877.89	-0.000
878.06	-0.000
878.23	-0.000
878.39	-0.000
878.56	-0.000
878.73	-0.000
878.90	-0.000
879.07	-0.000
879.24	-0.000
879.41	-0.000
879.58	-0.000
879.75	-0.000
879.92	-0.000
880.09	-0.000
880.26	-0.000
880.43	-0.000
880.60	-0.000
880.77	-0.000
880.94	-0.000
881.11	-0.000
881.27	-0.000
881.44	-0.000
881.61	-0.000
881.78	-0.000
881.95	-0.000
882.12	-0.000
882.29	-0.000
882.46	-0.000
882.63	-0.000
882.80	-0.000
882.97	-0.000
883.14	-0.000
883.30	-0.000
883.47	-0.000
883.64	-0.000
883.81	-0.000
883.98	-0.000
884.15	-0.000
884.32	-0.000
884.49	-0.000
884.66	-0.000
884.82	-0.000
884.99	-0.000
885.16	-0.000
885.33	-0.000
885.50	-0.000
885.67	-0.000
885.84	-0.000
886.01	-0.000
886.17	-0.000
886.34	-0.000
886.51	-0.000
886.68	-0.000
886.85	-0.000
887.02	-0.000
887.19	-0.000
887.36	-0.000
887.52	-0.000
887.69	-0.000
887.86	-0.000
888.03	-0.000
888.20	-0.000
888.37	-0.000
888.54	-0.000
888.70	-0.000
888.87	-0.000
889.04	-0.000
889.21	-0.000
889.38	-0.000
889.55	-0.000
889.71	-0.000
889.88	-0.000
890.05	-0.000
890.22	-0.000
890.39	-0.000
>>>>>End Processed Spectral Data<<<<<
